3996.31543,0.00001
3994.38671,0.00000
3992.45799,0.00021
3990.52926,0.00039
3988.60054,0.00035
3986.67182,0.00029
3984.74309,0.00035
3982.81437,0.00043
3980.88564,0.00044
3978.95692,0.00040
3977.02820,0.00038
3975.09947,0.00042
3973.17075,0.00045
3971.24203,0.00033
3969.31330,0.00017
3967.38458,0.00022
3965.45586,0.00051
3963.52713,0.00074
3961.59841,0.00072
3959.66968,0.00062
3957.74096,0.00070
3955.81224,0.00090
3953.88351,0.00110
3951.95479,0.00125
3950.02607,0.00119
3948.09734,0.00098
3946.16862,0.00084
3944.23990,0.00076
3942.31117,0.00059
3940.38245,0.00050
3938.45372,0.00064
3936.52500,0.00100
3934.59628,0.00138
3932.66755,0.00152
3930.73883,0.00138
3928.81011,0.00125
3926.88138,0.00122
3924.95266,0.00115
3923.02393,0.00110
3921.09521,0.00122
3919.16649,0.00130
3917.23776,0.00115
3915.30904,0.00091
3913.38032,0.00075
3911.45159,0.00066
3909.52287,0.00072
3907.59415,0.00108
3905.66542,0.00152
3903.73670,0.00163
3901.80797,0.00125
3899.87925,0.00066
3897.95053,0.00041
3896.02180,0.00073
3894.09308,0.00120
3892.16436,0.00131
3890.23563,0.00131
3888.30691,0.00153
3886.37819,0.00158
3884.44946,0.00132
3882.52074,0.00118
3880.59201,0.00100
3878.66329,0.00078
3876.73457,0.00088
3874.80584,0.00112
3872.87712,0.00124
3870.94840,0.00123
3869.01967,0.00117
3867.09095,0.00120
3865.16222,0.00103
3863.23350,0.00060
3861.30478,0.00056
3859.37605,0.00123
3857.44733,0.00231
3855.51861,0.00293
3853.58988,0.00204
3851.66116,0.00043
3849.73244,0.00000
3847.80371,0.00058
3845.87499,0.00128
3843.94626,0.00166
3842.01754,0.00167
3840.08882,0.00141
3838.16009,0.00100
3836.23137,0.00073
3834.30265,0.00075
3832.37392,0.00081
3830.44520,0.00084
3828.51648,0.00092
3826.58775,0.00108
3824.65903,0.00139
3822.73030,0.00156
3820.80158,0.00129
3818.87286,0.00113
3816.94413,0.00120
3815.01541,0.00108
3813.08669,0.00120
3811.15796,0.00182
3809.22924,0.00237
3807.30052,0.00233
3805.37179,0.00203
3803.44307,0.00185
3801.51434,0.00152
3799.58562,0.00133
3797.65690,0.00155
3795.72817,0.00171
3793.79945,0.00178
3791.87073,0.00206
3789.94200,0.00254
3788.01328,0.00294
3786.08455,0.00312
3784.15583,0.00321
3782.22711,0.00334
3780.29838,0.00332
3778.36966,0.00316
3776.44094,0.00332
3774.51221,0.00390
3772.58349,0.00446
3770.65477,0.00462
3768.72604,0.00448
3766.79732,0.00437
3764.86859,0.00449
3762.93987,0.00496
3761.01115,0.00557
3759.08242,0.00588
3757.15370,0.00603
3755.22498,0.00648
3753.29625,0.00706
3751.36753,0.00726
3749.43881,0.00737
3747.51008,0.00801
3745.58136,0.00864
3743.65263,0.00880
3741.72391,0.00932
3739.79519,0.01053
3737.86646,0.01171
3735.93774,0.01222
3734.00902,0.01242
3732.08029,0.01313
3730.15157,0.01454
3728.22284,0.01617
3726.29412,0.01748
3724.36540,0.01845
3722.43667,0.01950
3720.50795,0.02082
3718.57923,0.02237
3716.65050,0.02413
3714.72178,0.02620
3712.79306,0.02848
3710.86433,0.03057
3708.93561,0.03244
3707.00688,0.03452
3705.07816,0.03692
3703.14944,0.03944
3701.22071,0.04205
3699.29199,0.04483
3697.36327,0.04767
3695.43454,0.05042
3693.50582,0.05301
3691.57710,0.05556
3689.64837,0.05827
3687.71965,0.06129
3685.79092,0.06454
3683.86220,0.06791
3681.93348,0.07136
3680.00475,0.07492
3678.07603,0.07870
3676.14731,0.08269
3674.21858,0.08643
3672.28986,0.08963
3670.36113,0.09276
3668.43241,0.09617
3666.50369,0.09967
3664.57496,0.10306
3662.64624,0.10624
3660.71752,0.10927
3658.78879,0.11234
3656.86007,0.11549
3654.93135,0.11849
3653.00262,0.12112
3651.07390,0.12345
3649.14517,0.12578
3647.21645,0.12838
3645.28773,0.13109
3643.35900,0.13372
3641.43028,0.13624
3639.50156,0.13865
3637.57283,0.14091
3635.64411,0.14307
3633.71539,0.14520
3631.78666,0.14721
3629.85794,0.14891
3627.92921,0.15046
3626.00049,0.15229
3624.07177,0.15439
3622.14304,0.15640
3620.21432,0.15804
3618.28560,0.15944
3616.35687,0.16099
3614.42815,0.16273
3612.49942,0.16437
3610.57070,0.16577
3608.64198,0.16699
3606.71325,0.16823
3604.78453,0.16967
3602.85581,0.17125
3600.92708,0.17279
3598.99836,0.17424
3597.06964,0.17559
3595.14091,0.17681
3593.21219,0.17814
3591.28346,0.17972
3589.35474,0.18121
3587.42602,0.18240
3585.49729,0.18355
3583.56857,0.18491
3581.63985,0.18630
3579.71112,0.18749
3577.78240,0.18849
3575.85368,0.18958
3573.92495,0.19094
3571.99623,0.19245
3570.06750,0.19372
3568.13878,0.19444
3566.21006,0.19488
3564.28133,0.19571
3562.35261,0.19702
3560.42389,0.19839
3558.49516,0.19956
3556.56644,0.20066
3554.63771,0.20184
3552.70899,0.20308
3550.78027,0.20423
3548.85154,0.20522
3546.92282,0.20600
3544.99410,0.20665
3543.06537,0.20751
3541.13665,0.20871
3539.20793,0.21006
3537.27920,0.21130
3535.35048,0.21241
3533.42175,0.21348
3531.49303,0.21449
3529.56431,0.21528
3527.63558,0.21589
3525.70686,0.21658
3523.77814,0.21746
3521.84941,0.21845
3519.92069,0.21941
3517.99197,0.22031
3516.06324,0.22114
3514.13452,0.22187
3512.20579,0.22247
3510.27707,0.22297
3508.34835,0.22361
3506.41962,0.22451
3504.49090,0.22554
3502.56218,0.22648
3500.63345,0.22728
3498.70473,0.22802
3496.77600,0.22878
3494.84728,0.22953
3492.91856,0.23013
3490.98983,0.23057
3489.06111,0.23110
3487.13239,0.23183
3485.20366,0.23254
3483.27494,0.23311
3481.34622,0.23369
3479.41749,0.23448
3477.48877,0.23537
3475.56004,0.23606
3473.63132,0.23663
3471.70260,0.23728
3469.77387,0.23792
3467.84515,0.23838
3465.91643,0.23881
3463.98770,0.23933
3462.05898,0.23975
3460.13026,0.24017
3458.20153,0.24083
3456.27281,0.24150
3454.34408,0.24193
3452.41536,0.24221
3450.48664,0.24250
3448.55791,0.24271
3446.62919,0.24295
3444.70047,0.24344
3442.77174,0.24408
3440.84302,0.24465
3438.91429,0.24511
3436.98557,0.24550
3435.05685,0.24575
3433.12812,0.24583
3431.19940,0.24592
3429.27068,0.24609
3427.34195,0.24634
3425.41323,0.24673
3423.48451,0.24709
3421.55578,0.24719
3419.62706,0.24719
3417.69833,0.24737
3415.76961,0.24772
3413.84089,0.24807
3411.91216,0.24820
3409.98344,0.24823
3408.05472,0.24827
3406.12599,0.24827
3404.19727,0.24840
3402.26855,0.24867
3400.33982,0.24884
3398.41110,0.24881
3396.48237,0.24866
3394.55365,0.24864
3392.62493,0.24886
3390.69620,0.24908
3388.76748,0.24920
3386.83876,0.24927
3384.91003,0.24927
3382.98131,0.24923
3381.05259,0.24908
3379.12386,0.24877
3377.19514,0.24851
3375.26641,0.24846
3373.33769,0.24847
3371.40897,0.24838
3369.48024,0.24830
3367.55152,0.24818
3365.62280,0.24796
3363.69407,0.24786
3361.76535,0.24788
3359.83662,0.24774
3357.90790,0.24750
3355.97918,0.24739
3354.05045,0.24727
3352.12173,0.24697
3350.19301,0.24664
3348.26428,0.24644
3346.33556,0.24622
3344.40684,0.24594
3342.47811,0.24557
3340.54939,0.24516
3338.62066,0.24487
3336.69194,0.24476
3334.76322,0.24475
3332.83449,0.24467
3330.90577,0.24442
3328.97705,0.24411
3327.04832,0.24371
3325.11960,0.24333
3323.19088,0.24323
3321.26215,0.24333
3319.33343,0.24315
3317.40470,0.24259
3315.47598,0.24204
3313.54726,0.24179
3311.61853,0.24182
3309.68981,0.24184
3307.76109,0.24166
3305.83236,0.24128
3303.90364,0.24086
3301.97491,0.24049
3300.04619,0.24018
3298.11747,0.23993
3296.18874,0.23980
3294.26002,0.23975
3292.33130,0.23957
3290.40257,0.23923
3288.47385,0.23888
3286.54513,0.23850
3284.61640,0.23813
3282.68768,0.23796
3280.75895,0.23792
3278.83023,0.23767
3276.90151,0.23733
3274.97278,0.23710
3273.04406,0.23676
3271.11534,0.23620
3269.18661,0.23573
3267.25789,0.23540
3265.32917,0.23495
3263.40044,0.23445
3261.47172,0.23407
3259.54299,0.23367
3257.61427,0.23321
3255.68555,0.23283
3253.75682,0.23253
3251.82810,0.23228
3249.89938,0.23210
3247.97065,0.23192
3246.04193,0.23161
3244.11320,0.23110
3242.18448,0.23047
3240.25576,0.22993
3238.32703,0.22964
3236.39831,0.22945
3234.46959,0.22906
3232.54086,0.22841
3230.61214,0.22779
3228.68342,0.22734
3226.75469,0.22693
3224.82597,0.22649
3222.89724,0.22607
3220.96852,0.22559
3219.03980,0.22497
3217.11107,0.22435
3215.18235,0.22393
3213.25363,0.22359
3211.32490,0.22304
3209.39618,0.22228
3207.46746,0.22156
3205.53873,0.22097
3203.61001,0.22045
3201.68128,0.21999
3199.75256,0.21947
3197.82384,0.21879
3195.89511,0.21802
3193.96639,0.21726
3192.03767,0.21653
3190.10894,0.21587
3188.18022,0.21518
3186.25149,0.21443
3184.32277,0.21369
3182.39405,0.21301
3180.46532,0.21247
3178.53660,0.21199
3176.60788,0.21136
3174.67915,0.21055
3172.75043,0.20969
3170.82171,0.20888
3168.89298,0.20810
3166.96426,0.20733
3165.03553,0.20652
3163.10681,0.20571
3161.17809,0.20499
3159.24936,0.20435
3157.32064,0.20363
3155.39192,0.20279
3153.46319,0.20198
3151.53447,0.20127
3149.60575,0.20057
3147.67702,0.19980
3145.74830,0.19888
3143.81957,0.19779
3141.89085,0.19678
3139.96213,0.19614
3138.03340,0.19568
3136.10468,0.19498
3134.17596,0.19402
3132.24723,0.19305
3130.31851,0.19221
3128.38978,0.19144
3126.46106,0.19064
3124.53234,0.18990
3122.60361,0.18923
3120.67489,0.18851
3118.74617,0.18770
3116.81744,0.18688
3114.88872,0.18607
3112.96000,0.18525
3111.03127,0.18434
3109.10255,0.18331
3107.17382,0.18231
3105.24510,0.18144
3103.31638,0.18065
3101.38765,0.17983
3099.45893,0.17898
3097.53021,0.17810
3095.60148,0.17715
3093.67276,0.17614
3091.74404,0.17520
3089.81531,0.17434
3087.88659,0.17354
3085.95786,0.17274
3084.02914,0.17184
3082.10042,0.17080
3080.17169,0.16973
3078.24297,0.16878
3076.31425,0.16791
3074.38552,0.16701
3072.45680,0.16602
3070.52807,0.16501
3068.59935,0.16409
3066.67063,0.16322
3064.74190,0.16229
3062.81318,0.16124
3060.88446,0.16012
3058.95573,0.15901
3057.02701,0.15793
3055.09829,0.15696
3053.16956,0.15623
3051.24084,0.15552
3049.31211,0.15463
3047.38339,0.15360
3045.45467,0.15260
3043.52594,0.15172
3041.59722,0.15090
3039.66850,0.15008
3037.73977,0.14927
3035.81105,0.14843
3033.88233,0.14752
3031.95360,0.14657
3030.02488,0.14561
3028.09615,0.14469
3026.16743,0.14389
3024.23871,0.14319
3022.30998,0.14248
3020.38126,0.14165
3018.45254,0.14072
3016.52381,0.13982
3014.59509,0.13907
3012.66636,0.13845
3010.73764,0.13790
3008.80892,0.13729
3006.88019,0.13654
3004.95147,0.13579
3003.02275,0.13515
3001.09402,0.13458
2999.16530,0.13411
2997.23658,0.13370
2995.30785,0.13323
2993.37913,0.13274
2991.45040,0.13234
2989.52168,0.13196
2987.59296,0.13151
2985.66423,0.13115
2983.73551,0.13101
2981.80679,0.13091
2979.87806,0.13073
2977.94934,0.13056
2976.02062,0.13044
2974.09189,0.13039
2972.16317,0.13050
2970.23444,0.13077
2968.30572,0.13108
2966.37700,0.13127
2964.44827,0.13139
2962.51955,0.13152
2960.59083,0.13149
2958.66210,0.13126
2956.73338,0.13094
2954.80466,0.13058
2952.87593,0.13012
2950.94721,0.12959
2949.01848,0.12923
2947.08976,0.12919
2945.16104,0.12937
2943.23231,0.12978
2941.30359,0.13045
2939.37487,0.13130
2937.44614,0.13216
2935.51742,0.13302
2933.58869,0.13388
2931.65997,0.13455
2929.73125,0.13489
2927.80252,0.13493
2925.87380,0.13465
2923.94508,0.13378
2922.01635,0.13222
2920.08763,0.13011
2918.15891,0.12767
2916.23018,0.12519
2914.30146,0.12288
2912.37273,0.12077
2910.44401,0.11882
2908.51529,0.11705
2906.58656,0.11545
2904.65784,0.11393
2902.72912,0.11249
2900.80039,0.11114
2898.87167,0.10982
2896.94295,0.10860
2895.01422,0.10746
2893.08550,0.10628
2891.15677,0.10504
2889.22805,0.10389
2887.29933,0.10291
2885.37060,0.10194
2883.44188,0.10101
2881.51316,0.10031
2879.58443,0.09975
2877.65571,0.09921
2875.72698,0.09873
2873.79826,0.09830
2871.86954,0.09784
2869.94081,0.09729
2868.01209,0.09662
2866.08337,0.09603
2864.15464,0.09576
2862.22592,0.09588
2860.29720,0.09625
2858.36847,0.09674
2856.43975,0.09714
2854.51102,0.09719
2852.58230,0.09645
2850.65358,0.09466
2848.72485,0.09205
2846.79613,0.08919
2844.86741,0.08654
2842.93868,0.08425
2841.00996,0.08228
2839.08124,0.08052
2837.15251,0.07890
2835.22379,0.07748
2833.29506,0.07631
2831.36634,0.07522
2829.43762,0.07414
2827.50889,0.07317
2825.58017,0.07237
2823.65145,0.07163
2821.72272,0.07083
2819.79400,0.07002
2817.86527,0.06925
2815.93655,0.06851
2814.00783,0.06785
2812.07910,0.06726
2810.15038,0.06660
2808.22166,0.06580
2806.29293,0.06500
2804.36421,0.06432
2802.43549,0.06379
2800.50676,0.06338
2798.57804,0.06288
2796.64931,0.06214
2794.72059,0.06134
2792.79187,0.06069
2790.86314,0.06016
2788.93442,0.05966
2787.00570,0.05915
2785.07697,0.05861
2783.14825,0.05803
2781.21953,0.05740
2779.29080,0.05676
2777.36208,0.05621
2775.43335,0.05578
2773.50463,0.05534
2771.57591,0.05484
2769.64718,0.05429
2767.71846,0.05372
2765.78974,0.05313
2763.86101,0.05252
2761.93229,0.05193
2760.00356,0.05142
2758.07484,0.05095
2756.14612,0.05049
2754.21739,0.05005
2752.28867,0.04961
2750.35995,0.04917
2748.43122,0.04873
2746.50250,0.04826
2744.57378,0.04769
2742.64505,0.04707
2740.71633,0.04657
2738.78760,0.04619
2736.85888,0.04581
2734.93016,0.04532
2733.00143,0.04483
2731.07271,0.04442
2729.14399,0.04402
2727.21526,0.04359
2725.28654,0.04315
2723.35782,0.04274
2721.42909,0.04228
2719.50037,0.04175
2717.57164,0.04124
2715.64292,0.04084
2713.71420,0.04045
2711.78547,0.04000
2709.85675,0.03948
2707.92803,0.03894
2705.99930,0.03846
2704.07058,0.03806
2702.14185,0.03767
2700.21313,0.03727
2698.28441,0.03687
2696.35568,0.03646
2694.42696,0.03607
2692.49824,0.03575
2690.56951,0.03543
2688.64079,0.03499
2686.71207,0.03447
2684.78334,0.03402
2682.85462,0.03368
2680.92589,0.03337
2678.99717,0.03299
2677.06845,0.03255
2675.13972,0.03217
2673.21100,0.03185
2671.28228,0.03152
2669.35355,0.03116
2667.42483,0.03078
2665.49611,0.03037
2663.56738,0.02994
2661.63866,0.02953
2659.70993,0.02914
2657.78121,0.02884
2655.85249,0.02855
2653.92376,0.02819
2651.99504,0.02779
2650.06632,0.02736
2648.13759,0.02693
2646.20887,0.02657
2644.28014,0.02631
2642.35142,0.02611
2640.42270,0.02587
2638.49397,0.02552
2636.56525,0.02515
2634.63653,0.02480
2632.70780,0.02450
2630.77908,0.02424
2628.85036,0.02396
2626.92163,0.02359
2624.99291,0.02318
2623.06418,0.02280
2621.13546,0.02250
2619.20674,0.02234
2617.27801,0.02219
2615.34929,0.02192
2613.42057,0.02162
2611.49184,0.02132
2609.56312,0.02098
2607.63440,0.02062
2605.70567,0.02031
2603.77695,0.02007
2601.84822,0.01984
2599.91950,0.01957
2597.99078,0.01930
2596.06205,0.01910
2594.13333,0.01890
2592.20461,0.01861
2590.27588,0.01833
2588.34716,0.01809
2586.41843,0.01782
2584.48971,0.01759
2582.56099,0.01743
2580.63226,0.01725
2578.70354,0.01702
2576.77482,0.01679
2574.84609,0.01662
2572.91737,0.01648
2570.98865,0.01628
2569.05992,0.01599
2567.13120,0.01571
2565.20247,0.01547
2563.27375,0.01523
2561.34503,0.01502
2559.41630,0.01487
2557.48758,0.01478
2555.55886,0.01467
2553.63013,0.01447
2551.70141,0.01423
2549.77269,0.01404
2547.84396,0.01391
2545.91524,0.01377
2543.98651,0.01361
2542.05779,0.01346
2540.12907,0.01329
2538.20034,0.01311
2536.27162,0.01294
2534.34290,0.01276
2532.41417,0.01256
2530.48545,0.01238
2528.55673,0.01223
2526.62800,0.01210
2524.69928,0.01191
2522.77055,0.01165
2520.84183,0.01139
2518.91311,0.01118
2516.98438,0.01103
2515.05566,0.01098
2513.12694,0.01092
2511.19821,0.01075
2509.26949,0.01052
2507.34076,0.01030
2505.41204,0.01017
2503.48332,0.01008
2501.55459,0.00994
2499.62587,0.00977
2497.69715,0.00963
2495.76842,0.00950
2493.83970,0.00933
2491.91098,0.00913
2489.98225,0.00901
2488.05353,0.00893
2486.12480,0.00881
2484.19608,0.00864
2482.26736,0.00849
2480.33863,0.00834
2478.40991,0.00822
2476.48119,0.00809
2474.55246,0.00791
2472.62374,0.00773
2470.69502,0.00760
2468.76629,0.00750
2466.83757,0.00738
2464.90884,0.00724
2462.98012,0.00710
2461.05140,0.00698
2459.12267,0.00689
2457.19395,0.00683
2455.26523,0.00669
2453.33650,0.00651
2451.40778,0.00639
2449.47905,0.00627
2447.55033,0.00611
2445.62161,0.00598
2443.69288,0.00588
2441.76416,0.00572
2439.83544,0.00551
2437.90671,0.00535
2435.97799,0.00523
2434.04927,0.00503
2432.12054,0.00482
2430.19182,0.00472
2428.26309,0.00469
2426.33437,0.00465
2424.40565,0.00457
2422.47692,0.00446
2420.54820,0.00434
2418.61948,0.00420
2416.69075,0.00410
2414.76203,0.00404
2412.83331,0.00397
2410.90458,0.00387
2408.97586,0.00380
2407.04713,0.00374
2405.11841,0.00361
2403.18969,0.00349
2401.26096,0.00347
2399.33224,0.00341
2397.40352,0.00325
2395.47479,0.00306
2393.54607,0.00292
2391.61734,0.00282
2389.68862,0.00277
2387.75990,0.00282
2385.83117,0.00290
2383.90245,0.00296
2381.97373,0.00299
2380.04500,0.00302
2378.11628,0.00309
2376.18756,0.00317
2374.25883,0.00318
2372.33011,0.00308
2370.40138,0.00298
2368.47266,0.00298
2366.54394,0.00302
2364.61521,0.00296
2362.68649,0.00277
2360.75777,0.00254
2358.82904,0.00226
2356.90032,0.00194
2354.97160,0.00168
2353.04287,0.00175
2351.11415,0.00235
2349.18542,0.00293
2347.25670,0.00284
2345.32798,0.00233
2343.39925,0.00206
2341.47053,0.00207
2339.54181,0.00206
2337.61308,0.00195
2335.68436,0.00181
2333.75563,0.00178
2331.82691,0.00184
2329.89819,0.00188
2327.96946,0.00187
2326.04074,0.00176
2324.11202,0.00153
2322.18329,0.00129
2320.25457,0.00121
2318.32585,0.00128
2316.39712,0.00133
2314.46840,0.00129
2312.53967,0.00122
2310.61095,0.00115
2308.68223,0.00114
2306.75350,0.00118
2304.82478,0.00120
2302.89606,0.00111
2300.96733,0.00097
2299.03861,0.00090
2297.10989,0.00090
2295.18116,0.00090
2293.25244,0.00087
2291.32371,0.00082
2289.39499,0.00077
2287.46627,0.00074
2285.53754,0.00076
2283.60882,0.00077
2281.68010,0.00074
2279.75137,0.00071
2277.82265,0.00071
2275.89392,0.00072
2273.96520,0.00066
2272.03648,0.00056
2270.10775,0.00047
2268.17903,0.00043
2266.25031,0.00042
2264.32158,0.00043
2262.39286,0.00043
2260.46414,0.00038
2258.53541,0.00033
2256.60669,0.00035
2254.67796,0.00039
2252.74924,0.00038
2250.82052,0.00034
2248.89179,0.00031
2246.96307,0.00029
2245.03435,0.00023
2243.10562,0.00018
2241.17690,0.00023
2239.24818,0.00028
2237.31945,0.00027
2235.39073,0.00025
2233.46200,0.00024
2231.53328,0.00022
2229.60456,0.00023
2227.67583,0.00027
2225.74711,0.00025
2223.81839,0.00020
2221.88966,0.00017
2219.96094,0.00017
2218.03221,0.00017
2216.10349,0.00021
2214.17477,0.00023
2212.24604,0.00019
2210.31732,0.00014
2208.38860,0.00012
2206.45987,0.00007
2204.53115,0.00000
2202.60243,-0.00004
2200.67370,0.00002
2198.74498,0.00012
2196.81625,0.00019
2194.88753,0.00016
2192.95881,0.00002
2191.03008,-0.00007
2189.10136,-0.00002
2187.17264,0.00002
2185.24391,-0.00002
2183.31519,-0.00007
2181.38647,-0.00007
2179.45774,-0.00002
2177.52902,0.00002
2175.60029,0.00003
2173.67157,0.00002
2171.74285,0.00002
2169.81412,0.00008
2167.88540,0.00016
2165.95668,0.00019
2164.02795,0.00017
2162.09923,0.00014
2160.17050,0.00008
2158.24178,0.00004
2156.31306,0.00006
2154.38433,0.00016
2152.45561,0.00023
2150.52689,0.00019
2148.59816,0.00012
2146.66944,0.00010
2144.74072,0.00011
2142.81199,0.00012
2140.88327,0.00010
2138.95454,0.00005
2137.02582,0.00004
2135.09710,0.00006
2133.16837,0.00005
2131.23965,0.00007
2129.31093,0.00011
2127.38220,0.00012
2125.45348,0.00010
2123.52476,0.00006
2121.59603,0.00008
2119.66731,0.00014
2117.73858,0.00016
2115.80986,0.00012
2113.88114,0.00010
2111.95241,0.00011
2110.02369,0.00013
2108.09497,0.00011
2106.16624,0.00008
2104.23752,0.00008
2102.30880,0.00012
2100.38007,0.00013
2098.45135,0.00008
2096.52262,0.00002
2094.59390,0.00000
2092.66518,-0.00000
2090.73645,-0.00004
2088.80773,-0.00018
2086.87901,-0.00030
2084.95028,-0.00036
2083.02156,-0.00043
2081.09283,-0.00052
2079.16411,-0.00057
2077.23539,-0.00055
2075.30666,-0.00047
2073.37794,-0.00040
2071.44922,-0.00039
2069.52049,-0.00043
2067.59177,-0.00044
2065.66305,-0.00039
2063.73432,-0.00034
2061.80560,-0.00034
2059.87687,-0.00037
2057.94815,-0.00032
2056.01943,-0.00020
2054.09070,-0.00007
2052.16198,0.00003
2050.23326,0.00010
2048.30453,0.00018
2046.37581,0.00027
2044.44709,0.00037
2042.51836,0.00046
2040.58964,0.00056
2038.66091,0.00065
2036.73219,0.00071
2034.80347,0.00079
2032.87474,0.00097
2030.94602,0.00119
2029.01730,0.00131
2027.08857,0.00136
2025.15985,0.00146
2023.23112,0.00160
2021.30240,0.00175
2019.37368,0.00186
2017.44495,0.00190
2015.51623,0.00196
2013.58751,0.00205
2011.65878,0.00212
2009.73006,0.00217
2007.80134,0.00223
2005.87261,0.00228
2003.94389,0.00232
2002.01516,0.00236
2000.08644,0.00240
1998.15772,0.00246
1996.22899,0.00254
1994.30027,0.00256
1992.37155,0.00245
1990.44282,0.00228
1988.51410,0.00222
1986.58538,0.00226
1984.65665,0.00233
1982.72793,0.00231
1980.79920,0.00222
1978.87048,0.00216
1976.94176,0.00211
1975.01303,0.00200
1973.08431,0.00187
1971.15559,0.00178
1969.22686,0.00173
1967.29814,0.00166
1965.36941,0.00159
1963.44069,0.00150
1961.51197,0.00133
1959.58324,0.00112
1957.65452,0.00099
1955.72580,0.00095
1953.79707,0.00090
1951.86835,0.00080
1949.93963,0.00066
1948.01090,0.00053
1946.08218,0.00047
1944.15345,0.00045
1942.22473,0.00033
1940.29601,0.00015
1938.36728,0.00006
1936.43856,0.00008
1934.50984,0.00012
1932.58111,0.00007
1930.65239,-0.00003
1928.72367,-0.00006
1926.79494,0.00000
1924.86622,0.00007
1922.93749,0.00015
1921.00877,0.00022
1919.08005,0.00023
1917.15132,0.00024
1915.22260,0.00044
1913.29388,0.00078
1911.36515,0.00110
1909.43643,0.00134
1907.50770,0.00161
1905.57898,0.00196
1903.65026,0.00233
1901.72153,0.00266
1899.79281,0.00298
1897.86409,0.00334
1895.93536,0.00368
1894.00664,0.00401
1892.07792,0.00434
1890.14919,0.00463
1888.22047,0.00490
1886.29174,0.00520
1884.36302,0.00549
1882.43430,0.00575
1880.50557,0.00598
1878.57685,0.00615
1876.64813,0.00627
1874.71940,0.00636
1872.79068,0.00635
1870.86196,0.00615
1868.93323,0.00585
1867.00451,0.00565
1865.07578,0.00561
1863.14706,0.00550
1861.21834,0.00524
1859.28961,0.00493
1857.36089,0.00461
1855.43217,0.00425
1853.50344,0.00389
1851.57472,0.00355
1849.64599,0.00324
1847.71727,0.00296
1845.78855,0.00259
1843.85982,0.00207
1841.93110,0.00167
1840.00238,0.00152
1838.07365,0.00141
1836.14493,0.00124
1834.21621,0.00111
1832.28748,0.00097
1830.35876,0.00070
1828.43003,0.00042
1826.50131,0.00026
1824.57259,0.00011
1822.64386,0.00000
1820.71514,-0.00004
1818.78642,-0.00006
1816.85769,-0.00007
1814.92897,0.00000
1813.00025,0.00001
1811.07152,0.00001
1809.14280,0.00001
1807.21407,0.00008
1805.28535,0.00023
1803.35663,0.00036
1801.42790,0.00042
1799.49918,0.00050
1797.57046,0.00070
1795.64173,0.00103
1793.71301,0.00135
1791.78428,0.00160
1789.85556,0.00196
1787.92684,0.00254
1785.99811,0.00315
1784.06939,0.00366
1782.14067,0.00412
1780.21194,0.00465
1778.28322,0.00529
1776.35450,0.00596
1774.42577,0.00650
1772.49705,0.00691
1770.56832,0.00743
1768.63960,0.00816
1766.71088,0.00893
1764.78215,0.00961
1762.85343,0.01018
1760.92471,0.01072
1758.99598,0.01133
1757.06726,0.01202
1755.13854,0.01278
1753.20981,0.01358
1751.28109,0.01440
1749.35236,0.01523
1747.42364,0.01616
1745.49492,0.01721
1743.56619,0.01839
1741.63747,0.01968
1739.70875,0.02112
1737.78002,0.02259
1735.85130,0.02395
1733.92257,0.02535
1731.99385,0.02694
1730.06513,0.02858
1728.13640,0.03010
1726.20768,0.03152
1724.27896,0.03297
1722.35023,0.03449
1720.42151,0.03594
1718.49279,0.03730
1716.56406,0.03879
1714.63534,0.04051
1712.70661,0.04231
1710.77789,0.04411
1708.84917,0.04597
1706.92044,0.04801
1704.99172,0.05021
1703.06300,0.05251
1701.13427,0.05506
1699.20555,0.05794
1697.27683,0.06093
1695.34810,0.06406
1693.41938,0.06704
1691.49065,0.06977
1689.56193,0.07255
1687.63321,0.07541
1685.70448,0.07851
1683.77576,0.08218
1681.84704,0.08573
1679.91831,0.08871
1677.98959,0.09149
1676.06087,0.09441
1674.13214,0.09737
1672.20342,0.10014
1670.27469,0.10287
1668.34597,0.10562
1666.41725,0.10804
1664.48852,0.11028
1662.55980,0.11262
1660.63108,0.11483
1658.70235,0.11666
1656.77363,0.11814
1654.84490,0.11938
1652.91618,0.12052
1650.98746,0.12160
1649.05873,0.12253
1647.13001,0.12334
1645.20129,0.12410
1643.27256,0.12481
1641.34384,0.12537
1639.41512,0.12564
1637.48639,0.12549
1635.55767,0.12504
1633.62894,0.12474
1631.70022,0.12465
1629.77150,0.12427
1627.84277,0.12332
1625.91405,0.12192
1623.98533,0.12021
1622.05660,0.11842
1620.12788,0.11677
1618.19916,0.11469
1616.27043,0.11183
1614.34171,0.10923
1612.41298,0.10727
1610.48426,0.10526
1608.55554,0.10290
1606.62681,0.10041
1604.69809,0.09787
1602.76937,0.09529
1600.84064,0.09285
1598.91192,0.09066
1596.98319,0.08858
1595.05447,0.08644
1593.12575,0.08436
1591.19702,0.08246
1589.26830,0.08070
1587.33958,0.07892
1585.41085,0.07712
1583.48213,0.07541
1581.55341,0.07389
1579.62468,0.07253
1577.69596,0.07106
1575.76723,0.06946
1573.83851,0.06830
1571.90979,0.06756
1569.98106,0.06669
1568.05234,0.06576
1566.12362,0.06513
1564.19489,0.06483
1562.26617,0.06461
1560.33745,0.06383
1558.40872,0.06238
1556.48000,0.06153
1554.55127,0.06136
1552.62255,0.06107
1550.69383,0.06044
1548.76510,0.05970
1546.83638,0.05903
1544.90766,0.05823
1542.97893,0.05690
1541.05021,0.05485
1539.12148,0.05288
1537.19276,0.05201
1535.26404,0.05146
1533.33531,0.05027
1531.40659,0.04875
1529.47787,0.04741
1527.54914,0.04606
1525.62042,0.04450
1523.69170,0.04283
1521.76297,0.04096
1519.83425,0.03912
1517.90552,0.03758
1515.97680,0.03617
1514.04808,0.03483
1512.11935,0.03352
1510.19063,0.03191
1508.26191,0.02930
1506.33318,0.02575
1504.40446,0.02324
1502.47574,0.02202
1500.54701,0.02082
1498.61829,0.01901
1496.68956,0.01689
1494.76084,0.01531
1492.83212,0.01441
1490.90339,0.01357
1488.97467,0.01259
1487.04595,0.01201
1485.11722,0.01198
1483.18850,0.01222
1481.25977,0.01262
1479.33105,0.01322
1477.40233,0.01408
1475.47360,0.01530
1473.54488,0.01709
1471.61616,0.01940
1469.68743,0.02164
1467.75871,0.02346
1465.82999,0.02491
1463.90126,0.02601
1461.97254,0.02684
1460.04381,0.02747
1458.11509,0.02789
1456.18637,0.02821
1454.25764,0.02859
1452.32892,0.02898
1450.40020,0.02929
1448.47147,0.02949
1446.54275,0.02960
1444.61403,0.02977
1442.68530,0.03005
1440.75658,0.03041
1438.82785,0.03067
1436.89913,0.03073
1434.97041,0.03080
1433.04168,0.03115
1431.11296,0.03173
1429.18424,0.03239
1427.25551,0.03310
1425.32679,0.03387
1423.39806,0.03467
1421.46934,0.03544
1419.54062,0.03623
1417.61189,0.03716
1415.68317,0.03819
1413.75445,0.03922
1411.82572,0.04026
1409.89700,0.04138
1407.96828,0.04248
1406.03955,0.04344
1404.11083,0.04420
1402.18210,0.04465
1400.25338,0.04448
1398.32466,0.04348
1396.39593,0.04178
1394.46721,0.03969
1392.53849,0.03773
1390.60976,0.03616
1388.68104,0.03469
1386.75232,0.03323
1384.82359,0.03206
1382.89487,0.03113
1380.96614,0.03016
1379.03742,0.02905
1377.10870,0.02785
1375.17997,0.02653
1373.25125,0.02518
1371.32253,0.02398
1369.39380,0.02291
1367.46508,0.02196
1365.53635,0.02111
1363.60763,0.02019
1361.67891,0.01917
1359.75018,0.01831
1357.82146,0.01768
1355.89274,0.01718
1353.96401,0.01673
1352.03529,0.01632
1350.10657,0.01592
1348.17784,0.01552
1346.24912,0.01521
1344.32039,0.01498
1342.39167,0.01476
1340.46295,0.01449
1338.53422,0.01424
1336.60550,0.01414
1334.67678,0.01419
1332.74805,0.01426
1330.81933,0.01424
1328.89061,0.01418
1326.96188,0.01423
1325.03316,0.01440
1323.10443,0.01454
1321.17571,0.01462
1319.24699,0.01477
1317.31826,0.01502
1315.38954,0.01523
1313.46082,0.01537
1311.53209,0.01560
1309.60337,0.01597
1307.67464,0.01639
1305.74592,0.01671
1303.81720,0.01698
1301.88847,0.01738
1299.95975,0.01813
1298.03103,0.01922
1296.10230,0.02053
1294.17358,0.02197
1292.24486,0.02356
1290.31613,0.02540
1288.38741,0.02752
1286.45868,0.02986
1284.52996,0.03240
1282.60124,0.03513
1280.67251,0.03804
1278.74379,0.04114
1276.81507,0.04441
1274.88634,0.04793
1272.95762,0.05194
1271.02890,0.05649
1269.10017,0.06152
1267.17145,0.06709
1265.24272,0.07334
1263.31400,0.08038
1261.38528,0.08831
1259.45655,0.09704
1257.52783,0.10641
1255.59911,0.11639
1253.67038,0.12684
1251.74166,0.13746
1249.81294,0.14797
1247.88421,0.15805
1245.95549,0.16747
1244.02676,0.17627
1242.09804,0.18446
1240.16932,0.19195
1238.24059,0.19864
1236.31187,0.20455
1234.38315,0.20972
1232.45442,0.21428
1230.52570,0.21844
1228.59697,0.22246
1226.66825,0.22628
1224.73953,0.22972
1222.81080,0.23278
1220.88208,0.23559
1218.95336,0.23819
1217.02463,0.24064
1215.09591,0.24308
1213.16719,0.24561
1211.23846,0.24810
1209.30974,0.25035
1207.38101,0.25244
1205.45229,0.25462
1203.52357,0.25691
1201.59484,0.25902
1199.66612,0.26081
1197.73740,0.26242
1195.80867,0.26392
1193.87995,0.26563
1191.95123,0.26787
1190.02250,0.27027
1188.09378,0.27221
1186.16505,0.27371
1184.23633,0.27542
1182.30761,0.27769
1180.37888,0.28011
1178.45016,0.28231
1176.52144,0.28439
1174.59271,0.28665
1172.66399,0.28912
1170.73526,0.29156
1168.80654,0.29375
1166.87782,0.29586
1164.94909,0.29798
1163.02037,0.29990
1161.09165,0.30163
1159.16292,0.30336
1157.23420,0.30510
1155.30548,0.30685
1153.37675,0.30871
1151.44803,0.31070
1149.51930,0.31251
1147.59058,0.31384
1145.66186,0.31509
1143.73313,0.31676
1141.80441,0.31861
1139.87569,0.32033
1137.94696,0.32227
1136.01824,0.32447
1134.08952,0.32657
1132.16079,0.32871
1130.23207,0.33118
1128.30334,0.33385
1126.37462,0.33679
1124.44590,0.34036
1122.51717,0.34439
1120.58845,0.34843
1118.65973,0.35273
1116.73100,0.35786
1114.80228,0.36371
1112.87355,0.36995
1110.94483,0.37663
1109.01611,0.38364
1107.08738,0.39023
1105.15866,0.39598
1103.22994,0.40156
1101.30121,0.40700
1099.37249,0.41145
1097.44377,0.41462
1095.51504,0.41693
1093.58632,0.41896
1091.65759,0.42057
1089.72887,0.42138
1087.80015,0.42158
1085.87142,0.42120
1083.94270,0.41976
1082.01398,0.41756
1080.08525,0.41552
1078.15653,0.41344
1076.22781,0.41064
1074.29908,0.40748
1072.37036,0.40457
1070.44163,0.40158
1068.51291,0.39797
1066.58419,0.39375
1064.65546,0.38896
1062.72674,0.38377
1060.79802,0.37851
1058.86929,0.37325
1056.94057,0.36773
1055.01184,0.36172
1053.08312,0.35535
1051.15440,0.34897
1049.22567,0.34263
1047.29695,0.33608
1045.36823,0.32949
1043.43950,0.32306
1041.51078,0.31630
1039.58206,0.30905
1037.65333,0.30208
1035.72461,0.29553
1033.79588,0.28882
1031.86716,0.28208
1029.93844,0.27556
1028.00971,0.26927
1026.08099,0.26327
1024.15227,0.25744
1022.22354,0.25195
1020.29482,0.24674
1018.36610,0.24152
1016.43737,0.23649
1014.50865,0.23168
1012.57992,0.22699
1010.65120,0.22270
1008.72248,0.21895
1006.79375,0.21532
1004.86503,0.21155
1002.93631,0.20798
1001.00758,0.20475
999.07886,0.20167
997.15013,0.19881
995.22141,0.19621
993.29269,0.19348
991.36396,0.19065
989.43524,0.18816
987.50652,0.18615
985.57779,0.18436
983.64907,0.18254
981.72035,0.18073
979.79162,0.17916
977.86290,0.17812
975.93417,0.17754
974.00545,0.17708
972.07673,0.17668
970.14800,0.17628
968.21928,0.17576
966.29056,0.17546
964.36183,0.17552
962.43311,0.17559
960.50439,0.17526
958.57566,0.17455
956.64694,0.17381
954.71821,0.17314
952.78949,0.17237
950.86077,0.17168
948.93204,0.17106
947.00332,0.16992
945.07460,0.16818
943.14587,0.16633
941.21715,0.16445
939.28842,0.16239
937.35970,0.16035
935.43098,0.15838
933.50225,0.15620
931.57353,0.15378
929.64481,0.15128
927.71608,0.14872
925.78736,0.14612
923.85864,0.14349
921.92991,0.14068
920.00119,0.13756
918.07246,0.13431
916.14374,0.13105
914.21502,0.12783
912.28629,0.12474
910.35757,0.12156
908.42885,0.11825
906.50012,0.11498
904.57140,0.11162
902.64268,0.10816
900.71395,0.10478
898.78523,0.10157
896.85650,0.09861
894.92778,0.09587
892.99906,0.09301
891.07033,0.08986
889.14161,0.08666
887.21289,0.08366
885.28416,0.08097
883.35544,0.07857
881.42671,0.07619
879.49799,0.07375
877.56927,0.07166
875.64054,0.06999
873.71182,0.06825
871.78310,0.06622
869.85437,0.06413
867.92565,0.06235
865.99693,0.06093
864.06820,0.05940
862.13948,0.05755
860.21075,0.05578
858.28203,0.05444
856.35331,0.05325
854.42458,0.05192
852.49586,0.05055
850.56714,0.04958
848.63841,0.04924
846.70969,0.04942
844.78097,0.05019
842.85224,0.05142
840.92352,0.05286
838.99479,0.05460
837.06607,0.05670
835.13735,0.05876
833.20862,0.06082
831.27990,0.06328
829.35118,0.06602
827.42245,0.06883
825.49373,0.07154
823.56501,0.07402
821.63628,0.07651
819.70756,0.07905
817.77883,0.08159
815.85011,0.08431
813.92139,0.08706
811.99266,0.08971
810.06394,0.09218
808.13522,0.09441
806.20649,0.09647
804.27777,0.09822
802.34904,0.09952
800.42032,0.10035
798.49160,0.10051
796.56287,0.10019
794.63415,0.09974
792.70543,0.09891
790.77670,0.09753
788.84798,0.09610
786.91926,0.09467
784.99053,0.09255
783.06181,0.08962
781.13308,0.08641
779.20436,0.08329
777.27564,0.08029
775.34691,0.07730
773.41819,0.07423
771.48947,0.07145
769.56074,0.06942
767.63202,0.06783
765.70330,0.06653
763.77457,0.06589
761.84585,0.06578
759.91712,0.06578
757.98840,0.06583
756.05968,0.06584
754.13095,0.06526
752.20223,0.06409
750.27351,0.06330
748.34478,0.06314
746.41606,0.06310
744.48733,0.06288
742.55861,0.06246
740.62989,0.06202
738.70116,0.06183
736.77244,0.06197
734.84372,0.06208
732.91499,0.06186
730.98627,0.06174
729.05755,0.06216
727.12882,0.06279
725.20010,0.06316
723.27137,0.06332
721.34265,0.06350
719.41393,0.06385
717.48520,0.06408
715.55648,0.06399
713.62776,0.06390
711.69903,0.06413
709.77031,0.06462
707.84159,0.06515
705.91286,0.06579
703.98414,0.06691
702.05541,0.06827
700.12669,0.06926
698.19797,0.06994
696.26924,0.07047
694.34052,0.07063
692.41180,0.07052
690.48307,0.07071
688.55435,0.07138
686.62562,0.07203
684.69690,0.07234
682.76818,0.07232
680.83945,0.07215
678.91073,0.07236
676.98201,0.07301
675.05328,0.07352
673.12456,0.07381
671.19584,0.07357
669.26711,0.07250
667.33839,0.07232
665.40966,0.07348
663.48094,0.07413
661.55222,0.07413
659.62349,0.07425
657.69477,0.07474
655.76605,0.07585
653.83732,0.07719
651.90860,0.07805
649.97988,0.07861
648.05115,0.07969
646.12243,0.08163
644.19370,0.08400
642.26498,0.08618
640.33626,0.08801
638.40753,0.08960
636.47881,0.09108
634.55009,0.09257
632.62136,0.09394
630.69264,0.09481
628.76391,0.09517
626.83519,0.09554
624.90647,0.09648
622.97774,0.09791
621.04902,0.09924
619.12030,0.10032
617.19157,0.10153
615.26285,0.10305
613.33413,0.10471
611.40540,0.10616
609.47668,0.10733
607.54795,0.10836
605.61923,0.10936
603.69051,0.11036
601.76178,0.11135
599.83306,0.11246
597.90434,0.11394
595.97561,0.11556
594.04689,0.11667
592.11817,0.11748
590.18944,0.11880
588.26072,0.12050
586.33199,0.12183
584.40327,0.12246
582.47455,0.12253
580.54582,0.12282
578.61710,0.12387
576.68838,0.12505
574.75965,0.12578
572.83093,0.12620
570.90220,0.12658
568.97348,0.12713
567.04476,0.12751
565.11603,0.12672
563.18731,0.12518
561.25859,0.12483
559.32986,0.12617
557.40114,0.12780
555.47242,0.12871
553.54369,0.12906
551.61497,0.12962
549.68624,0.13004
547.75752,0.12946
545.82880,0.12923
543.90007,0.13058
541.97135,0.13189
540.04263,0.13208
538.11390,0.13173
536.18518,0.13101
534.25646,0.13047
532.32773,0.13088
530.39901,0.13162
528.47028,0.13191
526.54156,0.13185
524.61284,0.13205
522.68411,0.13240
520.75539,0.13213
518.82667,0.13183
516.89794,0.13261
514.96922,0.13396
513.04049,0.13523
511.11177,0.13702
509.18305,0.13983
507.25432,0.14306
505.32560,0.14620
503.39688,0.15043
501.46815,0.15627
499.53943,0.16246
497.61071,0.16867
495.68198,0.17590
493.75326,0.18419
491.82453,0.19084
489.89581,0.19417
487.96709,0.19735
486.03836,0.20296
484.10964,0.21039
482.18092,0.21871
480.25219,0.22621
478.32347,0.23050
476.39475,0.23207
474.46602,0.23513
472.53730,0.24309
470.60857,0.25377
468.67985,0.26215
466.75113,0.26563
464.82240,0.26293
462.89368,0.25523
460.96496,0.24830
459.03623,0.24674
457.10751,0.24834
455.17878,0.24817
453.25006,0.24406
451.32134,0.23599
449.39261,0.22588
447.46389,0.21681
445.53517,0.21025
443.60644,0.20606
441.67772,0.20313
439.74900,0.19997
437.82027,0.19580
435.89155,0.19049
433.96282,0.18466
432.03410,0.17833
430.10538,0.16956
428.17665,0.15781
426.24793,0.14731
424.31921,0.14442
422.39048,0.15009
420.46176,0.15653
418.53304,0.15301
416.60431,0.13900
414.67559,0.12414
412.74686,0.11252
410.81814,0.10361
408.88942,0.09796
406.96069,0.09774
405.03197,0.10376
403.10325,0.11214
401.17452,0.11310
399.24580,0.09667
397.31708,0.07345
395.38835,0.07068
393.45963,0.08618
391.53090,0.10358
389.60218,0.12137
387.67346,0.13208
385.74473,0.11798
383.81601,0.09081
381.88729,0.08874
379.95856,0.10776
378.02984,0.09728
376.10111,0.04070
374.17239,0.00000
372.24367,-0.02860
370.31494,-0.01732
368.38622,0.00000
