3996.31543,0.00010
3994.38671,0.00028
3992.45799,0.00022
3990.52926,0.00004
3988.60054,0.00000
3986.67182,0.00008
3984.74309,0.00011
3982.81437,0.00010
3980.88564,0.00013
3978.95692,0.00014
3977.02820,0.00008
3975.09947,0.00002
3973.17075,0.00003
3971.24203,0.00012
3969.31330,0.00027
3967.38458,0.00038
3965.45586,0.00043
3963.52713,0.00045
3961.59841,0.00044
3959.66968,0.00041
3957.74096,0.00040
3955.81224,0.00045
3953.88351,0.00052
3951.95479,0.00058
3950.02607,0.00061
3948.09734,0.00054
3946.16862,0.00040
3944.23990,0.00034
3942.31117,0.00044
3940.38245,0.00055
3938.45372,0.00059
3936.52500,0.00062
3934.59628,0.00073
3932.66755,0.00084
3930.73883,0.00076
3928.81011,0.00054
3926.88138,0.00043
3924.95266,0.00050
3923.02393,0.00059
3921.09521,0.00056
3919.16649,0.00047
3917.23776,0.00038
3915.30904,0.00033
3913.38032,0.00032
3911.45159,0.00032
3909.52287,0.00033
3907.59415,0.00044
3905.66542,0.00062
3903.73670,0.00074
3901.80797,0.00071
3899.87925,0.00048
3897.95053,0.00013
3896.02180,0.00000
3894.09308,0.00014
3892.16436,0.00026
3890.23563,0.00021
3888.30691,0.00026
3886.37819,0.00047
3884.44946,0.00060
3882.52074,0.00057
3880.59201,0.00039
3878.66329,0.00029
3876.73457,0.00044
3874.80584,0.00067
3872.87712,0.00072
3870.94840,0.00057
3869.01967,0.00042
3867.09095,0.00053
3865.16222,0.00077
3863.23350,0.00069
3861.30478,0.00036
3859.37605,0.00022
3857.44733,0.00043
3855.51861,0.00076
3853.58988,0.00072
3851.66116,0.00026
3849.73244,0.00000
3847.80371,0.00013
3845.87499,0.00042
3843.94626,0.00067
3842.01754,0.00080
3840.08882,0.00079
3838.16009,0.00062
3836.23137,0.00040
3834.30265,0.00023
3832.37392,0.00006
3830.44520,-0.00004
3828.51648,0.00006
3826.58775,0.00035
3824.65903,0.00075
3822.73030,0.00109
3820.80158,0.00111
3818.87286,0.00093
3816.94413,0.00082
3815.01541,0.00071
3813.08669,0.00065
3811.15796,0.00079
3809.22924,0.00108
3807.30052,0.00133
3805.37179,0.00155
3803.44307,0.00172
3801.51434,0.00165
3799.58562,0.00154
3797.65690,0.00165
3795.72817,0.00179
3793.79945,0.00180
3791.87073,0.00180
3789.94200,0.00191
3788.01328,0.00216
3786.08455,0.00242
3784.15583,0.00255
3782.22711,0.00263
3780.29838,0.00277
3778.36966,0.00290
3776.44094,0.00305
3774.51221,0.00332
3772.58349,0.00364
3770.65477,0.00385
3768.72604,0.00396
3766.79732,0.00414
3764.86859,0.00449
3762.93987,0.00498
3761.01115,0.00543
3759.08242,0.00572
3757.15370,0.00594
3755.22498,0.00638
3753.29625,0.00726
3751.36753,0.00837
3749.43881,0.00919
3747.51008,0.00965
3745.58136,0.01011
3743.65263,0.01061
3741.72391,0.01115
3739.79519,0.01188
3737.86646,0.01285
3735.93774,0.01384
3734.00902,0.01456
3732.08029,0.01512
3730.15157,0.01591
3728.22284,0.01712
3726.29412,0.01865
3724.36540,0.02026
3722.43667,0.02179
3720.50795,0.02323
3718.57923,0.02471
3716.65050,0.02636
3714.72178,0.02830
3712.79306,0.03077
3710.86433,0.03363
3708.93561,0.03626
3707.00688,0.03853
3705.07816,0.04088
3703.14944,0.04369
3701.22071,0.04687
3699.29199,0.04999
3697.36327,0.05289
3695.43454,0.05576
3693.50582,0.05875
3691.57710,0.06215
3689.64837,0.06613
3687.71965,0.07008
3685.79092,0.07347
3683.86220,0.07668
3681.93348,0.08022
3680.00475,0.08411
3678.07603,0.08844
3676.14731,0.09353
3674.21858,0.09859
3672.28986,0.10258
3670.36113,0.10631
3668.43241,0.11025
3666.50369,0.11382
3664.57496,0.11715
3662.64624,0.12060
3660.71752,0.12404
3658.78879,0.12741
3656.86007,0.13081
3654.93135,0.13397
3653.00262,0.13660
3651.07390,0.13938
3649.14517,0.14294
3647.21645,0.14650
3645.28773,0.14924
3643.35900,0.15154
3641.43028,0.15389
3639.50156,0.15629
3637.57283,0.15854
3635.64411,0.16064
3633.71539,0.16276
3631.78666,0.16505
3629.85794,0.16767
3627.92921,0.17040
3626.00049,0.17258
3624.07177,0.17421
3622.14304,0.17576
3620.21432,0.17758
3618.28560,0.17953
3616.35687,0.18121
3614.42815,0.18278
3612.49942,0.18442
3610.57070,0.18605
3608.64198,0.18767
3606.71325,0.18924
3604.78453,0.19068
3602.85581,0.19224
3600.92708,0.19403
3598.99836,0.19573
3597.06964,0.19717
3595.14091,0.19861
3593.21219,0.20010
3591.28346,0.20143
3589.35474,0.20277
3587.42602,0.20442
3585.49729,0.20609
3583.56857,0.20741
3581.63985,0.20855
3579.71112,0.20983
3577.78240,0.21133
3575.85368,0.21290
3573.92495,0.21435
3571.99623,0.21568
3570.06750,0.21693
3568.13878,0.21812
3566.21006,0.21932
3564.28133,0.22056
3562.35261,0.22184
3560.42389,0.22308
3558.49516,0.22415
3556.56644,0.22501
3554.63771,0.22584
3552.70899,0.22676
3550.78027,0.22779
3548.85154,0.22894
3546.92282,0.23019
3544.99410,0.23137
3543.06537,0.23230
3541.13665,0.23309
3539.20793,0.23396
3537.27920,0.23502
3535.35048,0.23611
3533.42175,0.23710
3531.49303,0.23810
3529.56431,0.23923
3527.63558,0.24036
3525.70686,0.24135
3523.77814,0.24225
3521.84941,0.24317
3519.92069,0.24408
3517.99197,0.24484
3516.06324,0.24549
3514.13452,0.24622
3512.20579,0.24710
3510.27707,0.24794
3508.34835,0.24870
3506.41962,0.24958
3504.49090,0.25064
3502.56218,0.25158
3500.63345,0.25219
3498.70473,0.25268
3496.77600,0.25333
3494.84728,0.25410
3492.91856,0.25473
3490.98983,0.25518
3489.06111,0.25569
3487.13239,0.25632
3485.20366,0.25700
3483.27494,0.25775
3481.34622,0.25860
3479.41749,0.25941
3477.48877,0.26002
3475.56004,0.26042
3473.63132,0.26069
3471.70260,0.26111
3469.77387,0.26182
3467.84515,0.26256
3465.91643,0.26310
3463.98770,0.26350
3462.05898,0.26396
3460.13026,0.26452
3458.20153,0.26501
3456.27281,0.26535
3454.34408,0.26565
3452.41536,0.26598
3450.48664,0.26643
3448.55791,0.26696
3446.62919,0.26747
3444.70047,0.26786
3442.77174,0.26799
3440.84302,0.26814
3438.91429,0.26858
3436.98557,0.26910
3435.05685,0.26942
3433.12812,0.26965
3431.19940,0.27009
3429.27068,0.27075
3427.34195,0.27126
3425.41323,0.27143
3423.48451,0.27157
3421.55578,0.27186
3419.62706,0.27207
3417.69833,0.27212
3415.76961,0.27222
3413.84089,0.27237
3411.91216,0.27248
3409.98344,0.27257
3408.05472,0.27275
3406.12599,0.27303
3404.19727,0.27327
3402.26855,0.27342
3400.33982,0.27361
3398.41110,0.27384
3396.48237,0.27392
3394.55365,0.27379
3392.62493,0.27365
3390.69620,0.27360
3388.76748,0.27358
3386.83876,0.27351
3384.91003,0.27341
3382.98131,0.27333
3381.05259,0.27334
3379.12386,0.27346
3377.19514,0.27350
3375.26641,0.27333
3373.33769,0.27305
3371.40897,0.27285
3369.48024,0.27279
3367.55152,0.27286
3365.62280,0.27296
3363.69407,0.27281
3361.76535,0.27250
3359.83662,0.27239
3357.90790,0.27233
3355.97918,0.27209
3354.05045,0.27183
3352.12173,0.27171
3350.19301,0.27158
3348.26428,0.27134
3346.33556,0.27107
3344.40684,0.27091
3342.47811,0.27087
3340.54939,0.27079
3338.62066,0.27051
3336.69194,0.27005
3334.76322,0.26966
3332.83449,0.26943
3330.90577,0.26916
3328.97705,0.26872
3327.04832,0.26831
3325.11960,0.26813
3323.19088,0.26804
3321.26215,0.26785
3319.33343,0.26754
3317.40470,0.26730
3315.47598,0.26722
3313.54726,0.26711
3311.61853,0.26677
3309.68981,0.26635
3307.76109,0.26617
3305.83236,0.26616
3303.90364,0.26607
3301.97491,0.26583
3300.04619,0.26553
3298.11747,0.26519
3296.18874,0.26483
3294.26002,0.26448
3292.33130,0.26418
3290.40257,0.26394
3288.47385,0.26365
3286.54513,0.26319
3284.61640,0.26272
3282.68768,0.26243
3280.75895,0.26221
3278.83023,0.26194
3276.90151,0.26156
3274.97278,0.26106
3273.04406,0.26056
3271.11534,0.26023
3269.18661,0.26006
3267.25789,0.25985
3265.32917,0.25939
3263.40044,0.25874
3261.47172,0.25811
3259.54299,0.25765
3257.61427,0.25736
3255.68555,0.25718
3253.75682,0.25697
3251.82810,0.25651
3249.89938,0.25583
3247.97065,0.25527
3246.04193,0.25488
3244.11320,0.25450
3242.18448,0.25408
3240.25576,0.25368
3238.32703,0.25329
3236.39831,0.25290
3234.46959,0.25248
3232.54086,0.25197
3230.61214,0.25133
3228.68342,0.25060
3226.75469,0.24993
3224.82597,0.24926
3222.89724,0.24855
3220.96852,0.24802
3219.03980,0.24764
3217.11107,0.24718
3215.18235,0.24658
3213.25363,0.24593
3211.32490,0.24528
3209.39618,0.24467
3207.46746,0.24403
3205.53873,0.24323
3203.61001,0.24235
3201.68128,0.24159
3199.75256,0.24100
3197.82384,0.24041
3195.89511,0.23959
3193.96639,0.23861
3192.03767,0.23782
3190.10894,0.23729
3188.18022,0.23666
3186.25149,0.23588
3184.32277,0.23506
3182.39405,0.23417
3180.46532,0.23335
3178.53660,0.23267
3176.60788,0.23196
3174.67915,0.23113
3172.75043,0.23021
3170.82171,0.22932
3168.89298,0.22847
3166.96426,0.22758
3165.03553,0.22671
3163.10681,0.22596
3161.17809,0.22528
3159.24936,0.22449
3157.32064,0.22359
3155.39192,0.22276
3153.46319,0.22199
3151.53447,0.22121
3149.60575,0.22038
3147.67702,0.21942
3145.74830,0.21840
3143.81957,0.21754
3141.89085,0.21693
3139.96213,0.21634
3138.03340,0.21545
3136.10468,0.21429
3134.17596,0.21322
3132.24723,0.21243
3130.31851,0.21177
3128.38978,0.21102
3126.46106,0.21023
3124.53234,0.20947
3122.60361,0.20868
3120.67489,0.20782
3118.74617,0.20691
3116.81744,0.20599
3114.88872,0.20505
3112.96000,0.20412
3111.03127,0.20333
3109.10255,0.20268
3107.17382,0.20184
3105.24510,0.20066
3103.31638,0.19937
3101.38765,0.19827
3099.45893,0.19744
3097.53021,0.19672
3095.60148,0.19589
3093.67276,0.19492
3091.74404,0.19386
3089.81531,0.19288
3087.88659,0.19201
3085.95786,0.19119
3084.02914,0.19039
3082.10042,0.18952
3080.17169,0.18846
3078.24297,0.18729
3076.31425,0.18620
3074.38552,0.18526
3072.45680,0.18437
3070.52807,0.18344
3068.59935,0.18246
3066.67063,0.18151
3064.74190,0.18056
3062.81318,0.17955
3060.88446,0.17848
3058.95573,0.17750
3057.02701,0.17662
3055.09829,0.17573
3053.16956,0.17476
3051.24084,0.17375
3049.31211,0.17271
3047.38339,0.17167
3045.45467,0.17070
3043.52594,0.16977
3041.59722,0.16874
3039.66850,0.16765
3037.73977,0.16665
3035.81105,0.16565
3033.88233,0.16454
3031.95360,0.16337
3030.02488,0.16219
3028.09615,0.16100
3026.16743,0.15983
3024.23871,0.15868
3022.30998,0.15759
3020.38126,0.15664
3018.45254,0.15572
3016.52381,0.15459
3014.59509,0.15325
3012.66636,0.15216
3010.73764,0.15161
3008.80892,0.15122
3006.88019,0.15071
3004.95147,0.15008
3003.02275,0.14931
3001.09402,0.14842
2999.16530,0.14754
2997.23658,0.14674
2995.30785,0.14592
2993.37913,0.14520
2991.45040,0.14471
2989.52168,0.14426
2987.59296,0.14353
2985.66423,0.14259
2983.73551,0.14207
2981.80679,0.14235
2979.87806,0.14298
2977.94934,0.14341
2976.02062,0.14362
2974.09189,0.14379
2972.16317,0.14409
2970.23444,0.14464
2968.30572,0.14544
2966.37700,0.14629
2964.44827,0.14692
2962.51955,0.14729
2960.59083,0.14749
2958.66210,0.14753
2956.73338,0.14740
2954.80466,0.14712
2952.87593,0.14679
2950.94721,0.14642
2949.01848,0.14605
2947.08976,0.14584
2945.16104,0.14594
2943.23231,0.14640
2941.30359,0.14718
2939.37487,0.14813
2937.44614,0.14908
2935.51742,0.14998
2933.58869,0.15082
2931.65997,0.15159
2929.73125,0.15222
2927.80252,0.15251
2925.87380,0.15234
2923.94508,0.15170
2922.01635,0.15045
2920.08763,0.14849
2918.15891,0.14598
2916.23018,0.14324
2914.30146,0.14049
2912.37273,0.13780
2910.44401,0.13530
2908.51529,0.13315
2906.58656,0.13127
2904.65784,0.12961
2902.72912,0.12822
2900.80039,0.12698
2898.87167,0.12572
2896.94295,0.12445
2895.01422,0.12327
2893.08550,0.12208
2891.15677,0.12081
2889.22805,0.11957
2887.29933,0.11841
2885.37060,0.11731
2883.44188,0.11634
2881.51316,0.11554
2879.58443,0.11487
2877.65571,0.11426
2875.72698,0.11363
2873.79826,0.11308
2871.86954,0.11262
2869.94081,0.11204
2868.01209,0.11135
2866.08337,0.11078
2864.15464,0.11055
2862.22592,0.11076
2860.29720,0.11137
2858.36847,0.11213
2856.43975,0.11280
2854.51102,0.11310
2852.58230,0.11263
2850.65358,0.11108
2848.72485,0.10843
2846.79613,0.10507
2844.86741,0.10168
2842.93868,0.09870
2841.00996,0.09621
2839.08124,0.09420
2837.15251,0.09254
2835.22379,0.09104
2833.29506,0.08968
2831.36634,0.08847
2829.43762,0.08741
2827.50889,0.08641
2825.58017,0.08543
2823.65145,0.08448
2821.72272,0.08362
2819.79400,0.08284
2817.86527,0.08204
2815.93655,0.08118
2814.00783,0.08042
2812.07910,0.07976
2810.15038,0.07904
2808.22166,0.07826
2806.29293,0.07760
2804.36421,0.07706
2802.43549,0.07648
2800.50676,0.07585
2798.57804,0.07519
2796.64931,0.07446
2794.72059,0.07370
2792.79187,0.07300
2790.86314,0.07243
2788.93442,0.07193
2787.00570,0.07137
2785.07697,0.07069
2783.14825,0.06998
2781.21953,0.06936
2779.29080,0.06885
2777.36208,0.06833
2775.43335,0.06771
2773.50463,0.06706
2771.57591,0.06645
2769.64718,0.06587
2767.71846,0.06527
2765.78974,0.06466
2763.86101,0.06405
2761.93229,0.06349
2760.00356,0.06297
2758.07484,0.06247
2756.14612,0.06193
2754.21739,0.06138
2752.28867,0.06092
2750.35995,0.06049
2748.43122,0.05995
2746.50250,0.05938
2744.57378,0.05885
2742.64505,0.05833
2740.71633,0.05785
2738.78760,0.05742
2736.85888,0.05696
2734.93016,0.05648
2733.00143,0.05597
2731.07271,0.05539
2729.14399,0.05484
2727.21526,0.05441
2725.28654,0.05402
2723.35782,0.05358
2721.42909,0.05309
2719.50037,0.05259
2717.57164,0.05209
2715.64292,0.05157
2713.71420,0.05101
2711.78547,0.05047
2709.85675,0.04999
2707.92803,0.04949
2705.99930,0.04902
2704.07058,0.04865
2702.14185,0.04832
2700.21313,0.04793
2698.28441,0.04749
2696.35568,0.04710
2694.42696,0.04666
2692.49824,0.04612
2690.56951,0.04564
2688.64079,0.04524
2686.71207,0.04485
2684.78334,0.04448
2682.85462,0.04415
2680.92589,0.04384
2678.99717,0.04353
2677.06845,0.04317
2675.13972,0.04273
2673.21100,0.04229
2671.28228,0.04193
2669.35355,0.04163
2667.42483,0.04125
2665.49611,0.04079
2663.56738,0.04036
2661.63866,0.04000
2659.70993,0.03965
2657.78121,0.03923
2655.85249,0.03878
2653.92376,0.03845
2651.99504,0.03822
2650.06632,0.03794
2648.13759,0.03762
2646.20887,0.03728
2644.28014,0.03688
2642.35142,0.03650
2640.42270,0.03618
2638.49397,0.03588
2636.56525,0.03555
2634.63653,0.03522
2632.70780,0.03493
2630.77908,0.03471
2628.85036,0.03442
2626.92163,0.03405
2624.99291,0.03372
2623.06418,0.03346
2621.13546,0.03319
2619.20674,0.03286
2617.27801,0.03249
2615.34929,0.03210
2613.42057,0.03178
2611.49184,0.03152
2609.56312,0.03129
2607.63440,0.03106
2605.70567,0.03081
2603.77695,0.03060
2601.84822,0.03041
2599.91950,0.03016
2597.99078,0.02983
2596.06205,0.02948
2594.13333,0.02920
2592.20461,0.02901
2590.27588,0.02884
2588.34716,0.02857
2586.41843,0.02820
2584.48971,0.02788
2582.56099,0.02773
2580.63226,0.02759
2578.70354,0.02740
2576.77482,0.02713
2574.84609,0.02679
2572.91737,0.02650
2570.98865,0.02637
2569.05992,0.02623
2567.13120,0.02599
2565.20247,0.02573
2563.27375,0.02546
2561.34503,0.02521
2559.41630,0.02501
2557.48758,0.02487
2555.55886,0.02476
2553.63013,0.02460
2551.70141,0.02435
2549.77269,0.02408
2547.84396,0.02390
2545.91524,0.02377
2543.98651,0.02361
2542.05779,0.02346
2540.12907,0.02334
2538.20034,0.02323
2536.27162,0.02309
2534.34290,0.02286
2532.41417,0.02261
2530.48545,0.02242
2528.55673,0.02227
2526.62800,0.02210
2524.69928,0.02194
2522.77055,0.02181
2520.84183,0.02172
2518.91311,0.02161
2516.98438,0.02143
2515.05566,0.02118
2513.12694,0.02098
2511.19821,0.02085
2509.26949,0.02069
2507.34076,0.02050
2505.41204,0.02035
2503.48332,0.02027
2501.55459,0.02017
2499.62587,0.02000
2497.69715,0.01983
2495.76842,0.01966
2493.83970,0.01949
2491.91098,0.01932
2489.98225,0.01920
2488.05353,0.01911
2486.12480,0.01899
2484.19608,0.01886
2482.26736,0.01870
2480.33863,0.01853
2478.40991,0.01838
2476.48119,0.01825
2474.55246,0.01816
2472.62374,0.01810
2470.69502,0.01800
2468.76629,0.01785
2466.83757,0.01771
2464.90884,0.01757
2462.98012,0.01745
2461.05140,0.01740
2459.12267,0.01738
2457.19395,0.01733
2455.26523,0.01721
2453.33650,0.01711
2451.40778,0.01701
2449.47905,0.01688
2447.55033,0.01677
2445.62161,0.01670
2443.69288,0.01660
2441.76416,0.01649
2439.83544,0.01640
2437.90671,0.01628
2435.97799,0.01610
2434.04927,0.01594
2432.12054,0.01584
2430.19182,0.01576
2428.26309,0.01565
2426.33437,0.01556
2424.40565,0.01549
2422.47692,0.01541
2420.54820,0.01535
2418.61948,0.01529
2416.69075,0.01519
2414.76203,0.01507
2412.83331,0.01496
2410.90458,0.01488
2408.97586,0.01480
2407.04713,0.01467
2405.11841,0.01455
2403.18969,0.01449
2401.26096,0.01442
2399.33224,0.01429
2397.40352,0.01417
2395.47479,0.01413
2393.54607,0.01416
2391.61734,0.01418
2389.68862,0.01415
2387.75990,0.01410
2385.83117,0.01412
2383.90245,0.01417
2381.97373,0.01421
2380.04500,0.01428
2378.11628,0.01439
2376.18756,0.01450
2374.25883,0.01460
2372.33011,0.01469
2370.40138,0.01465
2368.47266,0.01448
2366.54394,0.01435
2364.61521,0.01431
2362.68649,0.01432
2360.75777,0.01437
2358.82904,0.01432
2356.90032,0.01404
2354.97160,0.01371
2353.04287,0.01373
2351.11415,0.01418
2349.18542,0.01445
2347.25670,0.01409
2345.32798,0.01360
2343.39925,0.01357
2341.47053,0.01374
2339.54181,0.01377
2337.61308,0.01370
2335.68436,0.01363
2333.75563,0.01364
2331.82691,0.01368
2329.89819,0.01372
2327.96946,0.01380
2326.04074,0.01385
2324.11202,0.01375
2322.18329,0.01356
2320.25457,0.01339
2318.32585,0.01332
2316.39712,0.01331
2314.46840,0.01329
2312.53967,0.01323
2310.61095,0.01312
2308.68223,0.01307
2306.75350,0.01309
2304.82478,0.01312
2302.89606,0.01314
2300.96733,0.01318
2299.03861,0.01319
2297.10989,0.01311
2295.18116,0.01298
2293.25244,0.01290
2291.32371,0.01286
2289.39499,0.01282
2287.46627,0.01277
2285.53754,0.01272
2283.60882,0.01268
2281.68010,0.01266
2279.75137,0.01266
2277.82265,0.01268
2275.89392,0.01272
2273.96520,0.01273
2272.03648,0.01269
2270.10775,0.01263
2268.17903,0.01258
2266.25031,0.01255
2264.32158,0.01256
2262.39286,0.01258
2260.46414,0.01263
2258.53541,0.01274
2256.60669,0.01288
2254.67796,0.01299
2252.74924,0.01305
2250.82052,0.01308
2248.89179,0.01306
2246.96307,0.01302
2245.03435,0.01305
2243.10562,0.01312
2241.17690,0.01314
2239.24818,0.01309
2237.31945,0.01308
2235.39073,0.01315
2233.46200,0.01325
2231.53328,0.01331
2229.60456,0.01335
2227.67583,0.01338
2225.74711,0.01344
2223.81839,0.01351
2221.88966,0.01354
2219.96094,0.01354
2218.03221,0.01352
2216.10349,0.01348
2214.17477,0.01348
2212.24604,0.01348
2210.31732,0.01343
2208.38860,0.01340
2206.45987,0.01342
2204.53115,0.01344
2202.60243,0.01346
2200.67370,0.01349
2198.74498,0.01357
2196.81625,0.01367
2194.88753,0.01376
2192.95881,0.01384
2191.03008,0.01389
2189.10136,0.01387
2187.17264,0.01387
2185.24391,0.01398
2183.31519,0.01412
2181.38647,0.01417
2179.45774,0.01419
2177.52902,0.01429
2175.60029,0.01443
2173.67157,0.01453
2171.74285,0.01462
2169.81412,0.01471
2167.88540,0.01479
2165.95668,0.01484
2164.02795,0.01488
2162.09923,0.01497
2160.17050,0.01511
2158.24178,0.01524
2156.31306,0.01534
2154.38433,0.01544
2152.45561,0.01556
2150.52689,0.01564
2148.59816,0.01561
2146.66944,0.01550
2144.74072,0.01544
2142.81199,0.01543
2140.88327,0.01546
2138.95454,0.01551
2137.02582,0.01559
2135.09710,0.01571
2133.16837,0.01581
2131.23965,0.01583
2129.31093,0.01580
2127.38220,0.01581
2125.45348,0.01592
2123.52476,0.01612
2121.59603,0.01629
2119.66731,0.01637
2117.73858,0.01644
2115.80986,0.01651
2113.88114,0.01656
2111.95241,0.01665
2110.02369,0.01679
2108.09497,0.01687
2106.16624,0.01686
2104.23752,0.01682
2102.30880,0.01683
2100.38007,0.01696
2098.45135,0.01711
2096.52262,0.01721
2094.59390,0.01730
2092.66518,0.01736
2090.73645,0.01734
2088.80773,0.01728
2086.87901,0.01732
2084.95028,0.01749
2083.02156,0.01762
2081.09283,0.01764
2079.16411,0.01764
2077.23539,0.01773
2075.30666,0.01787
2073.37794,0.01798
2071.44922,0.01810
2069.52049,0.01827
2067.59177,0.01844
2065.66305,0.01862
2063.73432,0.01880
2061.80560,0.01894
2059.87687,0.01906
2057.94815,0.01915
2056.01943,0.01924
2054.09070,0.01942
2052.16198,0.01966
2050.23326,0.01990
2048.30453,0.02015
2046.37581,0.02044
2044.44709,0.02069
2042.51836,0.02092
2040.58964,0.02120
2038.66091,0.02152
2036.73219,0.02184
2034.80347,0.02208
2032.87474,0.02229
2030.94602,0.02255
2029.01730,0.02290
2027.08857,0.02330
2025.15985,0.02368
2023.23112,0.02405
2021.30240,0.02444
2019.37368,0.02478
2017.44495,0.02501
2015.51623,0.02519
2013.58751,0.02543
2011.65878,0.02574
2009.73006,0.02604
2007.80134,0.02628
2005.87261,0.02649
2003.94389,0.02667
2002.01516,0.02678
2000.08644,0.02688
1998.15772,0.02702
1996.22899,0.02721
1994.30027,0.02740
1992.37155,0.02756
1990.44282,0.02766
1988.51410,0.02775
1986.58538,0.02778
1984.65665,0.02775
1982.72793,0.02774
1980.79920,0.02778
1978.87048,0.02782
1976.94176,0.02788
1975.01303,0.02792
1973.08431,0.02793
1971.15559,0.02796
1969.22686,0.02807
1967.29814,0.02818
1965.36941,0.02818
1963.44069,0.02808
1961.51197,0.02797
1959.58324,0.02787
1957.65452,0.02774
1955.72580,0.02765
1953.79707,0.02765
1951.86835,0.02768
1949.93963,0.02769
1948.01090,0.02770
1946.08218,0.02771
1944.15345,0.02771
1942.22473,0.02770
1940.29601,0.02768
1938.36728,0.02766
1936.43856,0.02767
1934.50984,0.02773
1932.58111,0.02785
1930.65239,0.02802
1928.72367,0.02818
1926.79494,0.02833
1924.86622,0.02855
1922.93749,0.02883
1921.00877,0.02911
1919.08005,0.02942
1917.15132,0.02978
1915.22260,0.03018
1913.29388,0.03060
1911.36515,0.03103
1909.43643,0.03148
1907.50770,0.03197
1905.57898,0.03252
1903.65026,0.03314
1901.72153,0.03374
1899.79281,0.03430
1897.86409,0.03487
1895.93536,0.03549
1894.00664,0.03609
1892.07792,0.03670
1890.14919,0.03734
1888.22047,0.03790
1886.29174,0.03829
1884.36302,0.03854
1882.43430,0.03873
1880.50557,0.03895
1878.57685,0.03924
1876.64813,0.03956
1874.71940,0.03983
1872.79068,0.04002
1870.86196,0.04011
1868.93323,0.04011
1867.00451,0.04000
1865.07578,0.03980
1863.14706,0.03950
1861.21834,0.03916
1859.28961,0.03881
1857.36089,0.03845
1855.43217,0.03810
1853.50344,0.03776
1851.57472,0.03740
1849.64599,0.03711
1847.71727,0.03690
1845.78855,0.03667
1843.85982,0.03633
1841.93110,0.03597
1840.00238,0.03571
1838.07365,0.03549
1836.14493,0.03526
1834.21621,0.03510
1832.28748,0.03512
1830.35876,0.03524
1828.43003,0.03528
1826.50131,0.03521
1824.57259,0.03507
1822.64386,0.03495
1820.71514,0.03493
1818.78642,0.03501
1816.85769,0.03516
1814.92897,0.03539
1813.00025,0.03566
1811.07152,0.03591
1809.14280,0.03614
1807.21407,0.03641
1805.28535,0.03679
1803.35663,0.03725
1801.42790,0.03771
1799.49918,0.03811
1797.57046,0.03852
1795.64173,0.03908
1793.71301,0.03977
1791.78428,0.04044
1789.85556,0.04102
1787.92684,0.04163
1785.99811,0.04237
1784.06939,0.04320
1782.14067,0.04402
1780.21194,0.04484
1778.28322,0.04566
1776.35450,0.04653
1774.42577,0.04749
1772.49705,0.04851
1770.56832,0.04944
1768.63960,0.05018
1766.71088,0.05085
1764.78215,0.05163
1762.85343,0.05260
1760.92471,0.05362
1758.99598,0.05457
1757.06726,0.05549
1755.13854,0.05644
1753.20981,0.05751
1751.28109,0.05882
1749.35236,0.06027
1747.42364,0.06162
1745.49492,0.06292
1743.56619,0.06435
1741.63747,0.06597
1739.70875,0.06766
1737.78002,0.06930
1735.85130,0.07106
1733.92257,0.07310
1731.99385,0.07502
1730.06513,0.07657
1728.13640,0.07805
1726.20768,0.07967
1724.27896,0.08142
1722.35023,0.08320
1720.42151,0.08495
1718.49279,0.08691
1716.56406,0.08908
1714.63534,0.09105
1712.70661,0.09282
1710.77789,0.09465
1708.84917,0.09667
1706.92044,0.09901
1704.99172,0.10156
1703.06300,0.10411
1701.13427,0.10702
1699.20555,0.11054
1697.27683,0.11415
1695.34810,0.11768
1693.41938,0.12092
1691.49065,0.12398
1689.56193,0.12721
1687.63321,0.13054
1685.70448,0.13427
1683.77576,0.13879
1681.84704,0.14280
1679.91831,0.14572
1677.98959,0.14841
1676.06087,0.15160
1674.13214,0.15510
1672.20342,0.15840
1670.27469,0.16171
1668.34597,0.16500
1666.41725,0.16767
1664.48852,0.17006
1662.55980,0.17270
1660.63108,0.17527
1658.70235,0.17731
1656.77363,0.17898
1654.84490,0.18083
1652.91618,0.18311
1650.98746,0.18490
1649.05873,0.18596
1647.13001,0.18693
1645.20129,0.18800
1643.27256,0.18890
1641.34384,0.18965
1639.41512,0.19025
1637.48639,0.19069
1635.55767,0.19097
1633.62894,0.19105
1631.70022,0.19092
1629.77150,0.19051
1627.84277,0.18978
1625.91405,0.18874
1623.98533,0.18733
1622.05660,0.18567
1620.12788,0.18398
1618.19916,0.18195
1616.27043,0.17930
1614.34171,0.17672
1612.41298,0.17457
1610.48426,0.17240
1608.55554,0.17000
1606.62681,0.16746
1604.69809,0.16487
1602.76937,0.16231
1600.84064,0.15994
1598.91192,0.15783
1596.98319,0.15583
1595.05447,0.15383
1593.12575,0.15187
1591.19702,0.15000
1589.26830,0.14820
1587.33958,0.14647
1585.41085,0.14481
1583.48213,0.14326
1581.55341,0.14197
1579.62468,0.14095
1577.69596,0.13988
1575.76723,0.13860
1573.83851,0.13760
1571.90979,0.13703
1569.98106,0.13648
1568.05234,0.13584
1566.12362,0.13533
1564.19489,0.13499
1562.26617,0.13473
1560.33745,0.13437
1558.40872,0.13376
1556.48000,0.13319
1554.55127,0.13288
1552.62255,0.13264
1550.69383,0.13227
1548.76510,0.13176
1546.83638,0.13127
1544.90766,0.13082
1542.97893,0.13024
1541.05021,0.12911
1539.12148,0.12745
1537.19276,0.12613
1535.26404,0.12512
1533.33531,0.12377
1531.40659,0.12226
1529.47787,0.12096
1527.54914,0.11964
1525.62042,0.11819
1523.69170,0.11669
1521.76297,0.11495
1519.83425,0.11308
1517.90552,0.11138
1515.97680,0.10971
1514.04808,0.10812
1512.11935,0.10678
1510.19063,0.10548
1508.26191,0.10357
1506.33318,0.10078
1504.40446,0.09839
1502.47574,0.09688
1500.54701,0.09551
1498.61829,0.09389
1496.68956,0.09222
1494.76084,0.09100
1492.83212,0.09040
1490.90339,0.09000
1488.97467,0.08940
1487.04595,0.08878
1485.11722,0.08854
1483.18850,0.08868
1481.25977,0.08899
1479.33105,0.08941
1477.40233,0.09009
1475.47360,0.09131
1473.54488,0.09339
1471.61616,0.09616
1469.68743,0.09870
1467.75871,0.10034
1465.82999,0.10122
1463.90126,0.10216
1461.97254,0.10372
1460.04381,0.10542
1458.11509,0.10670
1456.18637,0.10749
1454.25764,0.10813
1452.32892,0.10890
1450.40020,0.10975
1448.47147,0.11047
1446.54275,0.11088
1444.61403,0.11090
1442.68530,0.11060
1440.75658,0.11012
1438.82785,0.10966
1436.89913,0.10939
1434.97041,0.10950
1433.04168,0.10961
1431.11296,0.10907
1429.18424,0.10837
1427.25551,0.10887
1425.32679,0.11061
1423.39806,0.11243
1421.46934,0.11375
1419.54062,0.11501
1417.61189,0.11650
1415.68317,0.11801
1413.75445,0.11959
1411.82572,0.12140
1409.89700,0.12334
1407.96828,0.12513
1406.03955,0.12663
1404.11083,0.12781
1402.18210,0.12849
1400.25338,0.12852
1398.32466,0.12787
1396.39593,0.12666
1394.46721,0.12508
1392.53849,0.12360
1390.60976,0.12249
1388.68104,0.12163
1386.75232,0.12087
1384.82359,0.12024
1382.89487,0.11966
1380.96614,0.11899
1379.03742,0.11819
1377.10870,0.11730
1375.17997,0.11630
1373.25125,0.11526
1371.32253,0.11443
1369.39380,0.11378
1367.46508,0.11316
1365.53635,0.11255
1363.60763,0.11199
1361.67891,0.11146
1359.75018,0.11102
1357.82146,0.11067
1355.89274,0.11040
1353.96401,0.11021
1352.03529,0.11010
1350.10657,0.10999
1348.17784,0.10990
1346.24912,0.10987
1344.32039,0.10987
1342.39167,0.10993
1340.46295,0.11002
1338.53422,0.11005
1336.60550,0.10992
1334.67678,0.10973
1332.74805,0.10964
1330.81933,0.10965
1328.89061,0.10959
1326.96188,0.10928
1325.03316,0.10863
1323.10443,0.10751
1321.17571,0.10564
1319.24699,0.10262
1317.31826,0.09821
1315.38954,0.09241
1313.46082,0.08547
1311.53209,0.07797
1309.60337,0.07020
1307.67464,0.06078
1305.74592,0.04634
1303.81720,0.02583
1301.88847,0.00695
1299.95975,0.00000
1298.03103,0.00179
1296.10230,0.00338
1294.17358,0.00438
1292.24486,0.00977
1290.31613,0.02057
1288.38741,0.03484
1286.45868,0.05095
1284.52996,0.06749
1282.60124,0.08322
1280.67251,0.09749
1278.74379,0.11001
1276.81507,0.12072
1274.88634,0.12984
1272.95762,0.13792
1271.02890,0.14541
1269.10017,0.15262
1267.17145,0.15989
1265.24272,0.16754
1263.31400,0.17563
1261.38528,0.18427
1259.45655,0.19357
1257.52783,0.20344
1255.59911,0.21372
1253.67038,0.22430
1251.74166,0.23511
1249.81294,0.24597
1247.88421,0.25649
1245.95549,0.26628
1244.02676,0.27518
1242.09804,0.28315
1240.16932,0.29026
1238.24059,0.29652
1236.31187,0.30186
1234.38315,0.30642
1232.45442,0.31031
1230.52570,0.31347
1228.59697,0.31587
1226.66825,0.31769
1224.73953,0.31924
1222.81080,0.32062
1220.88208,0.32166
1218.95336,0.32207
1217.02463,0.32198
1215.09591,0.32189
1213.16719,0.32191
1211.23846,0.32167
1209.30974,0.32104
1207.38101,0.32004
1205.45229,0.31831
1203.52357,0.31506
1201.59484,0.30884
1199.66612,0.29766
1197.73740,0.28015
1195.80867,0.25718
1193.87995,0.23409
1191.95123,0.22047
1190.02250,0.22022
1188.09378,0.22427
1186.16505,0.22483
1184.23633,0.22696
1182.30761,0.23750
1180.37888,0.25425
1178.45016,0.27231
1176.52144,0.28964
1174.59271,0.30577
1172.66399,0.32052
1170.73526,0.33406
1168.80654,0.34659
1166.87782,0.35788
1164.94909,0.36748
1163.02037,0.37549
1161.09165,0.38221
1159.16292,0.38760
1157.23420,0.39166
1155.30548,0.39469
1153.37675,0.39730
1151.44803,0.40008
1149.51930,0.40276
1147.59058,0.40478
1145.66186,0.40640
1143.73313,0.40820
1141.80441,0.41007
1139.87569,0.41175
1137.94696,0.41344
1136.01824,0.41543
1134.08952,0.41766
1132.16079,0.41975
1130.23207,0.42170
1128.30334,0.42379
1126.37462,0.42583
1124.44590,0.42738
1122.51717,0.42821
1120.58845,0.42832
1118.65973,0.42777
1116.73100,0.42707
1114.80228,0.42792
1112.87355,0.43225
1110.94483,0.43946
1109.01611,0.44525
1107.08738,0.44663
1105.15866,0.44851
1103.22994,0.45640
1101.30121,0.46565
1099.37249,0.47109
1097.44377,0.47443
1095.51504,0.47809
1093.58632,0.48234
1091.65759,0.48662
1089.72887,0.49015
1087.80015,0.49238
1085.87142,0.49347
1083.94270,0.49369
1082.01398,0.49291
1080.08525,0.49158
1078.15653,0.48982
1076.22781,0.48695
1074.29908,0.48311
1072.37036,0.47922
1070.44163,0.47556
1068.51291,0.47178
1066.58419,0.46785
1064.65546,0.46380
1062.72674,0.45931
1060.79802,0.45398
1058.86929,0.44796
1056.94057,0.44170
1055.01184,0.43554
1053.08312,0.42966
1051.15440,0.42395
1049.22567,0.41804
1047.29695,0.41130
1045.36823,0.40380
1043.43950,0.39619
1041.51078,0.38863
1039.58206,0.38122
1037.65333,0.37405
1035.72461,0.36683
1033.79588,0.35937
1031.86716,0.35199
1029.93844,0.34516
1028.00971,0.33876
1026.08099,0.33233
1024.15227,0.32583
1022.22354,0.31966
1020.29482,0.31395
1018.36610,0.30853
1016.43737,0.30327
1014.50865,0.29841
1012.57992,0.29417
1010.65120,0.29018
1008.72248,0.28607
1006.79375,0.28190
1004.86503,0.27773
1002.93631,0.27358
1001.00758,0.26974
999.07886,0.26609
997.15013,0.26206
995.22141,0.25764
993.29269,0.25308
991.36396,0.24837
989.43524,0.24363
987.50652,0.23932
985.57779,0.23575
983.64907,0.23265
981.72035,0.22969
979.79162,0.22673
977.86290,0.22370
975.93417,0.22059
974.00545,0.21813
972.07673,0.21754
970.14800,0.21874
968.21928,0.22056
966.29056,0.22224
964.36183,0.22366
962.43311,0.22493
960.50439,0.22600
958.57566,0.22685
956.64694,0.22770
954.71821,0.22848
952.78949,0.22871
950.86077,0.22836
948.93204,0.22772
947.00332,0.22683
945.07460,0.22566
943.14587,0.22415
941.21715,0.22228
939.28842,0.22010
937.35970,0.21753
935.43098,0.21468
933.50225,0.21173
931.57353,0.20872
929.64481,0.20580
927.71608,0.20306
925.78736,0.20012
923.85864,0.19669
921.92991,0.19288
920.00119,0.18887
918.07246,0.18506
916.14374,0.18163
914.21502,0.17815
912.28629,0.17435
910.35757,0.17039
908.42885,0.16646
906.50012,0.16265
904.57140,0.15889
902.64268,0.15524
900.71395,0.15172
898.78523,0.14815
896.85650,0.14437
894.92778,0.14045
892.99906,0.13677
891.07033,0.13349
889.14161,0.13033
887.21289,0.12712
885.28416,0.12389
883.35544,0.12072
881.42671,0.11784
879.49799,0.11538
877.56927,0.11302
875.64054,0.11039
873.71182,0.10781
871.78310,0.10572
869.85437,0.10377
867.92565,0.10160
865.99693,0.09955
864.06820,0.09765
862.13948,0.09551
860.21075,0.09299
858.28203,0.09029
856.35331,0.08772
854.42458,0.08535
852.49586,0.08332
850.56714,0.08210
848.63841,0.08158
846.70969,0.08112
844.78097,0.08046
842.85224,0.08030
840.92352,0.08176
838.99479,0.08460
837.06607,0.08745
835.13735,0.08985
833.20862,0.09248
831.27990,0.09578
829.35118,0.09919
827.42245,0.10213
825.49373,0.10490
823.56501,0.10788
821.63628,0.11104
819.70756,0.11442
817.77883,0.11794
815.85011,0.12113
813.92139,0.12368
811.99266,0.12578
810.06394,0.12800
808.13522,0.13048
806.20649,0.13280
804.27777,0.13479
802.34904,0.13635
800.42032,0.13741
798.49160,0.13793
796.56287,0.13774
794.63415,0.13698
792.70543,0.13606
790.77670,0.13484
788.84798,0.13292
786.91926,0.13046
784.99053,0.12773
783.06181,0.12479
781.13308,0.12178
779.20436,0.11857
777.27564,0.11482
775.34691,0.11076
773.41819,0.10696
771.48947,0.10385
769.56074,0.10151
767.63202,0.09974
765.70330,0.09836
763.77457,0.09726
761.84585,0.09624
759.91712,0.09535
757.98840,0.09464
756.05968,0.09401
754.13095,0.09344
752.20223,0.09290
750.27351,0.09233
748.34478,0.09189
746.41606,0.09168
744.48733,0.09146
742.55861,0.09105
740.62989,0.09043
738.70116,0.08978
736.77244,0.08955
734.84372,0.08968
732.91499,0.08973
730.98627,0.08948
729.05755,0.08904
727.12882,0.08879
725.20010,0.08888
723.27137,0.08894
721.34265,0.08849
719.41393,0.08775
717.48520,0.08737
715.55648,0.08761
713.62776,0.08806
711.69903,0.08817
709.77031,0.08809
707.84159,0.08832
705.91286,0.08879
703.98414,0.08926
702.05541,0.08980
700.12669,0.09020
698.19797,0.09023
696.26924,0.09020
694.34052,0.09024
692.41180,0.08999
690.48307,0.08959
688.55435,0.08934
686.62562,0.08901
684.69690,0.08794
682.76818,0.08602
680.83945,0.08388
678.91073,0.08197
676.98201,0.08032
675.05328,0.07947
673.12456,0.07967
671.19584,0.07896
669.26711,0.07552
667.33839,0.07264
665.40966,0.07406
663.48094,0.07694
661.55222,0.07823
659.62349,0.07816
657.69477,0.07836
655.76605,0.08025
653.83732,0.08385
651.90860,0.08786
649.97988,0.09121
648.05115,0.09369
646.12243,0.09543
644.19370,0.09677
642.26498,0.09817
640.33626,0.09990
638.40753,0.10174
636.47881,0.10335
634.55009,0.10455
632.62136,0.10530
630.69264,0.10576
628.76391,0.10637
626.83519,0.10732
624.90647,0.10824
622.97774,0.10925
621.04902,0.11054
619.12030,0.11172
617.19157,0.11282
615.26285,0.11395
613.33413,0.11449
611.40540,0.11443
609.47668,0.11475
607.54795,0.11584
605.61923,0.11745
603.69051,0.11935
601.76178,0.12095
599.83306,0.12196
597.90434,0.12305
595.97561,0.12450
594.04689,0.12579
592.11817,0.12681
590.18944,0.12803
588.26072,0.12942
586.33199,0.13019
584.40327,0.13006
582.47455,0.12999
580.54582,0.13077
578.61710,0.13219
576.68838,0.13309
574.75965,0.13250
572.83093,0.13126
570.90220,0.13058
568.97348,0.12992
567.04476,0.12848
565.11603,0.12674
563.18731,0.12560
561.25859,0.12543
559.32986,0.12583
557.40114,0.12616
555.47242,0.12616
553.54369,0.12603
551.61497,0.12634
549.68624,0.12739
547.75752,0.12867
545.82880,0.12903
543.90007,0.12846
541.97135,0.12794
540.04263,0.12747
538.11390,0.12681
536.18518,0.12623
534.25646,0.12588
532.32773,0.12600
530.39901,0.12639
528.47028,0.12664
526.54156,0.12655
524.61284,0.12576
522.68411,0.12474
520.75539,0.12477
518.82667,0.12614
516.89794,0.12808
514.96922,0.13013
513.04049,0.13212
511.11177,0.13308
509.18305,0.13314
507.25432,0.13496
505.32560,0.13886
503.39688,0.14263
501.46815,0.14772
499.53943,0.15579
497.61071,0.16346
495.68198,0.16836
493.75326,0.17319
491.82453,0.18006
489.89581,0.18685
487.96709,0.19218
486.03836,0.19840
484.10964,0.20737
482.18092,0.21722
480.25219,0.22539
478.32347,0.23210
476.39475,0.23902
474.46602,0.24548
472.53730,0.24867
470.60857,0.24911
468.67985,0.25074
466.75113,0.25462
464.82240,0.25739
462.89368,0.25559
460.96496,0.24966
459.03623,0.24241
457.10751,0.23570
455.17878,0.22988
453.25006,0.22564
451.32134,0.22526
449.39261,0.22701
447.46389,0.22353
445.53517,0.21255
443.60644,0.20109
441.67772,0.19515
439.74900,0.19295
437.82027,0.18905
435.89155,0.18176
433.96282,0.17427
432.03410,0.16867
430.10538,0.16474
428.17665,0.16194
426.24793,0.15834
424.31921,0.15217
422.39048,0.14356
420.46176,0.13241
418.53304,0.12221
416.60431,0.12106
414.67559,0.12536
412.74686,0.12405
410.81814,0.11583
408.88942,0.10800
406.96069,0.10487
405.03197,0.10605
403.10325,0.10923
401.17452,0.10985
399.24580,0.10101
397.31708,0.08341
395.38835,0.07142
393.45963,0.07139
391.53090,0.07720
389.60218,0.08284
387.67346,0.08326
385.74473,0.07672
383.81601,0.06883
381.88729,0.06574
379.95856,0.06908
378.02984,0.07767
376.10111,0.08565
374.17239,0.07980
372.24367,0.05106
370.31494,0.01703
368.38622,0.00000
