3996.31543,0.00014
3994.38671,0.00013
3992.45799,0.00010
3990.52926,0.00011
3988.60054,0.00017
3986.67182,0.00024
3984.74309,0.00022
3982.81437,0.00012
3980.88564,0.00000
3978.95692,0.00000
3977.02820,0.00011
3975.09947,0.00019
3973.17075,0.00013
3971.24203,0.00003
3969.31330,0.00005
3967.38458,0.00020
3965.45586,0.00035
3963.52713,0.00040
3961.59841,0.00038
3959.66968,0.00038
3957.74096,0.00046
3955.81224,0.00060
3953.88351,0.00073
3951.95479,0.00077
3950.02607,0.00072
3948.09734,0.00068
3946.16862,0.00070
3944.23990,0.00069
3942.31117,0.00053
3940.38245,0.00034
3938.45372,0.00037
3936.52500,0.00058
3934.59628,0.00079
3932.66755,0.00084
3930.73883,0.00072
3928.81011,0.00057
3926.88138,0.00051
3924.95266,0.00051
3923.02393,0.00053
3921.09521,0.00061
3919.16649,0.00069
3917.23776,0.00069
3915.30904,0.00060
3913.38032,0.00047
3911.45159,0.00035
3909.52287,0.00038
3907.59415,0.00067
3905.66542,0.00095
3903.73670,0.00091
3901.80797,0.00066
3899.87925,0.00043
3897.95053,0.00028
3896.02180,0.00027
3894.09308,0.00039
3892.16436,0.00045
3890.23563,0.00044
3888.30691,0.00052
3886.37819,0.00061
3884.44946,0.00061
3882.52074,0.00061
3880.59201,0.00053
3878.66329,0.00046
3876.73457,0.00066
3874.80584,0.00102
3872.87712,0.00121
3870.94840,0.00111
3869.01967,0.00082
3867.09095,0.00064
3865.16222,0.00050
3863.23350,0.00024
3861.30478,0.00007
3859.37605,0.00027
3857.44733,0.00087
3855.51861,0.00149
3853.58988,0.00147
3851.66116,0.00075
3849.73244,0.00015
3847.80371,0.00000
3845.87499,0.00018
3843.94626,0.00062
3842.01754,0.00108
3840.08882,0.00126
3838.16009,0.00100
3836.23137,0.00060
3834.30265,0.00042
3832.37392,0.00037
3830.44520,0.00037
3828.51648,0.00045
3826.58775,0.00056
3824.65903,0.00077
3822.73030,0.00100
3820.80158,0.00099
3818.87286,0.00085
3816.94413,0.00082
3815.01541,0.00073
3813.08669,0.00071
3811.15796,0.00093
3809.22924,0.00127
3807.30052,0.00146
3805.37179,0.00153
3803.44307,0.00168
3801.51434,0.00181
3799.58562,0.00182
3797.65690,0.00168
3795.72817,0.00144
3793.79945,0.00139
3791.87073,0.00163
3789.94200,0.00191
3788.01328,0.00208
3786.08455,0.00219
3784.15583,0.00232
3782.22711,0.00255
3780.29838,0.00274
3778.36966,0.00276
3776.44094,0.00285
3774.51221,0.00323
3772.58349,0.00375
3770.65477,0.00408
3768.72604,0.00418
3766.79732,0.00434
3764.86859,0.00467
3762.93987,0.00513
3761.01115,0.00559
3759.08242,0.00596
3757.15370,0.00641
3755.22498,0.00716
3753.29625,0.00807
3751.36753,0.00881
3749.43881,0.00932
3747.51008,0.00987
3745.58136,0.01043
3743.65263,0.01077
3741.72391,0.01115
3739.79519,0.01194
3737.86646,0.01315
3735.93774,0.01449
3734.00902,0.01563
3732.08029,0.01658
3730.15157,0.01767
3728.22284,0.01907
3726.29412,0.02064
3724.36540,0.02220
3722.43667,0.02387
3720.50795,0.02572
3718.57923,0.02763
3716.65050,0.02961
3714.72178,0.03188
3712.79306,0.03459
3710.86433,0.03751
3708.93561,0.04029
3707.00688,0.04296
3705.07816,0.04578
3703.14944,0.04898
3701.22071,0.05245
3699.29199,0.05582
3697.36327,0.05895
3695.43454,0.06198
3693.50582,0.06506
3691.57710,0.06854
3689.64837,0.07263
3687.71965,0.07675
3685.79092,0.08033
3683.86220,0.08369
3681.93348,0.08734
3680.00475,0.09138
3678.07603,0.09586
3676.14731,0.10102
3674.21858,0.10611
3672.28986,0.11036
3670.36113,0.11459
3668.43241,0.11895
3666.50369,0.12264
3664.57496,0.12593
3662.64624,0.12934
3660.71752,0.13276
3658.78879,0.13615
3656.86007,0.13970
3654.93135,0.14312
3653.00262,0.14597
3651.07390,0.14883
3649.14517,0.15239
3647.21645,0.15606
3645.28773,0.15905
3643.35900,0.16159
3641.43028,0.16410
3639.50156,0.16662
3637.57283,0.16909
3635.64411,0.17157
3633.71539,0.17405
3631.78666,0.17651
3629.85794,0.17911
3627.92921,0.18178
3626.00049,0.18408
3624.07177,0.18603
3622.14304,0.18796
3620.21432,0.19001
3618.28560,0.19190
3616.35687,0.19334
3614.42815,0.19470
3612.49942,0.19647
3610.57070,0.19857
3608.64198,0.20065
3606.71325,0.20246
3604.78453,0.20402
3602.85581,0.20564
3600.92708,0.20751
3598.99836,0.20941
3597.06964,0.21107
3595.14091,0.21259
3593.21219,0.21408
3591.28346,0.21548
3589.35474,0.21691
3587.42602,0.21859
3585.49729,0.22032
3583.56857,0.22188
3581.63985,0.22340
3579.71112,0.22495
3577.78240,0.22650
3575.85368,0.22804
3573.92495,0.22959
3571.99623,0.23103
3570.06750,0.23231
3568.13878,0.23354
3566.21006,0.23488
3564.28133,0.23622
3562.35261,0.23750
3560.42389,0.23877
3558.49516,0.24010
3556.56644,0.24146
3554.63771,0.24273
3552.70899,0.24390
3550.78027,0.24492
3548.85154,0.24589
3546.92282,0.24707
3544.99410,0.24844
3543.06537,0.24971
3541.13665,0.25087
3539.20793,0.25212
3537.27920,0.25333
3535.35048,0.25435
3533.42175,0.25528
3531.49303,0.25632
3529.56431,0.25751
3527.63558,0.25879
3525.70686,0.25998
3523.77814,0.26098
3521.84941,0.26188
3519.92069,0.26279
3517.99197,0.26366
3516.06324,0.26447
3514.13452,0.26529
3512.20579,0.26620
3510.27707,0.26720
3508.34835,0.26818
3506.41962,0.26907
3504.49090,0.26994
3502.56218,0.27090
3500.63345,0.27188
3498.70473,0.27279
3496.77600,0.27360
3494.84728,0.27437
3492.91856,0.27519
3490.98983,0.27595
3489.06111,0.27652
3487.13239,0.27706
3485.20366,0.27785
3483.27494,0.27877
3481.34622,0.27952
3479.41749,0.28017
3477.48877,0.28091
3475.56004,0.28172
3473.63132,0.28248
3471.70260,0.28312
3469.77387,0.28363
3467.84515,0.28430
3465.91643,0.28511
3463.98770,0.28571
3462.05898,0.28608
3460.13026,0.28642
3458.20153,0.28680
3456.27281,0.28714
3454.34408,0.28753
3452.41536,0.28800
3450.48664,0.28854
3448.55791,0.28906
3446.62919,0.28952
3444.70047,0.28994
3442.77174,0.29039
3440.84302,0.29085
3438.91429,0.29129
3436.98557,0.29175
3435.05685,0.29225
3433.12812,0.29260
3431.19940,0.29272
3429.27068,0.29287
3427.34195,0.29331
3425.41323,0.29380
3423.48451,0.29396
3421.55578,0.29389
3419.62706,0.29397
3417.69833,0.29424
3415.76961,0.29449
3413.84089,0.29465
3411.91216,0.29480
3409.98344,0.29506
3408.05472,0.29535
3406.12599,0.29562
3404.19727,0.29580
3402.26855,0.29586
3400.33982,0.29589
3398.41110,0.29593
3396.48237,0.29604
3394.55365,0.29611
3392.62493,0.29600
3390.69620,0.29588
3388.76748,0.29592
3386.83876,0.29598
3384.91003,0.29598
3382.98131,0.29590
3381.05259,0.29563
3379.12386,0.29532
3377.19514,0.29527
3375.26641,0.29540
3373.33769,0.29539
3371.40897,0.29520
3369.48024,0.29501
3367.55152,0.29485
3365.62280,0.29464
3363.69407,0.29434
3361.76535,0.29401
3359.83662,0.29380
3357.90790,0.29376
3355.97918,0.29376
3354.05045,0.29368
3352.12173,0.29350
3350.19301,0.29325
3348.26428,0.29293
3346.33556,0.29255
3344.40684,0.29209
3342.47811,0.29162
3340.54939,0.29130
3338.62066,0.29109
3336.69194,0.29083
3334.76322,0.29058
3332.83449,0.29043
3330.90577,0.29029
3328.97705,0.29004
3327.04832,0.28971
3325.11960,0.28930
3323.19088,0.28887
3321.26215,0.28854
3319.33343,0.28829
3317.40470,0.28798
3315.47598,0.28761
3313.54726,0.28724
3311.61853,0.28689
3309.68981,0.28653
3307.76109,0.28616
3305.83236,0.28575
3303.90364,0.28536
3301.97491,0.28500
3300.04619,0.28465
3298.11747,0.28434
3296.18874,0.28406
3294.26002,0.28382
3292.33130,0.28365
3290.40257,0.28350
3288.47385,0.28324
3286.54513,0.28281
3284.61640,0.28230
3282.68768,0.28173
3280.75895,0.28107
3278.83023,0.28047
3276.90151,0.28012
3274.97278,0.27988
3273.04406,0.27958
3271.11534,0.27919
3269.18661,0.27876
3267.25789,0.27833
3265.32917,0.27783
3263.40044,0.27722
3261.47172,0.27657
3259.54299,0.27600
3257.61427,0.27559
3255.68555,0.27522
3253.75682,0.27471
3251.82810,0.27404
3249.89938,0.27345
3247.97065,0.27303
3246.04193,0.27259
3244.11320,0.27201
3242.18448,0.27139
3240.25576,0.27070
3238.32703,0.27002
3236.39831,0.26950
3234.46959,0.26909
3232.54086,0.26862
3230.61214,0.26805
3228.68342,0.26744
3226.75469,0.26680
3224.82597,0.26615
3222.89724,0.26549
3220.96852,0.26479
3219.03980,0.26400
3217.11107,0.26321
3215.18235,0.26250
3213.25363,0.26178
3211.32490,0.26107
3209.39618,0.26043
3207.46746,0.25981
3205.53873,0.25912
3203.61001,0.25835
3201.68128,0.25754
3199.75256,0.25672
3197.82384,0.25594
3195.89511,0.25522
3193.96639,0.25445
3192.03767,0.25358
3190.10894,0.25273
3188.18022,0.25192
3186.25149,0.25101
3184.32277,0.24998
3182.39405,0.24902
3180.46532,0.24820
3178.53660,0.24732
3176.60788,0.24633
3174.67915,0.24542
3172.75043,0.24459
3170.82171,0.24371
3168.89298,0.24281
3166.96426,0.24187
3165.03553,0.24081
3163.10681,0.23972
3161.17809,0.23875
3159.24936,0.23796
3157.32064,0.23723
3155.39192,0.23637
3153.46319,0.23541
3151.53447,0.23443
3149.60575,0.23342
3147.67702,0.23243
3145.74830,0.23152
3143.81957,0.23058
3141.89085,0.22963
3139.96213,0.22881
3138.03340,0.22802
3136.10468,0.22700
3134.17596,0.22590
3132.24723,0.22500
3130.31851,0.22424
3128.38978,0.22337
3126.46106,0.22236
3124.53234,0.22131
3122.60361,0.22028
3120.67489,0.21931
3118.74617,0.21839
3116.81744,0.21746
3114.88872,0.21653
3112.96000,0.21561
3111.03127,0.21465
3109.10255,0.21368
3107.17382,0.21279
3105.24510,0.21193
3103.31638,0.21097
3101.38765,0.20990
3099.45893,0.20884
3097.53021,0.20782
3095.60148,0.20679
3093.67276,0.20578
3091.74404,0.20477
3089.81531,0.20373
3087.88659,0.20275
3085.95786,0.20180
3084.02914,0.20077
3082.10042,0.19973
3080.17169,0.19875
3078.24297,0.19771
3076.31425,0.19659
3074.38552,0.19548
3072.45680,0.19441
3070.52807,0.19337
3068.59935,0.19232
3066.67063,0.19114
3064.74190,0.18991
3062.81318,0.18877
3060.88446,0.18775
3058.95573,0.18679
3057.02701,0.18586
3055.09829,0.18488
3053.16956,0.18384
3051.24084,0.18271
3049.31211,0.18151
3047.38339,0.18039
3045.45467,0.17938
3043.52594,0.17838
3041.59722,0.17734
3039.66850,0.17624
3037.73977,0.17517
3035.81105,0.17421
3033.88233,0.17328
3031.95360,0.17228
3030.02488,0.17124
3028.09615,0.17025
3026.16743,0.16935
3024.23871,0.16847
3022.30998,0.16757
3020.38126,0.16661
3018.45254,0.16562
3016.52381,0.16475
3014.59509,0.16400
3012.66636,0.16329
3010.73764,0.16255
3008.80892,0.16180
3006.88019,0.16105
3004.95147,0.16035
3003.02275,0.15968
3001.09402,0.15900
2999.16530,0.15835
2997.23658,0.15779
2995.30785,0.15723
2993.37913,0.15662
2991.45040,0.15604
2989.52168,0.15558
2987.59296,0.15526
2985.66423,0.15502
2983.73551,0.15479
2981.80679,0.15458
2979.87806,0.15442
2977.94934,0.15441
2976.02062,0.15458
2974.09189,0.15470
2972.16317,0.15472
2970.23444,0.15480
2968.30572,0.15496
2966.37700,0.15512
2964.44827,0.15528
2962.51955,0.15539
2960.59083,0.15539
2958.66210,0.15526
2956.73338,0.15500
2954.80466,0.15464
2952.87593,0.15425
2950.94721,0.15389
2949.01848,0.15366
2947.08976,0.15366
2945.16104,0.15389
2943.23231,0.15438
2941.30359,0.15511
2939.37487,0.15605
2937.44614,0.15707
2935.51742,0.15805
2933.58869,0.15894
2931.65997,0.15977
2929.73125,0.16039
2927.80252,0.16058
2925.87380,0.16026
2923.94508,0.15931
2922.01635,0.15753
2920.08763,0.15503
2918.15891,0.15219
2916.23018,0.14926
2914.30146,0.14648
2912.37273,0.14397
2910.44401,0.14170
2908.51529,0.13965
2906.58656,0.13781
2904.65784,0.13613
2902.72912,0.13454
2900.80039,0.13295
2898.87167,0.13135
2896.94295,0.12985
2895.01422,0.12846
2893.08550,0.12706
2891.15677,0.12570
2889.22805,0.12444
2887.29933,0.12328
2885.37060,0.12220
2883.44188,0.12119
2881.51316,0.12025
2879.58443,0.11944
2877.65571,0.11879
2875.72698,0.11828
2873.79826,0.11780
2871.86954,0.11713
2869.94081,0.11626
2868.01209,0.11548
2866.08337,0.11506
2864.15464,0.11499
2862.22592,0.11516
2860.29720,0.11554
2858.36847,0.11609
2856.43975,0.11659
2854.51102,0.11660
2852.58230,0.11561
2850.65358,0.11345
2848.72485,0.11044
2846.79613,0.10716
2844.86741,0.10405
2842.93868,0.10131
2841.00996,0.09893
2839.08124,0.09684
2837.15251,0.09502
2835.22379,0.09350
2833.29506,0.09219
2831.36634,0.09094
2829.43762,0.08970
2827.50889,0.08850
2825.58017,0.08739
2823.65145,0.08637
2821.72272,0.08539
2819.79400,0.08444
2817.86527,0.08350
2815.93655,0.08260
2814.00783,0.08184
2812.07910,0.08112
2810.15038,0.08029
2808.22166,0.07942
2806.29293,0.07863
2804.36421,0.07783
2802.43549,0.07700
2800.50676,0.07625
2798.57804,0.07555
2796.64931,0.07483
2794.72059,0.07412
2792.79187,0.07340
2790.86314,0.07268
2788.93442,0.07201
2787.00570,0.07135
2785.07697,0.07065
2783.14825,0.06993
2781.21953,0.06925
2779.29080,0.06862
2777.36208,0.06797
2775.43335,0.06735
2773.50463,0.06672
2771.57591,0.06599
2769.64718,0.06523
2767.71846,0.06457
2765.78974,0.06397
2763.86101,0.06333
2761.93229,0.06274
2760.00356,0.06226
2758.07484,0.06177
2756.14612,0.06119
2754.21739,0.06059
2752.28867,0.06005
2750.35995,0.05954
2748.43122,0.05895
2746.50250,0.05829
2744.57378,0.05765
2742.64505,0.05700
2740.71633,0.05638
2738.78760,0.05587
2736.85888,0.05538
2734.93016,0.05484
2733.00143,0.05431
2731.07271,0.05382
2729.14399,0.05333
2727.21526,0.05280
2725.28654,0.05223
2723.35782,0.05167
2721.42909,0.05116
2719.50037,0.05063
2717.57164,0.05000
2715.64292,0.04936
2713.71420,0.04882
2711.78547,0.04836
2709.85675,0.04791
2707.92803,0.04744
2705.99930,0.04695
2704.07058,0.04641
2702.14185,0.04587
2700.21313,0.04534
2698.28441,0.04482
2696.35568,0.04433
2694.42696,0.04392
2692.49824,0.04355
2690.56951,0.04315
2688.64079,0.04269
2686.71207,0.04224
2684.78334,0.04182
2682.85462,0.04140
2680.92589,0.04092
2678.99717,0.04033
2677.06845,0.03974
2675.13972,0.03927
2673.21100,0.03885
2671.28228,0.03845
2669.35355,0.03805
2667.42483,0.03765
2665.49611,0.03724
2663.56738,0.03679
2661.63866,0.03631
2659.70993,0.03586
2657.78121,0.03543
2655.85249,0.03495
2653.92376,0.03444
2651.99504,0.03395
2650.06632,0.03361
2648.13759,0.03332
2646.20887,0.03297
2644.28014,0.03261
2642.35142,0.03226
2640.42270,0.03185
2638.49397,0.03140
2636.56525,0.03096
2634.63653,0.03058
2632.70780,0.03029
2630.77908,0.03005
2628.85036,0.02969
2626.92163,0.02918
2624.99291,0.02869
2623.06418,0.02832
2621.13546,0.02805
2619.20674,0.02774
2617.27801,0.02734
2615.34929,0.02694
2613.42057,0.02661
2611.49184,0.02629
2609.56312,0.02599
2607.63440,0.02565
2605.70567,0.02524
2603.77695,0.02485
2601.84822,0.02457
2599.91950,0.02431
2597.99078,0.02400
2596.06205,0.02367
2594.13333,0.02338
2592.20461,0.02315
2590.27588,0.02294
2588.34716,0.02271
2586.41843,0.02242
2584.48971,0.02210
2582.56099,0.02174
2580.63226,0.02133
2578.70354,0.02095
2576.77482,0.02065
2574.84609,0.02039
2572.91737,0.02017
2570.98865,0.01998
2569.05992,0.01972
2567.13120,0.01937
2565.20247,0.01908
2563.27375,0.01893
2561.34503,0.01875
2559.41630,0.01850
2557.48758,0.01830
2555.55886,0.01816
2553.63013,0.01798
2551.70141,0.01774
2549.77269,0.01747
2547.84396,0.01719
2545.91524,0.01691
2543.98651,0.01670
2542.05779,0.01658
2540.12907,0.01644
2538.20034,0.01624
2536.27162,0.01602
2534.34290,0.01577
2532.41417,0.01548
2530.48545,0.01522
2528.55673,0.01506
2526.62800,0.01493
2524.69928,0.01474
2522.77055,0.01455
2520.84183,0.01434
2518.91311,0.01417
2516.98438,0.01409
2515.05566,0.01401
2513.12694,0.01382
2511.19821,0.01356
2509.26949,0.01334
2507.34076,0.01315
2505.41204,0.01297
2503.48332,0.01275
2501.55459,0.01249
2499.62587,0.01221
2497.69715,0.01197
2495.76842,0.01181
2493.83970,0.01169
2491.91098,0.01152
2489.98225,0.01133
2488.05353,0.01114
2486.12480,0.01091
2484.19608,0.01070
2482.26736,0.01058
2480.33863,0.01051
2478.40991,0.01038
2476.48119,0.01017
2474.55246,0.00996
2472.62374,0.00979
2470.69502,0.00970
2468.76629,0.00958
2466.83757,0.00935
2464.90884,0.00909
2462.98012,0.00892
2461.05140,0.00881
2459.12267,0.00867
2457.19395,0.00846
2455.26523,0.00820
2453.33650,0.00799
2451.40778,0.00784
2449.47905,0.00769
2447.55033,0.00752
2445.62161,0.00738
2443.69288,0.00730
2441.76416,0.00719
2439.83544,0.00703
2437.90671,0.00683
2435.97799,0.00663
2434.04927,0.00648
2432.12054,0.00633
2430.19182,0.00622
2428.26309,0.00616
2426.33437,0.00607
2424.40565,0.00591
2422.47692,0.00575
2420.54820,0.00560
2418.61948,0.00545
2416.69075,0.00526
2414.76203,0.00513
2412.83331,0.00503
2410.90458,0.00486
2408.97586,0.00465
2407.04713,0.00456
2405.11841,0.00453
2403.18969,0.00443
2401.26096,0.00425
2399.33224,0.00408
2397.40352,0.00397
2395.47479,0.00388
2393.54607,0.00377
2391.61734,0.00366
2389.68862,0.00356
2387.75990,0.00347
2385.83117,0.00341
2383.90245,0.00340
2381.97373,0.00341
2380.04500,0.00340
2378.11628,0.00341
2376.18756,0.00342
2374.25883,0.00338
2372.33011,0.00334
2370.40138,0.00339
2368.47266,0.00346
2366.54394,0.00347
2364.61521,0.00340
2362.68649,0.00332
2360.75777,0.00323
2358.82904,0.00312
2356.90032,0.00299
2354.97160,0.00281
2353.04287,0.00261
2351.11415,0.00248
2349.18542,0.00249
2347.25670,0.00254
2345.32798,0.00255
2343.39925,0.00254
2341.47053,0.00256
2339.54181,0.00251
2337.61308,0.00241
2335.68436,0.00233
2333.75563,0.00224
2331.82691,0.00212
2329.89819,0.00197
2327.96946,0.00182
2326.04074,0.00168
2324.11202,0.00153
2322.18329,0.00142
2320.25457,0.00144
2318.32585,0.00152
2316.39712,0.00151
2314.46840,0.00138
2312.53967,0.00124
2310.61095,0.00113
2308.68223,0.00102
2306.75350,0.00090
2304.82478,0.00081
2302.89606,0.00077
2300.96733,0.00076
2299.03861,0.00076
2297.10989,0.00074
2295.18116,0.00071
2293.25244,0.00070
2291.32371,0.00067
2289.39499,0.00060
2287.46627,0.00053
2285.53754,0.00048
2283.60882,0.00044
2281.68010,0.00043
2279.75137,0.00045
2277.82265,0.00049
2275.89392,0.00053
2273.96520,0.00054
2272.03648,0.00047
2270.10775,0.00039
2268.17903,0.00034
2266.25031,0.00029
2264.32158,0.00022
2262.39286,0.00017
2260.46414,0.00015
2258.53541,0.00014
2256.60669,0.00012
2254.67796,0.00006
2252.74924,0.00000
2250.82052,0.00001
2248.89179,0.00007
2246.96307,0.00010
2245.03435,0.00008
2243.10562,0.00010
2241.17690,0.00015
2239.24818,0.00016
2237.31945,0.00012
2235.39073,0.00003
2233.46200,-0.00005
2231.53328,-0.00008
2229.60456,-0.00009
2227.67583,-0.00009
2225.74711,-0.00005
2223.81839,0.00001
2221.88966,0.00002
2219.96094,-0.00004
2218.03221,-0.00010
2216.10349,-0.00011
2214.17477,-0.00010
2212.24604,-0.00005
2210.31732,0.00002
2208.38860,0.00006
2206.45987,0.00004
2204.53115,0.00000
2202.60243,-0.00006
2200.67370,-0.00008
2198.74498,-0.00008
2196.81625,-0.00011
2194.88753,-0.00014
2192.95881,-0.00013
2191.03008,-0.00008
2189.10136,-0.00006
2187.17264,-0.00014
2185.24391,-0.00016
2183.31519,-0.00011
2181.38647,-0.00010
2179.45774,-0.00015
2177.52902,-0.00018
2175.60029,-0.00015
2173.67157,-0.00010
2171.74285,-0.00009
2169.81412,-0.00010
2167.88540,-0.00008
2165.95668,-0.00005
2164.02795,0.00001
2162.09923,0.00005
2160.17050,0.00007
2158.24178,0.00013
2156.31306,0.00021
2154.38433,0.00017
2152.45561,0.00009
2150.52689,0.00008
2148.59816,0.00015
2146.66944,0.00018
2144.74072,0.00016
2142.81199,0.00017
2140.88327,0.00023
2138.95454,0.00025
2137.02582,0.00023
2135.09710,0.00020
2133.16837,0.00016
2131.23965,0.00009
2129.31093,0.00004
2127.38220,-0.00000
2125.45348,-0.00006
2123.52476,-0.00009
2121.59603,-0.00004
2119.66731,0.00002
2117.73858,0.00000
2115.80986,-0.00006
2113.88114,-0.00008
2111.95241,-0.00006
2110.02369,-0.00005
2108.09497,-0.00006
2106.16624,-0.00011
2104.23752,-0.00016
2102.30880,-0.00019
2100.38007,-0.00016
2098.45135,-0.00010
2096.52262,-0.00005
2094.59390,0.00000
2092.66518,-0.00003
2090.73645,-0.00011
2088.80773,-0.00022
2086.87901,-0.00031
2084.95028,-0.00039
2083.02156,-0.00046
2081.09283,-0.00053
2079.16411,-0.00056
2077.23539,-0.00058
2075.30666,-0.00059
2073.37794,-0.00058
2071.44922,-0.00054
2069.52049,-0.00047
2067.59177,-0.00044
2065.66305,-0.00040
2063.73432,-0.00036
2061.80560,-0.00031
2059.87687,-0.00027
2057.94815,-0.00023
2056.01943,-0.00017
2054.09070,-0.00006
2052.16198,0.00009
2050.23326,0.00024
2048.30453,0.00037
2046.37581,0.00052
2044.44709,0.00066
2042.51836,0.00077
2040.58964,0.00086
2038.66091,0.00097
2036.73219,0.00112
2034.80347,0.00128
2032.87474,0.00148
2030.94602,0.00172
2029.01730,0.00200
2027.08857,0.00225
2025.15985,0.00246
2023.23112,0.00266
2021.30240,0.00284
2019.37368,0.00297
2017.44495,0.00310
2015.51623,0.00323
2013.58751,0.00335
2011.65878,0.00349
2009.73006,0.00363
2007.80134,0.00369
2005.87261,0.00372
2003.94389,0.00380
2002.01516,0.00385
2000.08644,0.00381
1998.15772,0.00377
1996.22899,0.00379
1994.30027,0.00381
1992.37155,0.00377
1990.44282,0.00372
1988.51410,0.00367
1986.58538,0.00359
1984.65665,0.00354
1982.72793,0.00353
1980.79920,0.00347
1978.87048,0.00338
1976.94176,0.00327
1975.01303,0.00314
1973.08431,0.00300
1971.15559,0.00285
1969.22686,0.00268
1967.29814,0.00255
1965.36941,0.00244
1963.44069,0.00228
1961.51197,0.00209
1959.58324,0.00190
1957.65452,0.00168
1955.72580,0.00145
1953.79707,0.00129
1951.86835,0.00118
1949.93963,0.00104
1948.01090,0.00087
1946.08218,0.00072
1944.15345,0.00057
1942.22473,0.00040
1940.29601,0.00026
1938.36728,0.00016
1936.43856,0.00008
1934.50984,-0.00001
1932.58111,-0.00004
1930.65239,-0.00002
1928.72367,0.00004
1926.79494,0.00011
1924.86622,0.00018
1922.93749,0.00022
1921.00877,0.00027
1919.08005,0.00039
1917.15132,0.00057
1915.22260,0.00080
1913.29388,0.00111
1911.36515,0.00153
1909.43643,0.00201
1907.50770,0.00246
1905.57898,0.00290
1903.65026,0.00339
1901.72153,0.00386
1899.79281,0.00430
1897.86409,0.00478
1895.93536,0.00533
1894.00664,0.00587
1892.07792,0.00636
1890.14919,0.00679
1888.22047,0.00713
1886.29174,0.00741
1884.36302,0.00767
1882.43430,0.00791
1880.50557,0.00806
1878.57685,0.00817
1876.64813,0.00829
1874.71940,0.00838
1872.79068,0.00840
1870.86196,0.00834
1868.93323,0.00816
1867.00451,0.00782
1865.07578,0.00741
1863.14706,0.00703
1861.21834,0.00664
1859.28961,0.00619
1857.36089,0.00570
1855.43217,0.00521
1853.50344,0.00473
1851.57472,0.00428
1849.64599,0.00385
1847.71727,0.00343
1845.78855,0.00297
1843.85982,0.00243
1841.93110,0.00194
1840.00238,0.00162
1838.07365,0.00139
1836.14493,0.00116
1834.21621,0.00093
1832.28748,0.00075
1830.35876,0.00055
1828.43003,0.00031
1826.50131,0.00013
1824.57259,0.00003
1822.64386,-0.00005
1820.71514,-0.00011
1818.78642,-0.00014
1816.85769,-0.00010
1814.92897,0.00000
1813.00025,-0.00004
1811.07152,-0.00007
1809.14280,-0.00009
1807.21407,-0.00007
1805.28535,0.00004
1803.35663,0.00019
1801.42790,0.00033
1799.49918,0.00045
1797.57046,0.00063
1795.64173,0.00091
1793.71301,0.00134
1791.78428,0.00188
1789.85556,0.00240
1787.92684,0.00286
1785.99811,0.00335
1784.06939,0.00391
1782.14067,0.00458
1780.21194,0.00533
1778.28322,0.00605
1776.35450,0.00669
1774.42577,0.00736
1772.49705,0.00816
1770.56832,0.00901
1768.63960,0.00977
1766.71088,0.01041
1764.78215,0.01103
1762.85343,0.01174
1760.92471,0.01254
1758.99598,0.01332
1757.06726,0.01415
1755.13854,0.01509
1753.20981,0.01612
1751.28109,0.01734
1749.35236,0.01869
1747.42364,0.02001
1745.49492,0.02129
1743.56619,0.02269
1741.63747,0.02428
1739.70875,0.02598
1737.78002,0.02758
1735.85130,0.02922
1733.92257,0.03127
1731.99385,0.03336
1730.06513,0.03508
1728.13640,0.03660
1726.20768,0.03810
1724.27896,0.03967
1722.35023,0.04126
1720.42151,0.04284
1718.49279,0.04466
1716.56406,0.04676
1714.63534,0.04867
1712.70661,0.05029
1710.77789,0.05192
1708.84917,0.05379
1706.92044,0.05603
1704.99172,0.05850
1703.06300,0.06092
1701.13427,0.06377
1699.20555,0.06731
1697.27683,0.07092
1695.34810,0.07444
1693.41938,0.07760
1691.49065,0.08047
1689.56193,0.08353
1687.63321,0.08675
1685.70448,0.09055
1683.77576,0.09530
1681.84704,0.09945
1679.91831,0.10239
1677.98959,0.10510
1676.06087,0.10833
1674.13214,0.11186
1672.20342,0.11515
1670.27469,0.11852
1668.34597,0.12193
1666.41725,0.12461
1664.48852,0.12694
1662.55980,0.12958
1660.63108,0.13210
1658.70235,0.13394
1656.77363,0.13539
1654.84490,0.13712
1652.91618,0.13922
1650.98746,0.14060
1649.05873,0.14121
1647.13001,0.14198
1645.20129,0.14296
1643.27256,0.14365
1641.34384,0.14401
1639.41512,0.14422
1637.48639,0.14437
1635.55767,0.14445
1633.62894,0.14430
1631.70022,0.14385
1629.77150,0.14305
1627.84277,0.14189
1625.91405,0.14047
1623.98533,0.13871
1622.05660,0.13662
1620.12788,0.13444
1618.19916,0.13195
1616.27043,0.12883
1614.34171,0.12575
1612.41298,0.12312
1610.48426,0.12056
1608.55554,0.11779
1606.62681,0.11488
1604.69809,0.11196
1602.76937,0.10912
1600.84064,0.10644
1598.91192,0.10398
1596.98319,0.10164
1595.05447,0.09927
1593.12575,0.09688
1591.19702,0.09453
1589.26830,0.09221
1587.33958,0.08991
1585.41085,0.08766
1583.48213,0.08548
1581.55341,0.08349
1579.62468,0.08172
1577.69596,0.07996
1575.76723,0.07809
1573.83851,0.07654
1571.90979,0.07548
1569.98106,0.07453
1568.05234,0.07349
1566.12362,0.07255
1564.19489,0.07186
1562.26617,0.07135
1560.33745,0.07070
1558.40872,0.06963
1556.48000,0.06856
1554.55127,0.06772
1552.62255,0.06688
1550.69383,0.06591
1548.76510,0.06481
1546.83638,0.06367
1544.90766,0.06248
1542.97893,0.06112
1541.05021,0.05938
1539.12148,0.05739
1537.19276,0.05582
1535.26404,0.05456
1533.33531,0.05309
1531.40659,0.05140
1529.47787,0.04973
1527.54914,0.04794
1525.62042,0.04604
1523.69170,0.04421
1521.76297,0.04230
1519.83425,0.04027
1517.90552,0.03822
1515.97680,0.03607
1514.04808,0.03398
1512.11935,0.03210
1510.19063,0.03022
1508.26191,0.02765
1506.33318,0.02426
1504.40446,0.02153
1502.47574,0.01974
1500.54701,0.01797
1498.61829,0.01583
1496.68956,0.01363
1494.76084,0.01191
1492.83212,0.01079
1490.90339,0.00996
1488.97467,0.00916
1487.04595,0.00845
1485.11722,0.00804
1483.18850,0.00806
1481.25977,0.00854
1479.33105,0.00937
1477.40233,0.01051
1475.47360,0.01214
1473.54488,0.01460
1471.61616,0.01761
1469.68743,0.02014
1467.75871,0.02196
1465.82999,0.02350
1463.90126,0.02483
1461.97254,0.02581
1460.04381,0.02659
1458.11509,0.02738
1456.18637,0.02801
1454.25764,0.02824
1452.32892,0.02829
1450.40020,0.02843
1448.47147,0.02867
1446.54275,0.02890
1444.61403,0.02904
1442.68530,0.02917
1440.75658,0.02936
1438.82785,0.02967
1436.89913,0.03013
1434.97041,0.03063
1433.04168,0.03104
1431.11296,0.03141
1429.18424,0.03184
1427.25551,0.03233
1425.32679,0.03286
1423.39806,0.03346
1421.46934,0.03411
1419.54062,0.03486
1417.61189,0.03563
1415.68317,0.03619
1413.75445,0.03664
1411.82572,0.03715
1409.89700,0.03773
1407.96828,0.03833
1406.03955,0.03889
1404.11083,0.03928
1402.18210,0.03930
1400.25338,0.03882
1398.32466,0.03782
1396.39593,0.03638
1394.46721,0.03471
1392.53849,0.03316
1390.60976,0.03183
1388.68104,0.03050
1386.75232,0.02913
1384.82359,0.02802
1382.89487,0.02725
1380.96614,0.02662
1379.03742,0.02593
1377.10870,0.02503
1375.17997,0.02392
1373.25125,0.02267
1371.32253,0.02146
1369.39380,0.02032
1367.46508,0.01920
1365.53635,0.01811
1363.60763,0.01697
1361.67891,0.01580
1359.75018,0.01482
1357.82146,0.01407
1355.89274,0.01343
1353.96401,0.01284
1352.03529,0.01227
1350.10657,0.01176
1348.17784,0.01134
1346.24912,0.01098
1344.32039,0.01059
1342.39167,0.01024
1340.46295,0.00994
1338.53422,0.00963
1336.60550,0.00931
1334.67678,0.00908
1332.74805,0.00897
1330.81933,0.00894
1328.89061,0.00892
1326.96188,0.00892
1325.03316,0.00899
1323.10443,0.00914
1321.17571,0.00935
1319.24699,0.00960
1317.31826,0.00983
1315.38954,0.01004
1313.46082,0.01027
1311.53209,0.01060
1309.60337,0.01099
1307.67464,0.01141
1305.74592,0.01192
1303.81720,0.01258
1301.88847,0.01340
1299.95975,0.01436
1298.03103,0.01550
1296.10230,0.01686
1294.17358,0.01840
1292.24486,0.02013
1290.31613,0.02208
1288.38741,0.02426
1286.45868,0.02655
1284.52996,0.02897
1282.60124,0.03168
1280.67251,0.03474
1278.74379,0.03809
1276.81507,0.04172
1274.88634,0.04566
1272.95762,0.05007
1271.02890,0.05509
1269.10017,0.06068
1267.17145,0.06681
1265.24272,0.07359
1263.31400,0.08119
1261.38528,0.08979
1259.45655,0.09945
1257.52783,0.10991
1255.59911,0.12101
1253.67038,0.13271
1251.74166,0.14465
1249.81294,0.15642
1247.88421,0.16783
1245.95549,0.17875
1244.02676,0.18908
1242.09804,0.19852
1240.16932,0.20684
1238.24059,0.21417
1236.31187,0.22088
1234.38315,0.22716
1232.45442,0.23289
1230.52570,0.23801
1228.59697,0.24274
1226.66825,0.24714
1224.73953,0.25104
1222.81080,0.25452
1220.88208,0.25788
1218.95336,0.26118
1217.02463,0.26428
1215.09591,0.26717
1213.16719,0.26980
1211.23846,0.27230
1209.30974,0.27502
1207.38101,0.27786
1205.45229,0.28041
1203.52357,0.28286
1201.59484,0.28553
1199.66612,0.28820
1197.73740,0.29062
1195.80867,0.29291
1193.87995,0.29522
1191.95123,0.29748
1190.02250,0.29962
1188.09378,0.30179
1186.16505,0.30416
1184.23633,0.30661
1182.30761,0.30894
1180.37888,0.31115
1178.45016,0.31329
1176.52144,0.31552
1174.59271,0.31803
1172.66399,0.32047
1170.73526,0.32269
1168.80654,0.32508
1166.87782,0.32755
1164.94909,0.32969
1163.02037,0.33165
1161.09165,0.33373
1159.16292,0.33587
1157.23420,0.33777
1155.30548,0.33932
1153.37675,0.34109
1151.44803,0.34333
1149.51930,0.34557
1147.59058,0.34778
1145.66186,0.34991
1143.73313,0.35178
1141.80441,0.35369
1139.87569,0.35606
1137.94696,0.35884
1136.01824,0.36189
1134.08952,0.36508
1132.16079,0.36811
1130.23207,0.37111
1128.30334,0.37449
1126.37462,0.37835
1124.44590,0.38255
1122.51717,0.38706
1120.58845,0.39213
1118.65973,0.39797
1116.73100,0.40445
1114.80228,0.41136
1112.87355,0.41859
1110.94483,0.42584
1109.01611,0.43322
1107.08738,0.44102
1105.15866,0.44865
1103.22994,0.45558
1101.30121,0.46161
1099.37249,0.46640
1097.44377,0.46966
1095.51504,0.47147
1093.58632,0.47223
1091.65759,0.47221
1089.72887,0.47159
1087.80015,0.47019
1085.87142,0.46797
1083.94270,0.46543
1082.01398,0.46249
1080.08525,0.45893
1078.15653,0.45495
1076.22781,0.45068
1074.29908,0.44613
1072.37036,0.44142
1070.44163,0.43674
1068.51291,0.43175
1066.58419,0.42589
1064.65546,0.41948
1062.72674,0.41322
1060.79802,0.40690
1058.86929,0.40004
1056.94057,0.39278
1055.01184,0.38536
1053.08312,0.37795
1051.15440,0.37066
1049.22567,0.36313
1047.29695,0.35489
1045.36823,0.34646
1043.43950,0.33844
1041.51078,0.33064
1039.58206,0.32281
1037.65333,0.31484
1035.72461,0.30691
1033.79588,0.29910
1031.86716,0.29140
1029.93844,0.28414
1028.00971,0.27745
1026.08099,0.27109
1024.15227,0.26488
1022.22354,0.25885
1020.29482,0.25299
1018.36610,0.24728
1016.43737,0.24177
1014.50865,0.23674
1012.57992,0.23210
1010.65120,0.22754
1008.72248,0.22334
1006.79375,0.21968
1004.86503,0.21614
1002.93631,0.21246
1001.00758,0.20885
999.07886,0.20536
997.15013,0.20191
995.22141,0.19884
993.29269,0.19621
991.36396,0.19360
989.43524,0.19089
987.50652,0.18835
985.57779,0.18615
983.64907,0.18432
981.72035,0.18287
979.79162,0.18177
977.86290,0.18081
975.93417,0.17989
974.00545,0.17912
972.07673,0.17861
970.14800,0.17822
968.21928,0.17762
966.29056,0.17689
964.36183,0.17646
962.43311,0.17617
960.50439,0.17563
958.57566,0.17491
956.64694,0.17425
954.71821,0.17353
952.78949,0.17248
950.86077,0.17114
948.93204,0.16960
947.00332,0.16791
945.07460,0.16608
943.14587,0.16403
941.21715,0.16185
939.28842,0.15945
937.35970,0.15663
935.43098,0.15359
933.50225,0.15059
931.57353,0.14751
929.64481,0.14430
927.71608,0.14109
925.78736,0.13774
923.85864,0.13419
921.92991,0.13072
920.00119,0.12739
918.07246,0.12396
916.14374,0.12029
914.21502,0.11638
912.28629,0.11223
910.35757,0.10803
908.42885,0.10406
906.50012,0.10023
904.57140,0.09625
902.64268,0.09233
900.71395,0.08879
898.78523,0.08531
896.85650,0.08178
894.92778,0.07856
892.99906,0.07542
891.07033,0.07198
889.14161,0.06853
887.21289,0.06523
885.28416,0.06197
883.35544,0.05878
881.42671,0.05573
879.49799,0.05301
877.56927,0.05074
875.64054,0.04876
873.71182,0.04696
871.78310,0.04504
869.85437,0.04291
867.92565,0.04087
865.99693,0.03889
864.06820,0.03693
862.13948,0.03534
860.21075,0.03411
858.28203,0.03285
856.35331,0.03153
854.42458,0.03039
852.49586,0.02960
850.56714,0.02904
848.63841,0.02868
846.70969,0.02875
844.78097,0.02937
842.85224,0.03050
840.92352,0.03241
838.99479,0.03515
837.06607,0.03827
835.13735,0.04139
833.20862,0.04456
831.27990,0.04759
829.35118,0.05027
827.42245,0.05298
825.49373,0.05631
823.56501,0.06008
821.63628,0.06351
819.70756,0.06650
817.77883,0.06961
815.85011,0.07290
813.92139,0.07614
811.99266,0.07928
810.06394,0.08210
808.13522,0.08454
806.20649,0.08699
804.27777,0.08952
802.34904,0.09175
800.42032,0.09334
798.49160,0.09402
796.56287,0.09362
794.63415,0.09244
792.70543,0.09099
790.77670,0.08939
788.84798,0.08743
786.91926,0.08507
784.99053,0.08253
783.06181,0.07992
781.13308,0.07713
779.20436,0.07404
777.27564,0.07033
775.34691,0.06603
773.41819,0.06194
771.48947,0.05868
769.56074,0.05608
767.63202,0.05405
765.70330,0.05284
763.77457,0.05225
761.84585,0.05178
759.91712,0.05126
757.98840,0.05075
756.05968,0.05016
754.13095,0.04967
752.20223,0.04959
750.27351,0.04963
748.34478,0.04943
746.41606,0.04932
744.48733,0.04964
742.55861,0.05002
740.62989,0.04973
738.70116,0.04901
736.77244,0.04860
734.84372,0.04843
732.91499,0.04851
730.98627,0.04904
729.05755,0.04956
727.12882,0.04978
725.20010,0.05009
723.27137,0.05048
721.34265,0.05061
719.41393,0.05058
717.48520,0.05090
715.55648,0.05158
713.62776,0.05220
711.69903,0.05264
709.77031,0.05326
707.84159,0.05434
705.91286,0.05549
703.98414,0.05621
702.05541,0.05673
700.12669,0.05751
698.19797,0.05833
696.26924,0.05867
694.34052,0.05862
692.41180,0.05882
690.48307,0.05937
688.55435,0.05971
686.62562,0.05979
684.69690,0.06012
682.76818,0.06068
680.83945,0.06106
678.91073,0.06122
676.98201,0.06126
675.05328,0.06131
673.12456,0.06158
671.19584,0.06214
669.26711,0.06293
667.33839,0.06386
665.40966,0.06476
663.48094,0.06556
661.55222,0.06634
659.62349,0.06712
657.69477,0.06794
655.76605,0.06886
653.83732,0.06999
651.90860,0.07140
649.97988,0.07305
648.05115,0.07484
646.12243,0.07656
644.19370,0.07802
642.26498,0.07919
640.33626,0.08030
638.40753,0.08165
636.47881,0.08318
634.55009,0.08468
632.62136,0.08608
630.69264,0.08751
628.76391,0.08901
626.83519,0.09015
624.90647,0.09058
622.97774,0.09087
621.04902,0.09155
619.12030,0.09263
617.19157,0.09379
615.26285,0.09499
613.33413,0.09676
611.40540,0.09899
609.47668,0.10078
607.54795,0.10208
605.61923,0.10380
603.69051,0.10612
601.76178,0.10848
599.83306,0.11057
597.90434,0.11223
595.97561,0.11313
594.04689,0.11340
592.11817,0.11385
590.18944,0.11469
588.26072,0.11555
586.33199,0.11673
584.40327,0.11822
582.47455,0.11956
580.54582,0.12090
578.61710,0.12206
576.68838,0.12229
574.75965,0.12180
572.83093,0.12137
570.90220,0.12132
568.97348,0.12162
567.04476,0.12214
565.11603,0.12242
563.18731,0.12241
561.25859,0.12283
559.32986,0.12353
557.40114,0.12379
555.47242,0.12366
553.54369,0.12381
551.61497,0.12462
549.68624,0.12519
547.75752,0.12531
545.82880,0.12650
543.90007,0.12854
541.97135,0.12933
540.04263,0.12840
538.11390,0.12674
536.18518,0.12505
534.25646,0.12396
532.32773,0.12402
530.39901,0.12481
528.47028,0.12576
526.54156,0.12733
524.61284,0.12905
522.68411,0.12891
520.75539,0.12718
518.82667,0.12666
516.89794,0.12882
514.96922,0.13202
513.04049,0.13407
511.11177,0.13505
509.18305,0.13699
507.25432,0.14080
505.32560,0.14553
503.39688,0.15096
501.46815,0.15730
499.53943,0.16407
497.61071,0.17173
495.68198,0.18082
493.75326,0.19039
491.82453,0.19931
489.89581,0.20725
487.96709,0.21355
486.03836,0.21840
484.10964,0.22500
482.18092,0.23543
480.25219,0.24668
478.32347,0.25494
476.39475,0.26019
474.46602,0.26477
472.53730,0.26961
470.60857,0.27385
468.67985,0.27641
466.75113,0.27699
464.82240,0.27738
462.89368,0.28037
460.96496,0.28457
459.03623,0.28362
457.10751,0.27570
455.17878,0.26616
453.25006,0.25632
451.32134,0.24542
449.39261,0.23707
447.46389,0.23257
445.53517,0.22818
443.60644,0.22043
441.67772,0.21004
439.74900,0.20087
437.82027,0.19361
435.89155,0.18638
433.96282,0.18105
432.03410,0.17965
430.10538,0.17868
428.17665,0.17349
426.24793,0.16426
424.31921,0.15461
422.39048,0.14541
420.46176,0.13383
418.53304,0.12404
416.60431,0.12431
414.67559,0.12760
412.74686,0.12452
410.81814,0.11681
408.88942,0.10951
406.96069,0.10332
405.03197,0.09733
403.10325,0.09248
401.17452,0.08917
399.24580,0.08328
397.31708,0.07437
395.38835,0.07154
393.45963,0.07269
391.53090,0.06767
389.60218,0.06064
387.67346,0.05634
385.74473,0.04657
383.81601,0.02991
381.88729,0.02227
379.95856,0.03112
378.02984,0.03946
376.10111,0.02472
374.17239,0.00000
372.24367,-0.01294
370.31494,-0.00136
368.38622,0.00000
