3996.31543,0.00000
3994.38671,0.00014
3992.45799,0.00032
3990.52926,0.00048
3988.60054,0.00047
3986.67182,0.00027
3984.74309,0.00009
3982.81437,0.00004
3980.88564,0.00005
3978.95692,0.00003
3977.02820,-0.00000
3975.09947,0.00001
3973.17075,0.00008
3971.24203,0.00009
3969.31330,-0.00000
3967.38458,-0.00007
3965.45586,-0.00003
3963.52713,0.00008
3961.59841,0.00022
3959.66968,0.00035
3957.74096,0.00049
3955.81224,0.00056
3953.88351,0.00055
3951.95479,0.00050
3950.02607,0.00046
3948.09734,0.00043
3946.16862,0.00035
3944.23990,0.00024
3942.31117,0.00018
3940.38245,0.00018
3938.45372,0.00019
3936.52500,0.00027
3934.59628,0.00040
3932.66755,0.00052
3930.73883,0.00059
3928.81011,0.00059
3926.88138,0.00055
3924.95266,0.00050
3923.02393,0.00052
3921.09521,0.00061
3919.16649,0.00063
3917.23776,0.00049
3915.30904,0.00029
3913.38032,0.00017
3911.45159,0.00008
3909.52287,0.00000
3907.59415,0.00002
3905.66542,0.00020
3903.73670,0.00039
3901.80797,0.00051
3899.87925,0.00051
3897.95053,0.00040
3896.02180,0.00028
3894.09308,0.00022
3892.16436,0.00017
3890.23563,0.00012
3888.30691,0.00014
3886.37819,0.00024
3884.44946,0.00034
3882.52074,0.00040
3880.59201,0.00036
3878.66329,0.00027
3876.73457,0.00025
3874.80584,0.00037
3872.87712,0.00065
3870.94840,0.00086
3869.01967,0.00083
3867.09095,0.00078
3865.16222,0.00087
3863.23350,0.00082
3861.30478,0.00047
3859.37605,0.00008
3857.44733,0.00000
3855.51861,0.00033
3853.58988,0.00069
3851.66116,0.00056
3849.73244,0.00021
3847.80371,-0.00000
3845.87499,-0.00000
3843.94626,0.00020
3842.01754,0.00050
3840.08882,0.00069
3838.16009,0.00056
3836.23137,0.00025
3834.30265,0.00001
3832.37392,-0.00012
3830.44520,-0.00014
3828.51648,0.00000
3826.58775,0.00033
3824.65903,0.00075
3822.73030,0.00112
3820.80158,0.00124
3818.87286,0.00108
3816.94413,0.00080
3815.01541,0.00055
3813.08669,0.00044
3811.15796,0.00047
3809.22924,0.00054
3807.30052,0.00062
3805.37179,0.00067
3803.44307,0.00088
3801.51434,0.00129
3799.58562,0.00158
3797.65690,0.00149
3795.72817,0.00124
3793.79945,0.00107
3791.87073,0.00103
3789.94200,0.00116
3788.01328,0.00144
3786.08455,0.00173
3784.15583,0.00190
3782.22711,0.00195
3780.29838,0.00196
3778.36966,0.00202
3776.44094,0.00220
3774.51221,0.00251
3772.58349,0.00284
3770.65477,0.00305
3768.72604,0.00321
3766.79732,0.00344
3764.86859,0.00374
3762.93987,0.00408
3761.01115,0.00444
3759.08242,0.00478
3757.15370,0.00514
3755.22498,0.00565
3753.29625,0.00646
3751.36753,0.00741
3749.43881,0.00807
3747.51008,0.00827
3745.58136,0.00840
3743.65263,0.00876
3741.72391,0.00935
3739.79519,0.01022
3737.86646,0.01135
3735.93774,0.01246
3734.00902,0.01332
3732.08029,0.01410
3730.15157,0.01497
3728.22284,0.01592
3726.29412,0.01707
3724.36540,0.01857
3722.43667,0.02033
3720.50795,0.02207
3718.57923,0.02372
3716.65050,0.02532
3714.72178,0.02708
3712.79306,0.02926
3710.86433,0.03184
3708.93561,0.03431
3707.00688,0.03653
3705.07816,0.03881
3703.14944,0.04145
3701.22071,0.04441
3699.29199,0.04735
3697.36327,0.05012
3695.43454,0.05282
3693.50582,0.05553
3691.57710,0.05858
3689.64837,0.06227
3687.71965,0.06619
3685.79092,0.06970
3683.86220,0.07299
3681.93348,0.07653
3680.00475,0.08033
3678.07603,0.08435
3676.14731,0.08886
3674.21858,0.09330
3672.28986,0.09696
3670.36113,0.10086
3668.43241,0.10523
3666.50369,0.10889
3664.57496,0.11192
3662.64624,0.11496
3660.71752,0.11806
3658.78879,0.12111
3656.86007,0.12425
3654.93135,0.12730
3653.00262,0.13005
3651.07390,0.13294
3649.14517,0.13624
3647.21645,0.13926
3645.28773,0.14158
3643.35900,0.14355
3641.43028,0.14547
3639.50156,0.14742
3637.57283,0.14941
3635.64411,0.15143
3633.71539,0.15339
3631.78666,0.15540
3629.85794,0.15771
3627.92921,0.16011
3626.00049,0.16198
3624.07177,0.16346
3622.14304,0.16495
3620.21432,0.16656
3618.28560,0.16820
3616.35687,0.16954
3614.42815,0.17061
3612.49942,0.17182
3610.57070,0.17327
3608.64198,0.17483
3606.71325,0.17626
3604.78453,0.17747
3602.85581,0.17863
3600.92708,0.17998
3598.99836,0.18145
3597.06964,0.18291
3595.14091,0.18441
3593.21219,0.18586
3591.28346,0.18710
3589.35474,0.18830
3587.42602,0.18961
3585.49729,0.19088
3583.56857,0.19212
3581.63985,0.19338
3579.71112,0.19452
3577.78240,0.19553
3575.85368,0.19664
3573.92495,0.19776
3571.99623,0.19864
3570.06750,0.19942
3568.13878,0.20057
3566.21006,0.20211
3564.28133,0.20356
3562.35261,0.20468
3560.42389,0.20555
3558.49516,0.20624
3556.56644,0.20693
3554.63771,0.20785
3552.70899,0.20901
3550.78027,0.21014
3548.85154,0.21116
3546.92282,0.21220
3544.99410,0.21314
3543.06537,0.21382
3541.13665,0.21450
3539.20793,0.21537
3537.27920,0.21627
3535.35048,0.21705
3533.42175,0.21774
3531.49303,0.21846
3529.56431,0.21920
3527.63558,0.21989
3525.70686,0.22061
3523.77814,0.22147
3521.84941,0.22245
3519.92069,0.22344
3517.99197,0.22440
3516.06324,0.22540
3514.13452,0.22640
3512.20579,0.22720
3510.27707,0.22762
3508.34835,0.22783
3506.41962,0.22809
3504.49090,0.22857
3502.56218,0.22936
3500.63345,0.23035
3498.70473,0.23126
3496.77600,0.23201
3494.84728,0.23266
3492.91856,0.23328
3490.98983,0.23383
3489.06111,0.23432
3487.13239,0.23483
3485.20366,0.23540
3483.27494,0.23605
3481.34622,0.23673
3479.41749,0.23725
3477.48877,0.23761
3475.56004,0.23794
3473.63132,0.23827
3471.70260,0.23865
3469.77387,0.23921
3467.84515,0.23977
3465.91643,0.24019
3463.98770,0.24062
3462.05898,0.24115
3460.13026,0.24165
3458.20153,0.24200
3456.27281,0.24220
3454.34408,0.24242
3452.41536,0.24272
3450.48664,0.24307
3448.55791,0.24342
3446.62919,0.24391
3444.70047,0.24459
3442.77174,0.24515
3440.84302,0.24538
3438.91429,0.24545
3436.98557,0.24570
3435.05685,0.24607
3433.12812,0.24638
3431.19940,0.24674
3429.27068,0.24718
3427.34195,0.24749
3425.41323,0.24766
3423.48451,0.24783
3421.55578,0.24796
3419.62706,0.24800
3417.69833,0.24797
3415.76961,0.24786
3413.84089,0.24780
3411.91216,0.24800
3409.98344,0.24837
3408.05472,0.24864
3406.12599,0.24879
3404.19727,0.24890
3402.26855,0.24895
3400.33982,0.24903
3398.41110,0.24928
3396.48237,0.24951
3394.55365,0.24955
3392.62493,0.24946
3390.69620,0.24934
3388.76748,0.24925
3386.83876,0.24924
3384.91003,0.24922
3382.98131,0.24920
3381.05259,0.24922
3379.12386,0.24918
3377.19514,0.24904
3375.26641,0.24895
3373.33769,0.24898
3371.40897,0.24896
3369.48024,0.24882
3367.55152,0.24861
3365.62280,0.24834
3363.69407,0.24810
3361.76535,0.24796
3359.83662,0.24775
3357.90790,0.24739
3355.97918,0.24717
3354.05045,0.24732
3352.12173,0.24763
3350.19301,0.24771
3348.26428,0.24744
3346.33556,0.24704
3344.40684,0.24672
3342.47811,0.24648
3340.54939,0.24618
3338.62066,0.24592
3336.69194,0.24586
3334.76322,0.24586
3332.83449,0.24562
3330.90577,0.24523
3328.97705,0.24500
3327.04832,0.24483
3325.11960,0.24442
3323.19088,0.24395
3321.26215,0.24367
3319.33343,0.24349
3317.40470,0.24331
3315.47598,0.24314
3313.54726,0.24286
3311.61853,0.24256
3309.68981,0.24243
3307.76109,0.24240
3305.83236,0.24225
3303.90364,0.24198
3301.97491,0.24172
3300.04619,0.24145
3298.11747,0.24115
3296.18874,0.24085
3294.26002,0.24063
3292.33130,0.24054
3290.40257,0.24038
3288.47385,0.24000
3286.54513,0.23958
3284.61640,0.23927
3282.68768,0.23898
3280.75895,0.23877
3278.83023,0.23865
3276.90151,0.23847
3274.97278,0.23802
3273.04406,0.23740
3271.11534,0.23690
3269.18661,0.23657
3267.25789,0.23624
3265.32917,0.23585
3263.40044,0.23549
3261.47172,0.23511
3259.54299,0.23470
3257.61427,0.23435
3255.68555,0.23398
3253.75682,0.23358
3251.82810,0.23324
3249.89938,0.23282
3247.97065,0.23233
3246.04193,0.23198
3244.11320,0.23178
3242.18448,0.23151
3240.25576,0.23100
3238.32703,0.23023
3236.39831,0.22952
3234.46959,0.22917
3232.54086,0.22902
3230.61214,0.22872
3228.68342,0.22827
3226.75469,0.22781
3224.82597,0.22733
3222.89724,0.22686
3220.96852,0.22642
3219.03980,0.22592
3217.11107,0.22533
3215.18235,0.22470
3213.25363,0.22404
3211.32490,0.22335
3209.39618,0.22272
3207.46746,0.22208
3205.53873,0.22136
3203.61001,0.22066
3201.68128,0.22002
3199.75256,0.21943
3197.82384,0.21895
3195.89511,0.21860
3193.96639,0.21819
3192.03767,0.21762
3190.10894,0.21697
3188.18022,0.21622
3186.25149,0.21540
3184.32277,0.21461
3182.39405,0.21385
3180.46532,0.21311
3178.53660,0.21240
3176.60788,0.21178
3174.67915,0.21127
3172.75043,0.21063
3170.82171,0.20976
3168.89298,0.20880
3166.96426,0.20782
3165.03553,0.20691
3163.10681,0.20615
3161.17809,0.20552
3159.24936,0.20489
3157.32064,0.20414
3155.39192,0.20332
3153.46319,0.20248
3151.53447,0.20164
3149.60575,0.20092
3147.67702,0.20029
3145.74830,0.19962
3143.81957,0.19889
3141.89085,0.19815
3139.96213,0.19743
3138.03340,0.19672
3136.10468,0.19599
3134.17596,0.19516
3132.24723,0.19426
3130.31851,0.19341
3128.38978,0.19261
3126.46106,0.19184
3124.53234,0.19109
3122.60361,0.19033
3120.67489,0.18952
3118.74617,0.18876
3116.81744,0.18804
3114.88872,0.18718
3112.96000,0.18623
3111.03127,0.18539
3109.10255,0.18469
3107.17382,0.18388
3105.24510,0.18290
3103.31638,0.18193
3101.38765,0.18103
3099.45893,0.18015
3097.53021,0.17934
3095.60148,0.17861
3093.67276,0.17788
3091.74404,0.17711
3089.81531,0.17624
3087.88659,0.17528
3085.95786,0.17424
3084.02914,0.17325
3082.10042,0.17235
3080.17169,0.17142
3078.24297,0.17043
3076.31425,0.16947
3074.38552,0.16854
3072.45680,0.16755
3070.52807,0.16665
3068.59935,0.16594
3066.67063,0.16525
3064.74190,0.16434
3062.81318,0.16327
3060.88446,0.16221
3058.95573,0.16118
3057.02701,0.16012
3055.09829,0.15916
3053.16956,0.15832
3051.24084,0.15743
3049.31211,0.15645
3047.38339,0.15550
3045.45467,0.15461
3043.52594,0.15376
3041.59722,0.15290
3039.66850,0.15195
3037.73977,0.15105
3035.81105,0.15030
3033.88233,0.14956
3031.95360,0.14877
3030.02488,0.14799
3028.09615,0.14724
3026.16743,0.14655
3024.23871,0.14591
3022.30998,0.14521
3020.38126,0.14437
3018.45254,0.14345
3016.52381,0.14263
3014.59509,0.14192
3012.66636,0.14118
3010.73764,0.14033
3008.80892,0.13950
3006.88019,0.13880
3004.95147,0.13830
3003.02275,0.13781
3001.09402,0.13709
2999.16530,0.13628
2997.23658,0.13561
2995.30785,0.13514
2993.37913,0.13472
2991.45040,0.13411
2989.52168,0.13342
2987.59296,0.13298
2985.66423,0.13280
2983.73551,0.13271
2981.80679,0.13253
2979.87806,0.13231
2977.94934,0.13220
2976.02062,0.13219
2974.09189,0.13219
2972.16317,0.13226
2970.23444,0.13245
2968.30572,0.13268
2966.37700,0.13282
2964.44827,0.13288
2962.51955,0.13289
2960.59083,0.13291
2958.66210,0.13288
2956.73338,0.13257
2954.80466,0.13203
2952.87593,0.13150
2950.94721,0.13108
2949.01848,0.13081
2947.08976,0.13075
2945.16104,0.13094
2943.23231,0.13145
2941.30359,0.13211
2939.37487,0.13271
2937.44614,0.13337
2935.51742,0.13424
2933.58869,0.13515
2931.65997,0.13587
2929.73125,0.13636
2927.80252,0.13655
2925.87380,0.13633
2923.94508,0.13557
2922.01635,0.13423
2920.08763,0.13243
2918.15891,0.13028
2916.23018,0.12785
2914.30146,0.12533
2912.37273,0.12286
2910.44401,0.12056
2908.51529,0.11854
2906.58656,0.11688
2904.65784,0.11549
2902.72912,0.11421
2900.80039,0.11292
2898.87167,0.11160
2896.94295,0.11025
2895.01422,0.10884
2893.08550,0.10743
2891.15677,0.10616
2889.22805,0.10499
2887.29933,0.10387
2885.37060,0.10289
2883.44188,0.10210
2881.51316,0.10144
2879.58443,0.10083
2877.65571,0.10027
2875.72698,0.09981
2873.79826,0.09942
2871.86954,0.09892
2869.94081,0.09828
2868.01209,0.09761
2866.08337,0.09707
2864.15464,0.09684
2862.22592,0.09706
2860.29720,0.09760
2858.36847,0.09820
2856.43975,0.09868
2854.51102,0.09877
2852.58230,0.09811
2850.65358,0.09651
2848.72485,0.09408
2846.79613,0.09112
2844.86741,0.08810
2842.93868,0.08552
2841.00996,0.08349
2839.08124,0.08176
2837.15251,0.08013
2835.22379,0.07865
2833.29506,0.07740
2831.36634,0.07628
2829.43762,0.07520
2827.50889,0.07418
2825.58017,0.07321
2823.65145,0.07232
2821.72272,0.07150
2819.79400,0.07071
2817.86527,0.06989
2815.93655,0.06912
2814.00783,0.06844
2812.07910,0.06771
2810.15038,0.06695
2808.22166,0.06632
2806.29293,0.06578
2804.36421,0.06519
2802.43549,0.06453
2800.50676,0.06384
2798.57804,0.06316
2796.64931,0.06251
2794.72059,0.06189
2792.79187,0.06131
2790.86314,0.06076
2788.93442,0.06017
2787.00570,0.05946
2785.07697,0.05870
2783.14825,0.05805
2781.21953,0.05752
2779.29080,0.05707
2777.36208,0.05660
2775.43335,0.05603
2773.50463,0.05542
2771.57591,0.05482
2769.64718,0.05424
2767.71846,0.05371
2765.78974,0.05321
2763.86101,0.05263
2761.93229,0.05196
2760.00356,0.05136
2758.07484,0.05087
2756.14612,0.05038
2754.21739,0.04987
2752.28867,0.04937
2750.35995,0.04887
2748.43122,0.04834
2746.50250,0.04783
2744.57378,0.04734
2742.64505,0.04686
2740.71633,0.04633
2738.78760,0.04580
2736.85888,0.04528
2734.93016,0.04474
2733.00143,0.04424
2731.07271,0.04381
2729.14399,0.04342
2727.21526,0.04304
2725.28654,0.04258
2723.35782,0.04205
2721.42909,0.04152
2719.50037,0.04101
2717.57164,0.04051
2715.64292,0.04005
2713.71420,0.03964
2711.78547,0.03925
2709.85675,0.03883
2707.92803,0.03842
2705.99930,0.03799
2704.07058,0.03754
2702.14185,0.03706
2700.21313,0.03655
2698.28441,0.03605
2696.35568,0.03562
2694.42696,0.03524
2692.49824,0.03487
2690.56951,0.03451
2688.64079,0.03414
2686.71207,0.03373
2684.78334,0.03329
2682.85462,0.03289
2680.92589,0.03252
2678.99717,0.03215
2677.06845,0.03180
2675.13972,0.03141
2673.21100,0.03093
2671.28228,0.03044
2669.35355,0.03002
2667.42483,0.02960
2665.49611,0.02919
2663.56738,0.02882
2661.63866,0.02845
2659.70993,0.02809
2657.78121,0.02777
2655.85249,0.02749
2653.92376,0.02718
2651.99504,0.02681
2650.06632,0.02647
2648.13759,0.02614
2646.20887,0.02581
2644.28014,0.02549
2642.35142,0.02513
2640.42270,0.02467
2638.49397,0.02427
2636.56525,0.02405
2634.63653,0.02379
2632.70780,0.02334
2630.77908,0.02288
2628.85036,0.02259
2626.92163,0.02236
2624.99291,0.02207
2623.06418,0.02176
2621.13546,0.02150
2619.20674,0.02127
2617.27801,0.02099
2615.34929,0.02066
2613.42057,0.02030
2611.49184,0.01990
2609.56312,0.01955
2607.63440,0.01934
2605.70567,0.01918
2603.77695,0.01898
2601.84822,0.01872
2599.91950,0.01841
2597.99078,0.01809
2596.06205,0.01780
2594.13333,0.01755
2592.20461,0.01733
2590.27588,0.01709
2588.34716,0.01685
2586.41843,0.01664
2584.48971,0.01641
2582.56099,0.01610
2580.63226,0.01583
2578.70354,0.01567
2576.77482,0.01552
2574.84609,0.01529
2572.91737,0.01499
2570.98865,0.01466
2569.05992,0.01439
2567.13120,0.01422
2565.20247,0.01411
2563.27375,0.01402
2561.34503,0.01388
2559.41630,0.01359
2557.48758,0.01320
2555.55886,0.01290
2553.63013,0.01271
2551.70141,0.01253
2549.77269,0.01230
2547.84396,0.01210
2545.91524,0.01197
2543.98651,0.01190
2542.05779,0.01182
2540.12907,0.01169
2538.20034,0.01152
2536.27162,0.01133
2534.34290,0.01115
2532.41417,0.01094
2530.48545,0.01073
2528.55673,0.01061
2526.62800,0.01056
2524.69928,0.01044
2522.77055,0.01020
2520.84183,0.00994
2518.91311,0.00971
2516.98438,0.00951
2515.05566,0.00938
2513.12694,0.00932
2511.19821,0.00923
2509.26949,0.00909
2507.34076,0.00893
2505.41204,0.00881
2503.48332,0.00870
2501.55459,0.00858
2499.62587,0.00847
2497.69715,0.00830
2495.76842,0.00803
2493.83970,0.00775
2491.91098,0.00760
2489.98225,0.00757
2488.05353,0.00753
2486.12480,0.00741
2484.19608,0.00721
2482.26736,0.00700
2480.33863,0.00684
2478.40991,0.00672
2476.48119,0.00659
2474.55246,0.00643
2472.62374,0.00626
2470.69502,0.00611
2468.76629,0.00600
2466.83757,0.00589
2464.90884,0.00569
2462.98012,0.00547
2461.05140,0.00531
2459.12267,0.00522
2457.19395,0.00510
2455.26523,0.00497
2453.33650,0.00491
2451.40778,0.00483
2449.47905,0.00466
2447.55033,0.00450
2445.62161,0.00445
2443.69288,0.00444
2441.76416,0.00432
2439.83544,0.00407
2437.90671,0.00383
2435.97799,0.00373
2434.04927,0.00368
2432.12054,0.00358
2430.19182,0.00343
2428.26309,0.00328
2426.33437,0.00320
2424.40565,0.00318
2422.47692,0.00317
2420.54820,0.00309
2418.61948,0.00299
2416.69075,0.00288
2414.76203,0.00272
2412.83331,0.00257
2410.90458,0.00245
2408.97586,0.00239
2407.04713,0.00237
2405.11841,0.00232
2403.18969,0.00225
2401.26096,0.00216
2399.33224,0.00208
2397.40352,0.00198
2395.47479,0.00184
2393.54607,0.00168
2391.61734,0.00157
2389.68862,0.00152
2387.75990,0.00152
2385.83117,0.00154
2383.90245,0.00155
2381.97373,0.00155
2380.04500,0.00153
2378.11628,0.00156
2376.18756,0.00166
2374.25883,0.00173
2372.33011,0.00173
2370.40138,0.00166
2368.47266,0.00165
2366.54394,0.00172
2364.61521,0.00176
2362.68649,0.00180
2360.75777,0.00188
2358.82904,0.00178
2356.90032,0.00146
2354.97160,0.00119
2353.04287,0.00123
2351.11415,0.00159
2349.18542,0.00175
2347.25670,0.00131
2345.32798,0.00080
2343.39925,0.00078
2341.47053,0.00101
2339.54181,0.00118
2337.61308,0.00121
2335.68436,0.00111
2333.75563,0.00100
2331.82691,0.00094
2329.89819,0.00089
2327.96946,0.00081
2326.04074,0.00072
2324.11202,0.00066
2322.18329,0.00059
2320.25457,0.00052
2318.32585,0.00050
2316.39712,0.00051
2314.46840,0.00051
2312.53967,0.00050
2310.61095,0.00045
2308.68223,0.00036
2306.75350,0.00022
2304.82478,0.00009
2302.89606,0.00000
2300.96733,-0.00001
2299.03861,0.00007
2297.10989,0.00015
2295.18116,0.00013
2293.25244,0.00005
2291.32371,0.00000
2289.39499,0.00004
2287.46627,0.00008
2285.53754,0.00007
2283.60882,0.00001
2281.68010,-0.00003
2279.75137,-0.00002
2277.82265,-0.00001
2275.89392,-0.00003
2273.96520,-0.00007
2272.03648,-0.00005
2270.10775,0.00001
2268.17903,0.00006
2266.25031,0.00010
2264.32158,0.00017
2262.39286,0.00017
2260.46414,0.00009
2258.53541,0.00000
2256.60669,-0.00003
2254.67796,0.00000
2252.74924,0.00003
2250.82052,-0.00002
2248.89179,-0.00012
2246.96307,-0.00014
2245.03435,-0.00009
2243.10562,-0.00005
2241.17690,-0.00010
2239.24818,-0.00018
2237.31945,-0.00021
2235.39073,-0.00022
2233.46200,-0.00022
2231.53328,-0.00018
2229.60456,-0.00014
2227.67583,-0.00012
2225.74711,-0.00010
2223.81839,-0.00008
2221.88966,-0.00003
2219.96094,0.00002
2218.03221,0.00006
2216.10349,0.00007
2214.17477,0.00004
2212.24604,-0.00002
2210.31732,-0.00005
2208.38860,-0.00005
2206.45987,0.00000
2204.53115,0.00003
2202.60243,0.00003
2200.67370,0.00000
2198.74498,-0.00002
2196.81625,-0.00001
2194.88753,0.00000
2192.95881,-0.00003
2191.03008,-0.00008
2189.10136,-0.00007
2187.17264,-0.00004
2185.24391,-0.00003
2183.31519,-0.00004
2181.38647,-0.00008
2179.45774,-0.00013
2177.52902,-0.00013
2175.60029,-0.00009
2173.67157,-0.00003
2171.74285,-0.00000
2169.81412,-0.00002
2167.88540,-0.00000
2165.95668,0.00003
2164.02795,-0.00000
2162.09923,-0.00001
2160.17050,0.00006
2158.24178,0.00015
2156.31306,0.00021
2154.38433,0.00020
2152.45561,0.00018
2150.52689,0.00017
2148.59816,0.00014
2146.66944,0.00015
2144.74072,0.00018
2142.81199,0.00015
2140.88327,0.00008
2138.95454,0.00007
2137.02582,0.00013
2135.09710,0.00017
2133.16837,0.00019
2131.23965,0.00019
2129.31093,0.00016
2127.38220,0.00009
2125.45348,0.00005
2123.52476,0.00005
2121.59603,0.00008
2119.66731,0.00012
2117.73858,0.00016
2115.80986,0.00016
2113.88114,0.00009
2111.95241,-0.00000
2110.02369,-0.00002
2108.09497,0.00005
2106.16624,0.00010
2104.23752,0.00005
2102.30880,-0.00001
2100.38007,-0.00005
2098.45135,-0.00010
2096.52262,-0.00010
2094.59390,0.00000
2092.66518,0.00001
2090.73645,-0.00012
2088.80773,-0.00034
2086.87901,-0.00053
2084.95028,-0.00062
2083.02156,-0.00068
2081.09283,-0.00073
2079.16411,-0.00077
2077.23539,-0.00078
2075.30666,-0.00079
2073.37794,-0.00084
2071.44922,-0.00093
2069.52049,-0.00106
2067.59177,-0.00117
2065.66305,-0.00116
2063.73432,-0.00107
2061.80560,-0.00098
2059.87687,-0.00094
2057.94815,-0.00089
2056.01943,-0.00077
2054.09070,-0.00064
2052.16198,-0.00057
2050.23326,-0.00052
2048.30453,-0.00042
2046.37581,-0.00027
2044.44709,-0.00015
2042.51836,-0.00006
2040.58964,0.00009
2038.66091,0.00036
2036.73219,0.00067
2034.80347,0.00095
2032.87474,0.00119
2030.94602,0.00142
2029.01730,0.00168
2027.08857,0.00197
2025.15985,0.00223
2023.23112,0.00245
2021.30240,0.00264
2019.37368,0.00281
2017.44495,0.00295
2015.51623,0.00304
2013.58751,0.00314
2011.65878,0.00329
2009.73006,0.00345
2007.80134,0.00359
2005.87261,0.00366
2003.94389,0.00363
2002.01516,0.00360
2000.08644,0.00365
1998.15772,0.00371
1996.22899,0.00369
1994.30027,0.00364
1992.37155,0.00364
1990.44282,0.00367
1988.51410,0.00366
1986.58538,0.00361
1984.65665,0.00354
1982.72793,0.00341
1980.79920,0.00329
1978.87048,0.00324
1976.94176,0.00323
1975.01303,0.00314
1973.08431,0.00295
1971.15559,0.00274
1969.22686,0.00253
1967.29814,0.00232
1965.36941,0.00217
1963.44069,0.00201
1961.51197,0.00177
1959.58324,0.00152
1957.65452,0.00136
1955.72580,0.00126
1953.79707,0.00116
1951.86835,0.00101
1949.93963,0.00084
1948.01090,0.00075
1946.08218,0.00072
1944.15345,0.00067
1942.22473,0.00052
1940.29601,0.00027
1938.36728,0.00007
1936.43856,0.00000
1934.50984,0.00003
1932.58111,0.00002
1930.65239,-0.00004
1928.72367,-0.00007
1926.79494,0.00000
1924.86622,0.00014
1922.93749,0.00029
1921.00877,0.00042
1919.08005,0.00057
1917.15132,0.00078
1915.22260,0.00108
1913.29388,0.00143
1911.36515,0.00184
1909.43643,0.00231
1907.50770,0.00278
1905.57898,0.00322
1903.65026,0.00376
1901.72153,0.00437
1899.79281,0.00494
1897.86409,0.00549
1895.93536,0.00604
1894.00664,0.00653
1892.07792,0.00695
1890.14919,0.00742
1888.22047,0.00790
1886.29174,0.00832
1884.36302,0.00868
1882.43430,0.00894
1880.50557,0.00908
1878.57685,0.00916
1876.64813,0.00923
1874.71940,0.00929
1872.79068,0.00932
1870.86196,0.00926
1868.93323,0.00907
1867.00451,0.00875
1865.07578,0.00835
1863.14706,0.00790
1861.21834,0.00739
1859.28961,0.00679
1857.36089,0.00614
1855.43217,0.00553
1853.50344,0.00500
1851.57472,0.00453
1849.64599,0.00411
1847.71727,0.00371
1845.78855,0.00328
1843.85982,0.00283
1841.93110,0.00238
1840.00238,0.00195
1838.07365,0.00159
1836.14493,0.00129
1834.21621,0.00110
1832.28748,0.00098
1830.35876,0.00083
1828.43003,0.00057
1826.50131,0.00030
1824.57259,0.00009
1822.64386,-0.00002
1820.71514,-0.00005
1818.78642,-0.00006
1816.85769,-0.00006
1814.92897,0.00000
1813.00025,0.00003
1811.07152,0.00006
1809.14280,0.00005
1807.21407,0.00004
1805.28535,0.00010
1803.35663,0.00027
1801.42790,0.00055
1799.49918,0.00082
1797.57046,0.00105
1795.64173,0.00132
1793.71301,0.00171
1791.78428,0.00219
1789.85556,0.00262
1787.92684,0.00300
1785.99811,0.00342
1784.06939,0.00390
1782.14067,0.00441
1780.21194,0.00493
1778.28322,0.00539
1776.35450,0.00583
1774.42577,0.00640
1772.49705,0.00711
1770.56832,0.00778
1768.63960,0.00828
1766.71088,0.00870
1764.78215,0.00916
1762.85343,0.00970
1760.92471,0.01029
1758.99598,0.01088
1757.06726,0.01151
1755.13854,0.01221
1753.20981,0.01296
1751.28109,0.01387
1749.35236,0.01489
1747.42364,0.01585
1745.49492,0.01678
1743.56619,0.01780
1741.63747,0.01899
1739.70875,0.02030
1737.78002,0.02157
1735.85130,0.02284
1733.92257,0.02436
1731.99385,0.02593
1730.06513,0.02727
1728.13640,0.02850
1726.20768,0.02980
1724.27896,0.03119
1722.35023,0.03244
1720.42151,0.03344
1718.49279,0.03462
1716.56406,0.03631
1714.63534,0.03804
1712.70661,0.03950
1710.77789,0.04090
1708.84917,0.04246
1706.92044,0.04432
1704.99172,0.04635
1703.06300,0.04837
1701.13427,0.05074
1699.20555,0.05364
1697.27683,0.05652
1695.34810,0.05927
1693.41938,0.06176
1691.49065,0.06406
1689.56193,0.06651
1687.63321,0.06902
1685.70448,0.07190
1683.77576,0.07558
1681.84704,0.07902
1679.91831,0.08160
1677.98959,0.08391
1676.06087,0.08657
1674.13214,0.08945
1672.20342,0.09212
1670.27469,0.09484
1668.34597,0.09768
1666.41725,0.10005
1664.48852,0.10216
1662.55980,0.10444
1660.63108,0.10658
1658.70235,0.10822
1656.77363,0.10947
1654.84490,0.11081
1652.91618,0.11246
1650.98746,0.11387
1649.05873,0.11482
1647.13001,0.11572
1645.20129,0.11659
1643.27256,0.11726
1641.34384,0.11783
1639.41512,0.11834
1637.48639,0.11866
1635.55767,0.11871
1633.62894,0.11852
1631.70022,0.11820
1629.77150,0.11774
1627.84277,0.11703
1625.91405,0.11595
1623.98533,0.11442
1622.05660,0.11264
1620.12788,0.11094
1618.19916,0.10899
1616.27043,0.10642
1614.34171,0.10373
1612.41298,0.10130
1610.48426,0.09885
1608.55554,0.09626
1606.62681,0.09371
1604.69809,0.09125
1602.76937,0.08882
1600.84064,0.08644
1598.91192,0.08421
1596.98319,0.08215
1595.05447,0.08020
1593.12575,0.07830
1591.19702,0.07638
1589.26830,0.07442
1587.33958,0.07250
1585.41085,0.07070
1583.48213,0.06912
1581.55341,0.06777
1579.62468,0.06659
1577.69596,0.06532
1575.76723,0.06389
1573.83851,0.06266
1571.90979,0.06176
1569.98106,0.06090
1568.05234,0.06001
1566.12362,0.05920
1564.19489,0.05849
1562.26617,0.05795
1560.33745,0.05752
1558.40872,0.05691
1556.48000,0.05613
1554.55127,0.05541
1552.62255,0.05472
1550.69383,0.05394
1548.76510,0.05317
1546.83638,0.05251
1544.90766,0.05195
1542.97893,0.05129
1541.05021,0.05015
1539.12148,0.04844
1537.19276,0.04691
1535.26404,0.04560
1533.33531,0.04407
1531.40659,0.04245
1529.47787,0.04096
1527.54914,0.03939
1525.62042,0.03774
1523.69170,0.03620
1521.76297,0.03460
1519.83425,0.03288
1517.90552,0.03110
1515.97680,0.02921
1514.04808,0.02740
1512.11935,0.02585
1510.19063,0.02443
1508.26191,0.02254
1506.33318,0.01989
1504.40446,0.01758
1502.47574,0.01604
1500.54701,0.01462
1498.61829,0.01299
1496.68956,0.01133
1494.76084,0.01003
1492.83212,0.00917
1490.90339,0.00849
1488.97467,0.00781
1487.04595,0.00723
1485.11722,0.00694
1483.18850,0.00694
1481.25977,0.00724
1479.33105,0.00784
1477.40233,0.00872
1475.47360,0.01006
1473.54488,0.01208
1471.61616,0.01455
1469.68743,0.01666
1467.75871,0.01823
1465.82999,0.01951
1463.90126,0.02047
1461.97254,0.02103
1460.04381,0.02153
1458.11509,0.02229
1456.18637,0.02301
1454.25764,0.02327
1452.32892,0.02324
1450.40020,0.02319
1448.47147,0.02329
1446.54275,0.02348
1444.61403,0.02364
1442.68530,0.02378
1440.75658,0.02401
1438.82785,0.02432
1436.89913,0.02469
1434.97041,0.02503
1433.04168,0.02529
1431.11296,0.02558
1429.18424,0.02598
1427.25551,0.02639
1425.32679,0.02680
1423.39806,0.02727
1421.46934,0.02791
1419.54062,0.02871
1417.61189,0.02955
1415.68317,0.03024
1413.75445,0.03089
1411.82572,0.03156
1409.89700,0.03221
1407.96828,0.03284
1406.03955,0.03351
1404.11083,0.03409
1402.18210,0.03426
1400.25338,0.03387
1398.32466,0.03297
1396.39593,0.03170
1394.46721,0.03024
1392.53849,0.02884
1390.60976,0.02770
1388.68104,0.02675
1386.75232,0.02587
1384.82359,0.02505
1382.89487,0.02422
1380.96614,0.02329
1379.03742,0.02225
1377.10870,0.02115
1375.17997,0.02001
1373.25125,0.01890
1371.32253,0.01797
1369.39380,0.01721
1367.46508,0.01648
1365.53635,0.01570
1363.60763,0.01483
1361.67891,0.01393
1359.75018,0.01312
1357.82146,0.01253
1355.89274,0.01214
1353.96401,0.01181
1352.03529,0.01150
1350.10657,0.01124
1348.17784,0.01101
1346.24912,0.01075
1344.32039,0.01058
1342.39167,0.01050
1340.46295,0.01045
1338.53422,0.01032
1336.60550,0.01014
1334.67678,0.00997
1332.74805,0.00984
1330.81933,0.00980
1328.89061,0.00988
1326.96188,0.01006
1325.03316,0.01029
1323.10443,0.01055
1321.17571,0.01086
1319.24699,0.01116
1317.31826,0.01138
1315.38954,0.01164
1313.46082,0.01203
1311.53209,0.01253
1309.60337,0.01310
1307.67464,0.01367
1305.74592,0.01423
1303.81720,0.01492
1301.88847,0.01588
1299.95975,0.01709
1298.03103,0.01845
1296.10230,0.01985
1294.17358,0.02120
1292.24486,0.02257
1290.31613,0.02417
1288.38741,0.02605
1286.45868,0.02806
1284.52996,0.03012
1282.60124,0.03246
1280.67251,0.03524
1278.74379,0.03837
1276.81507,0.04173
1274.88634,0.04527
1272.95762,0.04907
1271.02890,0.05340
1269.10017,0.05840
1267.17145,0.06404
1265.24272,0.07025
1263.31400,0.07702
1261.38528,0.08450
1259.45655,0.09277
1257.52783,0.10170
1255.59911,0.11129
1253.67038,0.12135
1251.74166,0.13144
1249.81294,0.14129
1247.88421,0.15081
1245.95549,0.15989
1244.02676,0.16840
1242.09804,0.17614
1240.16932,0.18304
1238.24059,0.18927
1236.31187,0.19498
1234.38315,0.20009
1232.45442,0.20468
1230.52570,0.20910
1228.59697,0.21329
1226.66825,0.21687
1224.73953,0.21986
1222.81080,0.22271
1220.88208,0.22564
1218.95336,0.22858
1217.02463,0.23145
1215.09591,0.23421
1213.16719,0.23694
1211.23846,0.23966
1209.30974,0.24218
1207.38101,0.24445
1205.45229,0.24665
1203.52357,0.24890
1201.59484,0.25125
1199.66612,0.25366
1197.73740,0.25603
1195.80867,0.25837
1193.87995,0.26068
1191.95123,0.26287
1190.02250,0.26502
1188.09378,0.26723
1186.16505,0.26938
1184.23633,0.27143
1182.30761,0.27352
1180.37888,0.27577
1178.45016,0.27804
1176.52144,0.28005
1174.59271,0.28172
1172.66399,0.28328
1170.73526,0.28503
1168.80654,0.28705
1166.87782,0.28922
1164.94909,0.29148
1163.02037,0.29377
1161.09165,0.29575
1159.16292,0.29723
1157.23420,0.29866
1155.30548,0.30036
1153.37675,0.30214
1151.44803,0.30368
1149.51930,0.30494
1147.59058,0.30631
1145.66186,0.30802
1143.73313,0.30998
1141.80441,0.31203
1139.87569,0.31381
1137.94696,0.31523
1136.01824,0.31690
1134.08952,0.31909
1132.16079,0.32143
1130.23207,0.32370
1128.30334,0.32610
1126.37462,0.32893
1124.44590,0.33191
1122.51717,0.33471
1120.58845,0.33797
1118.65973,0.34229
1116.73100,0.34741
1114.80228,0.35284
1112.87355,0.35854
1110.94483,0.36484
1109.01611,0.37153
1107.08738,0.37799
1105.15866,0.38419
1103.22994,0.39013
1101.30121,0.39536
1099.37249,0.39969
1097.44377,0.40296
1095.51504,0.40489
1093.58632,0.40618
1091.65759,0.40744
1089.72887,0.40825
1087.80015,0.40835
1085.87142,0.40789
1083.94270,0.40677
1082.01398,0.40519
1080.08525,0.40355
1078.15653,0.40180
1076.22781,0.39984
1074.29908,0.39738
1072.37036,0.39417
1070.44163,0.39029
1068.51291,0.38629
1066.58419,0.38255
1064.65546,0.37846
1062.72674,0.37351
1060.79802,0.36805
1058.86929,0.36261
1056.94057,0.35726
1055.01184,0.35178
1053.08312,0.34606
1051.15440,0.34006
1049.22567,0.33396
1047.29695,0.32793
1045.36823,0.32175
1043.43950,0.31538
1041.51078,0.30904
1039.58206,0.30273
1037.65333,0.29613
1035.72461,0.28935
1033.79588,0.28268
1031.86716,0.27650
1029.93844,0.27097
1028.00971,0.26545
1026.08099,0.25971
1024.15227,0.25433
1022.22354,0.24953
1020.29482,0.24504
1018.36610,0.24070
1016.43737,0.23649
1014.50865,0.23250
1012.57992,0.22881
1010.65120,0.22550
1008.72248,0.22245
1006.79375,0.21948
1004.86503,0.21651
1002.93631,0.21357
1001.00758,0.21082
999.07886,0.20837
997.15013,0.20582
995.22141,0.20304
993.29269,0.20066
991.36396,0.19892
989.43524,0.19742
987.50652,0.19601
985.57779,0.19489
983.64907,0.19400
981.72035,0.19306
979.79162,0.19205
977.86290,0.19127
975.93417,0.19085
974.00545,0.19055
972.07673,0.19016
970.14800,0.18977
968.21928,0.18951
966.29056,0.18931
964.36183,0.18927
962.43311,0.18938
960.50439,0.18926
958.57566,0.18887
956.64694,0.18841
954.71821,0.18766
952.78949,0.18628
950.86077,0.18437
948.93204,0.18240
947.00332,0.18058
945.07460,0.17882
943.14587,0.17727
941.21715,0.17577
939.28842,0.17391
937.35970,0.17181
935.43098,0.16965
933.50225,0.16731
931.57353,0.16482
929.64481,0.16223
927.71608,0.15943
925.78736,0.15642
923.85864,0.15335
921.92991,0.15033
920.00119,0.14717
918.07246,0.14376
916.14374,0.14036
914.21502,0.13719
912.28629,0.13416
910.35757,0.13107
908.42885,0.12770
906.50012,0.12407
904.57140,0.12050
902.64268,0.11718
900.71395,0.11394
898.78523,0.11073
896.85650,0.10764
894.92778,0.10472
892.99906,0.10191
891.07033,0.09909
889.14161,0.09628
887.21289,0.09360
885.28416,0.09087
883.35544,0.08803
881.42671,0.08548
879.49799,0.08336
877.56927,0.08140
875.64054,0.07928
873.71182,0.07699
871.78310,0.07499
869.85437,0.07354
867.92565,0.07225
865.99693,0.07069
864.06820,0.06890
862.13948,0.06739
860.21075,0.06630
858.28203,0.06524
856.35331,0.06410
854.42458,0.06297
852.49586,0.06191
850.56714,0.06106
848.63841,0.06056
846.70969,0.06040
844.78097,0.06051
842.85224,0.06107
840.92352,0.06225
838.99479,0.06388
837.06607,0.06575
835.13735,0.06763
833.20862,0.06958
831.27990,0.07188
829.35118,0.07446
827.42245,0.07693
825.49373,0.07924
823.56501,0.08172
821.63628,0.08451
819.70756,0.08754
817.77883,0.09059
815.85011,0.09319
813.92139,0.09541
811.99266,0.09812
810.06394,0.10158
808.13522,0.10503
806.20649,0.10784
804.27777,0.11010
802.34904,0.11206
800.42032,0.11391
798.49160,0.11528
796.56287,0.11578
794.63415,0.11571
792.70543,0.11532
790.77670,0.11451
788.84798,0.11344
786.91926,0.11203
784.99053,0.10995
783.06181,0.10750
781.13308,0.10511
779.20436,0.10247
777.27564,0.09928
775.34691,0.09585
773.41819,0.09275
771.48947,0.09024
769.56074,0.08813
767.63202,0.08617
765.70330,0.08462
763.77457,0.08379
761.84585,0.08365
759.91712,0.08395
757.98840,0.08421
756.05968,0.08391
754.13095,0.08308
752.20223,0.08249
750.27351,0.08247
748.34478,0.08219
746.41606,0.08135
744.48733,0.08075
742.55861,0.08068
740.62989,0.08080
738.70116,0.08072
736.77244,0.08039
734.84372,0.08036
732.91499,0.08073
730.98627,0.08098
729.05755,0.08115
727.12882,0.08137
725.20010,0.08136
723.27137,0.08110
721.34265,0.08056
719.41393,0.08009
717.48520,0.07999
715.55648,0.07999
713.62776,0.08013
711.69903,0.08067
709.77031,0.08113
707.84159,0.08107
705.91286,0.08094
703.98414,0.08135
702.05541,0.08209
700.12669,0.08250
698.19797,0.08237
696.26924,0.08210
694.34052,0.08207
692.41180,0.08233
690.48307,0.08260
688.55435,0.08253
686.62562,0.08224
684.69690,0.08228
682.76818,0.08279
680.83945,0.08324
678.91073,0.08311
676.98201,0.08257
675.05328,0.08251
673.12456,0.08332
671.19584,0.08366
669.26711,0.08251
667.33839,0.08176
665.40966,0.08254
663.48094,0.08315
661.55222,0.08310
659.62349,0.08326
657.69477,0.08408
655.76605,0.08557
653.83732,0.08723
651.90860,0.08879
649.97988,0.09049
648.05115,0.09213
646.12243,0.09340
644.19370,0.09496
642.26498,0.09708
640.33626,0.09888
638.40753,0.09990
636.47881,0.10064
634.55009,0.10148
632.62136,0.10243
630.69264,0.10346
628.76391,0.10434
626.83519,0.10497
624.90647,0.10586
622.97774,0.10730
621.04902,0.10910
619.12030,0.11077
617.19157,0.11159
615.26285,0.11184
613.33413,0.11238
611.40540,0.11342
609.47668,0.11468
607.54795,0.11593
605.61923,0.11697
603.69051,0.11782
601.76178,0.11879
599.83306,0.11993
597.90434,0.12115
595.97561,0.12299
594.04689,0.12538
592.11817,0.12713
590.18944,0.12792
588.26072,0.12901
586.33199,0.13066
584.40327,0.13153
582.47455,0.13146
580.54582,0.13154
578.61710,0.13165
576.68838,0.13096
574.75965,0.13005
572.83093,0.12967
570.90220,0.12971
568.97348,0.13023
567.04476,0.13049
565.11603,0.12958
563.18731,0.12860
561.25859,0.12887
559.32986,0.12949
557.40114,0.12926
555.47242,0.12871
553.54369,0.12913
551.61497,0.13057
549.68624,0.13183
547.75752,0.13274
545.82880,0.13409
543.90007,0.13513
541.97135,0.13459
540.04263,0.13325
538.11390,0.13257
536.18518,0.13194
534.25646,0.13051
532.32773,0.12918
530.39901,0.12853
528.47028,0.12817
526.54156,0.12802
524.61284,0.12807
522.68411,0.12737
520.75539,0.12593
518.82667,0.12574
516.89794,0.12780
514.96922,0.13077
513.04049,0.13342
511.11177,0.13562
509.18305,0.13786
507.25432,0.14121
505.32560,0.14587
503.39688,0.15009
501.46815,0.15295
499.53943,0.15646
497.61071,0.16239
495.68198,0.16937
493.75326,0.17550
491.82453,0.18089
489.89581,0.18620
487.96709,0.19148
486.03836,0.19700
484.10964,0.20354
482.18092,0.21129
480.25219,0.22000
478.32347,0.22887
476.39475,0.23490
474.46602,0.23649
472.53730,0.23679
470.60857,0.23907
468.67985,0.24309
466.75113,0.24653
464.82240,0.24786
462.89368,0.24835
460.96496,0.24888
459.03623,0.24707
457.10751,0.24183
455.17878,0.23634
453.25006,0.23305
451.32134,0.23090
449.39261,0.22786
447.46389,0.22416
445.53517,0.22132
443.60644,0.21780
441.67772,0.21096
439.74900,0.20246
437.82027,0.19559
435.89155,0.19056
433.96282,0.18546
432.03410,0.17965
430.10538,0.17480
428.17665,0.17151
426.24793,0.16773
424.31921,0.16370
422.39048,0.16179
420.46176,0.15913
418.53304,0.15189
416.60431,0.14571
414.67559,0.14451
412.74686,0.14283
410.81814,0.13635
408.88942,0.12726
406.96069,0.12123
405.03197,0.12133
403.10325,0.12254
401.17452,0.11626
399.24580,0.10337
397.31708,0.09645
395.38835,0.09946
393.45963,0.09950
391.53090,0.09058
389.60218,0.08288
387.67346,0.08366
385.74473,0.08486
383.81601,0.08292
381.88729,0.08449
379.95856,0.08802
378.02984,0.09613
376.10111,0.11235
374.17239,0.11192
372.24367,0.07727
370.31494,0.03291
368.38622,0.00000
