3996.31543,0.00000
3994.38671,0.00027
3992.45799,0.00042
3990.52926,0.00048
3988.60054,0.00046
3986.67182,0.00038
3984.74309,0.00031
3982.81437,0.00026
3980.88564,0.00028
3978.95692,0.00039
3977.02820,0.00047
3975.09947,0.00047
3973.17075,0.00049
3971.24203,0.00049
3969.31330,0.00047
3967.38458,0.00049
3965.45586,0.00053
3963.52713,0.00052
3961.59841,0.00054
3959.66968,0.00065
3957.74096,0.00081
3955.81224,0.00091
3953.88351,0.00092
3951.95479,0.00083
3950.02607,0.00075
3948.09734,0.00076
3946.16862,0.00076
3944.23990,0.00077
3942.31117,0.00086
3940.38245,0.00085
3938.45372,0.00065
3936.52500,0.00049
3934.59628,0.00054
3932.66755,0.00078
3930.73883,0.00098
3928.81011,0.00090
3926.88138,0.00068
3924.95266,0.00064
3923.02393,0.00071
3921.09521,0.00069
3919.16649,0.00070
3917.23776,0.00085
3915.30904,0.00093
3913.38032,0.00078
3911.45159,0.00051
3909.52287,0.00025
3907.59415,0.00014
3905.66542,0.00033
3903.73670,0.00078
3901.80797,0.00114
3899.87925,0.00121
3897.95053,0.00107
3896.02180,0.00075
3894.09308,0.00048
3892.16436,0.00053
3890.23563,0.00062
3888.30691,0.00039
3886.37819,0.00019
3884.44946,0.00034
3882.52074,0.00064
3880.59201,0.00098
3878.66329,0.00107
3876.73457,0.00072
3874.80584,0.00040
3872.87712,0.00045
3870.94840,0.00083
3869.01967,0.00128
3867.09095,0.00137
3865.16222,0.00122
3863.23350,0.00115
3861.30478,0.00106
3859.37605,0.00076
3857.44733,0.00032
3855.51861,0.00028
3853.58988,0.00110
3851.66116,0.00180
3849.73244,0.00142
3847.80371,0.00061
3845.87499,0.00010
3843.94626,0.00000
3842.01754,0.00009
3840.08882,0.00036
3838.16009,0.00082
3836.23137,0.00112
3834.30265,0.00108
3832.37392,0.00098
3830.44520,0.00098
3828.51648,0.00100
3826.58775,0.00093
3824.65903,0.00076
3822.73030,0.00083
3820.80158,0.00145
3818.87286,0.00196
3816.94413,0.00204
3815.01541,0.00194
3813.08669,0.00160
3811.15796,0.00106
3809.22924,0.00071
3807.30052,0.00080
3805.37179,0.00109
3803.44307,0.00154
3801.51434,0.00224
3799.58562,0.00262
3797.65690,0.00251
3795.72817,0.00239
3793.79945,0.00232
3791.87073,0.00222
3789.94200,0.00220
3788.01328,0.00229
3786.08455,0.00237
3784.15583,0.00238
3782.22711,0.00239
3780.29838,0.00265
3778.36966,0.00314
3776.44094,0.00345
3774.51221,0.00343
3772.58349,0.00341
3770.65477,0.00372
3768.72604,0.00435
3766.79732,0.00497
3764.86859,0.00534
3762.93987,0.00536
3761.01115,0.00545
3759.08242,0.00604
3757.15370,0.00672
3755.22498,0.00692
3753.29625,0.00717
3751.36753,0.00831
3749.43881,0.00974
3747.51008,0.01037
3745.58136,0.01091
3743.65263,0.01199
3741.72391,0.01267
3739.79519,0.01273
3737.86646,0.01309
3735.93774,0.01436
3734.00902,0.01617
3732.08029,0.01785
3730.15157,0.01911
3728.22284,0.02020
3726.29412,0.02148
3724.36540,0.02304
3722.43667,0.02490
3720.50795,0.02689
3718.57923,0.02867
3716.65050,0.03023
3714.72178,0.03206
3712.79306,0.03497
3710.86433,0.03889
3708.93561,0.04231
3707.00688,0.04465
3705.07816,0.04670
3703.14944,0.04938
3701.22071,0.05284
3699.29199,0.05635
3697.36327,0.05943
3695.43454,0.06223
3693.50582,0.06498
3691.57710,0.06825
3689.64837,0.07270
3687.71965,0.07753
3685.79092,0.08141
3683.86220,0.08457
3681.93348,0.08788
3680.00475,0.09154
3678.07603,0.09584
3676.14731,0.10149
3674.21858,0.10733
3672.28986,0.11155
3670.36113,0.11572
3668.43241,0.12049
3666.50369,0.12421
3664.57496,0.12704
3662.64624,0.13012
3660.71752,0.13356
3658.78879,0.13707
3656.86007,0.14083
3654.93135,0.14437
3653.00262,0.14697
3651.07390,0.14994
3649.14517,0.15478
3647.21645,0.15969
3645.28773,0.16265
3643.35900,0.16452
3641.43028,0.16664
3639.50156,0.16923
3637.57283,0.17194
3635.64411,0.17451
3633.71539,0.17673
3631.78666,0.17871
3629.85794,0.18153
3627.92921,0.18540
3626.00049,0.18834
3624.07177,0.18987
3622.14304,0.19125
3620.21432,0.19342
3618.28560,0.19608
3616.35687,0.19815
3614.42815,0.19955
3612.49942,0.20091
3610.57070,0.20254
3608.64198,0.20470
3606.71325,0.20705
3604.78453,0.20878
3602.85581,0.21003
3600.92708,0.21146
3598.99836,0.21317
3597.06964,0.21492
3595.14091,0.21684
3593.21219,0.21878
3591.28346,0.22023
3589.35474,0.22157
3587.42602,0.22359
3585.49729,0.22573
3583.56857,0.22713
3581.63985,0.22812
3579.71112,0.22931
3577.78240,0.23090
3575.85368,0.23274
3573.92495,0.23438
3571.99623,0.23550
3570.06750,0.23646
3568.13878,0.23796
3566.21006,0.23997
3564.28133,0.24159
3562.35261,0.24264
3560.42389,0.24359
3558.49516,0.24468
3556.56644,0.24581
3554.63771,0.24694
3552.70899,0.24825
3550.78027,0.24961
3548.85154,0.25075
3546.92282,0.25195
3544.99410,0.25345
3543.06537,0.25488
3541.13665,0.25600
3539.20793,0.25697
3537.27920,0.25794
3535.35048,0.25897
3533.42175,0.26003
3531.49303,0.26108
3529.56431,0.26217
3527.63558,0.26329
3525.70686,0.26436
3523.77814,0.26539
3521.84941,0.26638
3519.92069,0.26733
3517.99197,0.26825
3516.06324,0.26909
3514.13452,0.26984
3512.20579,0.27062
3510.27707,0.27157
3508.34835,0.27251
3506.41962,0.27320
3504.49090,0.27391
3502.56218,0.27501
3500.63345,0.27617
3498.70473,0.27703
3496.77600,0.27767
3494.84728,0.27832
3492.91856,0.27910
3490.98983,0.27993
3489.06111,0.28073
3487.13239,0.28150
3485.20366,0.28226
3483.27494,0.28298
3481.34622,0.28373
3479.41749,0.28440
3477.48877,0.28488
3475.56004,0.28533
3473.63132,0.28598
3471.70260,0.28674
3469.77387,0.28743
3467.84515,0.28809
3465.91643,0.28878
3463.98770,0.28936
3462.05898,0.28987
3460.13026,0.29039
3458.20153,0.29089
3456.27281,0.29134
3454.34408,0.29180
3452.41536,0.29229
3450.48664,0.29269
3448.55791,0.29299
3446.62919,0.29343
3444.70047,0.29408
3442.77174,0.29459
3440.84302,0.29478
3438.91429,0.29489
3436.98557,0.29524
3435.05685,0.29581
3433.12812,0.29633
3431.19940,0.29660
3429.27068,0.29672
3427.34195,0.29683
3425.41323,0.29693
3423.48451,0.29701
3421.55578,0.29731
3419.62706,0.29778
3417.69833,0.29804
3415.76961,0.29811
3413.84089,0.29837
3411.91216,0.29872
3409.98344,0.29894
3408.05472,0.29908
3406.12599,0.29914
3404.19727,0.29912
3402.26855,0.29918
3400.33982,0.29930
3398.41110,0.29920
3396.48237,0.29892
3394.55365,0.29888
3392.62493,0.29921
3390.69620,0.29949
3388.76748,0.29938
3386.83876,0.29900
3384.91003,0.29864
3382.98131,0.29852
3381.05259,0.29854
3379.12386,0.29844
3377.19514,0.29816
3375.26641,0.29797
3373.33769,0.29793
3371.40897,0.29777
3369.48024,0.29750
3367.55152,0.29734
3365.62280,0.29723
3363.69407,0.29701
3361.76535,0.29668
3359.83662,0.29641
3357.90790,0.29619
3355.97918,0.29596
3354.05045,0.29582
3352.12173,0.29569
3350.19301,0.29549
3348.26428,0.29537
3346.33556,0.29532
3344.40684,0.29503
3342.47811,0.29458
3340.54939,0.29423
3338.62066,0.29401
3336.69194,0.29373
3334.76322,0.29332
3332.83449,0.29295
3330.90577,0.29273
3328.97705,0.29257
3327.04832,0.29227
3325.11960,0.29186
3323.19088,0.29141
3321.26215,0.29100
3319.33343,0.29071
3317.40470,0.29047
3315.47598,0.29012
3313.54726,0.28967
3311.61853,0.28929
3309.68981,0.28907
3307.76109,0.28888
3305.83236,0.28860
3303.90364,0.28829
3301.97491,0.28802
3300.04619,0.28776
3298.11747,0.28743
3296.18874,0.28700
3294.26002,0.28655
3292.33130,0.28616
3290.40257,0.28582
3288.47385,0.28549
3286.54513,0.28510
3284.61640,0.28465
3282.68768,0.28429
3280.75895,0.28401
3278.83023,0.28368
3276.90151,0.28335
3274.97278,0.28308
3273.04406,0.28265
3271.11534,0.28203
3269.18661,0.28142
3267.25789,0.28082
3265.32917,0.28019
3263.40044,0.27965
3261.47172,0.27924
3259.54299,0.27881
3257.61427,0.27833
3255.68555,0.27788
3253.75682,0.27747
3251.82810,0.27691
3249.89938,0.27625
3247.97065,0.27566
3246.04193,0.27519
3244.11320,0.27472
3242.18448,0.27417
3240.25576,0.27360
3238.32703,0.27308
3236.39831,0.27257
3234.46959,0.27207
3232.54086,0.27155
3230.61214,0.27102
3228.68342,0.27045
3226.75469,0.26973
3224.82597,0.26884
3222.89724,0.26797
3220.96852,0.26726
3219.03980,0.26669
3217.11107,0.26601
3215.18235,0.26516
3213.25363,0.26444
3211.32490,0.26384
3209.39618,0.26315
3207.46746,0.26243
3205.53873,0.26186
3203.61001,0.26134
3201.68128,0.26059
3199.75256,0.25965
3197.82384,0.25867
3195.89511,0.25775
3193.96639,0.25687
3192.03767,0.25602
3190.10894,0.25520
3188.18022,0.25445
3186.25149,0.25371
3184.32277,0.25288
3182.39405,0.25194
3180.46532,0.25097
3178.53660,0.25011
3176.60788,0.24941
3174.67915,0.24871
3172.75043,0.24789
3170.82171,0.24683
3168.89298,0.24556
3166.96426,0.24432
3165.03553,0.24335
3163.10681,0.24259
3161.17809,0.24179
3159.24936,0.24091
3157.32064,0.24002
3155.39192,0.23908
3153.46319,0.23809
3151.53447,0.23716
3149.60575,0.23626
3147.67702,0.23536
3145.74830,0.23448
3143.81957,0.23354
3141.89085,0.23252
3139.96213,0.23154
3138.03340,0.23059
3136.10468,0.22962
3134.17596,0.22867
3132.24723,0.22773
3130.31851,0.22674
3128.38978,0.22572
3126.46106,0.22475
3124.53234,0.22385
3122.60361,0.22299
3120.67489,0.22215
3118.74617,0.22131
3116.81744,0.22037
3114.88872,0.21929
3112.96000,0.21826
3111.03127,0.21740
3109.10255,0.21641
3107.17382,0.21520
3105.24510,0.21401
3103.31638,0.21293
3101.38765,0.21189
3099.45893,0.21085
3097.53021,0.20975
3095.60148,0.20866
3093.67276,0.20775
3091.74404,0.20685
3089.81531,0.20575
3087.88659,0.20453
3085.95786,0.20333
3084.02914,0.20214
3082.10042,0.20105
3080.17169,0.20008
3078.24297,0.19903
3076.31425,0.19787
3074.38552,0.19676
3072.45680,0.19574
3070.52807,0.19469
3068.59935,0.19357
3066.67063,0.19244
3064.74190,0.19133
3062.81318,0.19018
3060.88446,0.18901
3058.95573,0.18778
3057.02701,0.18655
3055.09829,0.18542
3053.16956,0.18446
3051.24084,0.18357
3049.31211,0.18265
3047.38339,0.18159
3045.45467,0.18046
3043.52594,0.17938
3041.59722,0.17832
3039.66850,0.17713
3037.73977,0.17589
3035.81105,0.17482
3033.88233,0.17390
3031.95360,0.17301
3030.02488,0.17209
3028.09615,0.17113
3026.16743,0.17021
3024.23871,0.16933
3022.30998,0.16853
3020.38126,0.16779
3018.45254,0.16699
3016.52381,0.16611
3014.59509,0.16530
3012.66636,0.16453
3010.73764,0.16368
3008.80892,0.16279
3006.88019,0.16199
3004.95147,0.16123
3003.02275,0.16036
3001.09402,0.15945
2999.16530,0.15865
2997.23658,0.15794
2995.30785,0.15729
2993.37913,0.15681
2991.45040,0.15645
2989.52168,0.15609
2987.59296,0.15562
2985.66423,0.15515
2983.73551,0.15482
2981.80679,0.15458
2979.87806,0.15434
2977.94934,0.15415
2976.02062,0.15399
2974.09189,0.15375
2972.16317,0.15352
2970.23444,0.15350
2968.30572,0.15360
2966.37700,0.15362
2964.44827,0.15353
2962.51955,0.15344
2960.59083,0.15336
2958.66210,0.15321
2956.73338,0.15298
2954.80466,0.15271
2952.87593,0.15236
2950.94721,0.15193
2949.01848,0.15153
2947.08976,0.15131
2945.16104,0.15136
2943.23231,0.15163
2941.30359,0.15209
2939.37487,0.15279
2937.44614,0.15351
2935.51742,0.15411
2933.58869,0.15474
2931.65997,0.15538
2929.73125,0.15580
2927.80252,0.15589
2925.87380,0.15564
2923.94508,0.15492
2922.01635,0.15364
2920.08763,0.15187
2918.15891,0.14968
2916.23018,0.14710
2914.30146,0.14444
2912.37273,0.14196
2910.44401,0.13972
2908.51529,0.13760
2906.58656,0.13551
2904.65784,0.13358
2902.72912,0.13199
2900.80039,0.13067
2898.87167,0.12933
2896.94295,0.12782
2895.01422,0.12629
2893.08550,0.12486
2891.15677,0.12348
2889.22805,0.12210
2887.29933,0.12080
2885.37060,0.11969
2883.44188,0.11873
2881.51316,0.11786
2879.58443,0.11704
2877.65571,0.11633
2875.72698,0.11574
2873.79826,0.11516
2871.86954,0.11446
2869.94081,0.11365
2868.01209,0.11281
2866.08337,0.11212
2864.15464,0.11176
2862.22592,0.11173
2860.29720,0.11196
2858.36847,0.11236
2856.43975,0.11285
2854.51102,0.11320
2852.58230,0.11300
2850.65358,0.11169
2848.72485,0.10914
2846.79613,0.10587
2844.86741,0.10261
2842.93868,0.09974
2841.00996,0.09726
2839.08124,0.09511
2837.15251,0.09334
2835.22379,0.09180
2833.29506,0.09030
2831.36634,0.08888
2829.43762,0.08768
2827.50889,0.08667
2825.58017,0.08565
2823.65145,0.08459
2821.72272,0.08363
2819.79400,0.08280
2817.86527,0.08201
2815.93655,0.08117
2814.00783,0.08023
2812.07910,0.07930
2810.15038,0.07856
2808.22166,0.07795
2806.29293,0.07725
2804.36421,0.07642
2802.43549,0.07557
2800.50676,0.07474
2798.57804,0.07393
2796.64931,0.07319
2794.72059,0.07252
2792.79187,0.07187
2790.86314,0.07119
2788.93442,0.07044
2787.00570,0.06970
2785.07697,0.06904
2783.14825,0.06837
2781.21953,0.06767
2779.29080,0.06702
2777.36208,0.06643
2775.43335,0.06583
2773.50463,0.06518
2771.57591,0.06453
2769.64718,0.06386
2767.71846,0.06316
2765.78974,0.06248
2763.86101,0.06180
2761.93229,0.06112
2760.00356,0.06052
2758.07484,0.06001
2756.14612,0.05954
2754.21739,0.05904
2752.28867,0.05844
2750.35995,0.05783
2748.43122,0.05729
2746.50250,0.05672
2744.57378,0.05608
2742.64505,0.05547
2740.71633,0.05488
2738.78760,0.05433
2736.85888,0.05389
2734.93016,0.05350
2733.00143,0.05302
2731.07271,0.05241
2729.14399,0.05176
2727.21526,0.05120
2725.28654,0.05064
2723.35782,0.05008
2721.42909,0.04961
2719.50037,0.04914
2717.57164,0.04858
2715.64292,0.04799
2713.71420,0.04747
2711.78547,0.04699
2709.85675,0.04647
2707.92803,0.04588
2705.99930,0.04537
2704.07058,0.04492
2702.14185,0.04445
2700.21313,0.04398
2698.28441,0.04349
2696.35568,0.04291
2694.42696,0.04230
2692.49824,0.04181
2690.56951,0.04144
2688.64079,0.04106
2686.71207,0.04065
2684.78334,0.04024
2682.85462,0.03981
2680.92589,0.03931
2678.99717,0.03883
2677.06845,0.03838
2675.13972,0.03788
2673.21100,0.03737
2671.28228,0.03691
2669.35355,0.03648
2667.42483,0.03603
2665.49611,0.03559
2663.56738,0.03523
2661.63866,0.03490
2659.70993,0.03446
2657.78121,0.03397
2655.85249,0.03356
2653.92376,0.03318
2651.99504,0.03280
2650.06632,0.03241
2648.13759,0.03198
2646.20887,0.03159
2644.28014,0.03126
2642.35142,0.03090
2640.42270,0.03051
2638.49397,0.03011
2636.56525,0.02964
2634.63653,0.02912
2632.70780,0.02871
2630.77908,0.02842
2628.85036,0.02814
2626.92163,0.02777
2624.99291,0.02731
2623.06418,0.02683
2621.13546,0.02649
2619.20674,0.02627
2617.27801,0.02595
2615.34929,0.02551
2613.42057,0.02515
2611.49184,0.02485
2609.56312,0.02451
2607.63440,0.02417
2605.70567,0.02387
2603.77695,0.02359
2601.84822,0.02326
2599.91950,0.02288
2597.99078,0.02249
2596.06205,0.02216
2594.13333,0.02189
2592.20461,0.02163
2590.27588,0.02135
2588.34716,0.02104
2586.41843,0.02074
2584.48971,0.02047
2582.56099,0.02022
2580.63226,0.01994
2578.70354,0.01965
2576.77482,0.01940
2574.84609,0.01917
2572.91737,0.01893
2570.98865,0.01868
2569.05992,0.01842
2567.13120,0.01813
2565.20247,0.01783
2563.27375,0.01757
2561.34503,0.01735
2559.41630,0.01712
2557.48758,0.01686
2555.55886,0.01658
2553.63013,0.01633
2551.70141,0.01615
2549.77269,0.01601
2547.84396,0.01585
2545.91524,0.01562
2543.98651,0.01534
2542.05779,0.01508
2540.12907,0.01487
2538.20034,0.01471
2536.27162,0.01453
2534.34290,0.01433
2532.41417,0.01415
2530.48545,0.01395
2528.55673,0.01373
2526.62800,0.01352
2524.69928,0.01330
2522.77055,0.01311
2520.84183,0.01297
2518.91311,0.01282
2516.98438,0.01264
2515.05566,0.01248
2513.12694,0.01230
2511.19821,0.01208
2509.26949,0.01185
2507.34076,0.01168
2505.41204,0.01154
2503.48332,0.01137
2501.55459,0.01117
2499.62587,0.01097
2497.69715,0.01078
2495.76842,0.01062
2493.83970,0.01051
2491.91098,0.01039
2489.98225,0.01023
2488.05353,0.01007
2486.12480,0.00993
2484.19608,0.00984
2482.26736,0.00978
2480.33863,0.00962
2478.40991,0.00936
2476.48119,0.00910
2474.55246,0.00891
2472.62374,0.00873
2470.69502,0.00847
2468.76629,0.00821
2466.83757,0.00804
2464.90884,0.00794
2462.98012,0.00783
2461.05140,0.00768
2459.12267,0.00745
2457.19395,0.00723
2455.26523,0.00713
2453.33650,0.00708
2451.40778,0.00699
2449.47905,0.00687
2447.55033,0.00676
2445.62161,0.00665
2443.69288,0.00651
2441.76416,0.00631
2439.83544,0.00611
2437.90671,0.00595
2435.97799,0.00584
2434.04927,0.00574
2432.12054,0.00563
2430.19182,0.00551
2428.26309,0.00537
2426.33437,0.00523
2424.40565,0.00509
2422.47692,0.00490
2420.54820,0.00469
2418.61948,0.00453
2416.69075,0.00438
2414.76203,0.00422
2412.83331,0.00408
2410.90458,0.00400
2408.97586,0.00396
2407.04713,0.00394
2405.11841,0.00393
2403.18969,0.00384
2401.26096,0.00365
2399.33224,0.00348
2397.40352,0.00338
2395.47479,0.00329
2393.54607,0.00316
2391.61734,0.00306
2389.68862,0.00298
2387.75990,0.00287
2385.83117,0.00277
2383.90245,0.00273
2381.97373,0.00278
2380.04500,0.00281
2378.11628,0.00274
2376.18756,0.00257
2374.25883,0.00236
2372.33011,0.00221
2370.40138,0.00217
2368.47266,0.00228
2366.54394,0.00257
2364.61521,0.00285
2362.68649,0.00296
2360.75777,0.00295
2358.82904,0.00282
2356.90032,0.00261
2354.97160,0.00251
2353.04287,0.00283
2351.11415,0.00340
2349.18542,0.00343
2347.25670,0.00260
2345.32798,0.00173
2343.39925,0.00156
2341.47053,0.00179
2339.54181,0.00198
2337.61308,0.00204
2335.68436,0.00198
2333.75563,0.00190
2331.82691,0.00186
2329.89819,0.00182
2327.96946,0.00177
2326.04074,0.00172
2324.11202,0.00168
2322.18329,0.00163
2320.25457,0.00161
2318.32585,0.00167
2316.39712,0.00176
2314.46840,0.00177
2312.53967,0.00165
2310.61095,0.00148
2308.68223,0.00133
2306.75350,0.00124
2304.82478,0.00117
2302.89606,0.00112
2300.96733,0.00105
2299.03861,0.00093
2297.10989,0.00080
2295.18116,0.00069
2293.25244,0.00060
2291.32371,0.00050
2289.39499,0.00046
2287.46627,0.00055
2285.53754,0.00066
2283.60882,0.00064
2281.68010,0.00051
2279.75137,0.00042
2277.82265,0.00040
2275.89392,0.00037
2273.96520,0.00031
2272.03648,0.00028
2270.10775,0.00028
2268.17903,0.00029
2266.25031,0.00031
2264.32158,0.00036
2262.39286,0.00041
2260.46414,0.00044
2258.53541,0.00040
2256.60669,0.00029
2254.67796,0.00013
2252.74924,0.00000
2250.82052,-0.00001
2248.89179,0.00010
2246.96307,0.00009
2245.03435,0.00008
2243.10562,0.00010
2241.17690,0.00007
2239.24818,0.00004
2237.31945,0.00011
2235.39073,0.00018
2233.46200,0.00012
2231.53328,-0.00003
2229.60456,-0.00009
2227.67583,-0.00011
2225.74711,-0.00016
2223.81839,-0.00023
2221.88966,-0.00022
2219.96094,-0.00017
2218.03221,-0.00015
2216.10349,-0.00015
2214.17477,-0.00008
2212.24604,0.00003
2210.31732,0.00008
2208.38860,0.00005
2206.45987,0.00000
2204.53115,-0.00003
2202.60243,-0.00002
2200.67370,-0.00005
2198.74498,-0.00007
2196.81625,-0.00002
2194.88753,0.00007
2192.95881,0.00009
2191.03008,0.00007
2189.10136,0.00004
2187.17264,-0.00001
2185.24391,-0.00006
2183.31519,-0.00008
2181.38647,-0.00010
2179.45774,-0.00010
2177.52902,-0.00008
2175.60029,-0.00010
2173.67157,-0.00015
2171.74285,-0.00016
2169.81412,-0.00004
2167.88540,0.00013
2165.95668,0.00018
2164.02795,0.00007
2162.09923,0.00001
2160.17050,0.00006
2158.24178,0.00013
2156.31306,0.00018
2154.38433,0.00021
2152.45561,0.00025
2150.52689,0.00027
2148.59816,0.00025
2146.66944,0.00022
2144.74072,0.00018
2142.81199,0.00018
2140.88327,0.00023
2138.95454,0.00027
2137.02582,0.00027
2135.09710,0.00022
2133.16837,0.00014
2131.23965,0.00013
2129.31093,0.00018
2127.38220,0.00023
2125.45348,0.00028
2123.52476,0.00032
2121.59603,0.00032
2119.66731,0.00027
2117.73858,0.00022
2115.80986,0.00022
2113.88114,0.00022
2111.95241,0.00022
2110.02369,0.00024
2108.09497,0.00022
2106.16624,0.00017
2104.23752,0.00017
2102.30880,0.00021
2100.38007,0.00025
2098.45135,0.00024
2096.52262,0.00018
2094.59390,0.00007
2092.66518,0.00000
2090.73645,-0.00004
2088.80773,-0.00004
2086.87901,-0.00004
2084.95028,-0.00006
2083.02156,-0.00006
2081.09283,-0.00007
2079.16411,-0.00010
2077.23539,-0.00014
2075.30666,-0.00013
2073.37794,-0.00011
2071.44922,-0.00008
2069.52049,-0.00009
2067.59177,-0.00015
2065.66305,-0.00019
2063.73432,-0.00013
2061.80560,-0.00002
2059.87687,0.00006
2057.94815,0.00012
2056.01943,0.00021
2054.09070,0.00030
2052.16198,0.00041
2050.23326,0.00054
2048.30453,0.00067
2046.37581,0.00080
2044.44709,0.00094
2042.51836,0.00107
2040.58964,0.00121
2038.66091,0.00140
2036.73219,0.00161
2034.80347,0.00177
2032.87474,0.00189
2030.94602,0.00209
2029.01730,0.00231
2027.08857,0.00246
2025.15985,0.00256
2023.23112,0.00265
2021.30240,0.00274
2019.37368,0.00286
2017.44495,0.00303
2015.51623,0.00320
2013.58751,0.00334
2011.65878,0.00344
2009.73006,0.00353
2007.80134,0.00360
2005.87261,0.00365
2003.94389,0.00366
2002.01516,0.00361
2000.08644,0.00358
1998.15772,0.00362
1996.22899,0.00366
1994.30027,0.00368
1992.37155,0.00374
1990.44282,0.00378
1988.51410,0.00370
1986.58538,0.00358
1984.65665,0.00349
1982.72793,0.00341
1980.79920,0.00329
1978.87048,0.00319
1976.94176,0.00318
1975.01303,0.00316
1973.08431,0.00303
1971.15559,0.00281
1969.22686,0.00260
1967.29814,0.00248
1965.36941,0.00238
1963.44069,0.00219
1961.51197,0.00194
1959.58324,0.00169
1957.65452,0.00149
1955.72580,0.00137
1953.79707,0.00124
1951.86835,0.00108
1949.93963,0.00094
1948.01090,0.00082
1946.08218,0.00067
1944.15345,0.00055
1942.22473,0.00056
1940.29601,0.00058
1938.36728,0.00047
1936.43856,0.00031
1934.50984,0.00021
1932.58111,0.00014
1930.65239,0.00007
1928.72367,0.00000
1926.79494,0.00000
1924.86622,0.00008
1922.93749,0.00022
1921.00877,0.00032
1919.08005,0.00042
1917.15132,0.00065
1915.22260,0.00085
1913.29388,0.00097
1911.36515,0.00120
1909.43643,0.00163
1907.50770,0.00208
1905.57898,0.00244
1903.65026,0.00279
1901.72153,0.00318
1899.79281,0.00360
1897.86409,0.00405
1895.93536,0.00455
1894.00664,0.00500
1892.07792,0.00538
1890.14919,0.00582
1888.22047,0.00626
1886.29174,0.00651
1884.36302,0.00668
1882.43430,0.00690
1880.50557,0.00710
1878.57685,0.00723
1876.64813,0.00729
1874.71940,0.00725
1872.79068,0.00712
1870.86196,0.00705
1868.93323,0.00715
1867.00451,0.00722
1865.07578,0.00699
1863.14706,0.00655
1861.21834,0.00610
1859.28961,0.00569
1857.36089,0.00533
1855.43217,0.00495
1853.50344,0.00453
1851.57472,0.00406
1849.64599,0.00356
1847.71727,0.00306
1845.78855,0.00268
1843.85982,0.00243
1841.93110,0.00212
1840.00238,0.00169
1838.07365,0.00132
1836.14493,0.00101
1834.21621,0.00067
1832.28748,0.00041
1830.35876,0.00037
1828.43003,0.00039
1826.50131,0.00031
1824.57259,0.00023
1822.64386,0.00015
1820.71514,0.00000
1818.78642,-0.00011
1816.85769,-0.00009
1814.92897,0.00000
1813.00025,0.00001
1811.07152,0.00011
1809.14280,0.00022
1807.21407,0.00021
1805.28535,0.00014
1803.35663,0.00019
1801.42790,0.00048
1799.49918,0.00089
1797.57046,0.00118
1795.64173,0.00140
1793.71301,0.00184
1791.78428,0.00261
1789.85556,0.00326
1787.92684,0.00360
1785.99811,0.00398
1784.06939,0.00459
1782.14067,0.00538
1780.21194,0.00622
1778.28322,0.00695
1776.35450,0.00747
1774.42577,0.00807
1772.49705,0.00904
1770.56832,0.01014
1768.63960,0.01101
1766.71088,0.01167
1764.78215,0.01224
1762.85343,0.01299
1760.92471,0.01401
1758.99598,0.01500
1757.06726,0.01587
1755.13854,0.01663
1753.20981,0.01731
1751.28109,0.01836
1749.35236,0.01998
1747.42364,0.02165
1745.49492,0.02304
1743.56619,0.02432
1741.63747,0.02572
1739.70875,0.02731
1737.78002,0.02872
1735.85130,0.03018
1733.92257,0.03246
1731.99385,0.03500
1730.06513,0.03682
1728.13640,0.03824
1726.20768,0.03968
1724.27896,0.04120
1722.35023,0.04260
1720.42151,0.04387
1718.49279,0.04581
1716.56406,0.04869
1714.63534,0.05135
1712.70661,0.05323
1710.77789,0.05482
1708.84917,0.05662
1706.92044,0.05901
1704.99172,0.06173
1703.06300,0.06426
1701.13427,0.06724
1699.20555,0.07128
1697.27683,0.07550
1695.34810,0.07954
1693.41938,0.08299
1691.49065,0.08589
1689.56193,0.08887
1687.63321,0.09194
1685.70448,0.09582
1683.77576,0.10122
1681.84704,0.10597
1679.91831,0.10888
1677.98959,0.11139
1676.06087,0.11476
1674.13214,0.11863
1672.20342,0.12208
1670.27469,0.12559
1668.34597,0.12929
1666.41725,0.13212
1664.48852,0.13449
1662.55980,0.13733
1660.63108,0.14004
1658.70235,0.14173
1656.77363,0.14257
1654.84490,0.14380
1652.91618,0.14649
1650.98746,0.14896
1649.05873,0.15022
1647.13001,0.15150
1645.20129,0.15284
1643.27256,0.15338
1641.34384,0.15339
1639.41512,0.15338
1637.48639,0.15364
1635.55767,0.15418
1633.62894,0.15442
1631.70022,0.15401
1629.77150,0.15321
1627.84277,0.15214
1625.91405,0.15063
1623.98533,0.14867
1622.05660,0.14648
1620.12788,0.14421
1618.19916,0.14174
1616.27043,0.13897
1614.34171,0.13617
1612.41298,0.13343
1610.48426,0.13063
1608.55554,0.12771
1606.62681,0.12477
1604.69809,0.12185
1602.76937,0.11898
1600.84064,0.11623
1598.91192,0.11368
1596.98319,0.11133
1595.05447,0.10908
1593.12575,0.10689
1591.19702,0.10473
1589.26830,0.10266
1587.33958,0.10072
1585.41085,0.09891
1583.48213,0.09717
1581.55341,0.09546
1579.62468,0.09378
1577.69596,0.09224
1575.76723,0.09097
1573.83851,0.08983
1571.90979,0.08870
1569.98106,0.08771
1568.05234,0.08692
1566.12362,0.08618
1564.19489,0.08533
1562.26617,0.08438
1560.33745,0.08361
1558.40872,0.08329
1556.48000,0.08277
1554.55127,0.08188
1552.62255,0.08097
1550.69383,0.08014
1548.76510,0.07929
1546.83638,0.07829
1544.90766,0.07712
1542.97893,0.07576
1541.05021,0.07425
1539.12148,0.07278
1537.19276,0.07144
1535.26404,0.07005
1533.33531,0.06841
1531.40659,0.06655
1529.47787,0.06458
1527.54914,0.06256
1525.62042,0.06055
1523.69170,0.05862
1521.76297,0.05676
1519.83425,0.05488
1517.90552,0.05289
1515.97680,0.05072
1514.04808,0.04849
1512.11935,0.04625
1510.19063,0.04395
1508.26191,0.04142
1506.33318,0.03863
1504.40446,0.03614
1502.47574,0.03403
1500.54701,0.03196
1498.61829,0.02991
1496.68956,0.02799
1494.76084,0.02631
1492.83212,0.02492
1490.90339,0.02394
1488.97467,0.02346
1487.04595,0.02331
1485.11722,0.02329
1483.18850,0.02342
1481.25977,0.02382
1479.33105,0.02447
1477.40233,0.02542
1475.47360,0.02709
1473.54488,0.02988
1471.61616,0.03320
1469.68743,0.03567
1467.75871,0.03727
1465.82999,0.03877
1463.90126,0.04012
1461.97254,0.04075
1460.04381,0.04105
1458.11509,0.04206
1456.18637,0.04362
1454.25764,0.04438
1452.32892,0.04429
1450.40020,0.04412
1448.47147,0.04426
1446.54275,0.04464
1444.61403,0.04511
1442.68530,0.04557
1440.75658,0.04601
1438.82785,0.04656
1436.89913,0.04745
1434.97041,0.04834
1433.04168,0.04889
1431.11296,0.04951
1429.18424,0.05037
1427.25551,0.05105
1425.32679,0.05156
1423.39806,0.05212
1421.46934,0.05273
1419.54062,0.05355
1417.61189,0.05463
1415.68317,0.05551
1413.75445,0.05614
1411.82572,0.05679
1409.89700,0.05749
1407.96828,0.05822
1406.03955,0.05904
1404.11083,0.05980
1402.18210,0.06010
1400.25338,0.05969
1398.32466,0.05860
1396.39593,0.05698
1394.46721,0.05510
1392.53849,0.05323
1390.60976,0.05152
1388.68104,0.05000
1386.75232,0.04875
1384.82359,0.04767
1382.89487,0.04659
1380.96614,0.04548
1379.03742,0.04439
1377.10870,0.04327
1375.17997,0.04205
1373.25125,0.04072
1371.32253,0.03936
1369.39380,0.03805
1367.46508,0.03681
1365.53635,0.03568
1363.60763,0.03468
1361.67891,0.03377
1359.75018,0.03285
1357.82146,0.03193
1355.89274,0.03111
1353.96401,0.03042
1352.03529,0.02984
1350.10657,0.02938
1348.17784,0.02900
1346.24912,0.02866
1344.32039,0.02829
1342.39167,0.02796
1340.46295,0.02781
1338.53422,0.02782
1336.60550,0.02784
1334.67678,0.02772
1332.74805,0.02751
1330.81933,0.02737
1328.89061,0.02740
1326.96188,0.02762
1325.03316,0.02796
1323.10443,0.02837
1321.17571,0.02888
1319.24699,0.02966
1317.31826,0.03074
1315.38954,0.03201
1313.46082,0.03343
1311.53209,0.03501
1309.60337,0.03674
1307.67464,0.03887
1305.74592,0.04195
1303.81720,0.04616
1301.88847,0.05019
1299.95975,0.05239
1298.03103,0.05328
1296.10230,0.05448
1294.17358,0.05616
1292.24486,0.05743
1290.31613,0.05792
1288.38741,0.05797
1286.45868,0.05807
1284.52996,0.05842
1282.60124,0.05905
1280.67251,0.06015
1278.74379,0.06194
1276.81507,0.06448
1274.88634,0.06779
1272.95762,0.07184
1271.02890,0.07648
1269.10017,0.08164
1267.17145,0.08752
1265.24272,0.09431
1263.31400,0.10203
1261.38528,0.11073
1259.45655,0.12053
1257.52783,0.13129
1255.59911,0.14270
1253.67038,0.15457
1251.74166,0.16667
1249.81294,0.17863
1247.88421,0.19003
1245.95549,0.20067
1244.02676,0.21061
1242.09804,0.21975
1240.16932,0.22796
1238.24059,0.23545
1236.31187,0.24240
1234.38315,0.24879
1232.45442,0.25450
1230.52570,0.25962
1228.59697,0.26442
1226.66825,0.26892
1224.73953,0.27303
1222.81080,0.27682
1220.88208,0.28033
1218.95336,0.28355
1217.02463,0.28659
1215.09591,0.28958
1213.16719,0.29258
1211.23846,0.29555
1209.30974,0.29843
1207.38101,0.30138
1205.45229,0.30451
1203.52357,0.30771
1201.59484,0.31123
1199.66612,0.31547
1197.73740,0.32060
1195.80867,0.32654
1193.87995,0.33268
1191.95123,0.33768
1190.02250,0.34073
1188.09378,0.34287
1186.16505,0.34527
1184.23633,0.34733
1182.30761,0.34803
1180.37888,0.34785
1178.45016,0.34758
1176.52144,0.34741
1174.59271,0.34734
1172.66399,0.34752
1170.73526,0.34807
1168.80654,0.34875
1166.87782,0.34932
1164.94909,0.34993
1163.02037,0.35101
1161.09165,0.35263
1159.16292,0.35431
1157.23420,0.35587
1155.30548,0.35771
1153.37675,0.35974
1151.44803,0.36151
1149.51930,0.36301
1147.59058,0.36438
1145.66186,0.36594
1143.73313,0.36809
1141.80441,0.37076
1139.87569,0.37354
1137.94696,0.37609
1136.01824,0.37838
1134.08952,0.38062
1132.16079,0.38315
1130.23207,0.38625
1128.30334,0.38973
1126.37462,0.39340
1124.44590,0.39775
1122.51717,0.40290
1120.58845,0.40840
1118.65973,0.41440
1116.73100,0.42144
1114.80228,0.42916
1112.87355,0.43683
1110.94483,0.44425
1109.01611,0.45212
1107.08738,0.46095
1105.15866,0.46950
1103.22994,0.47641
1101.30121,0.48221
1099.37249,0.48746
1097.44377,0.49153
1095.51504,0.49411
1093.58632,0.49528
1091.65759,0.49543
1089.72887,0.49519
1087.80015,0.49427
1085.87142,0.49234
1083.94270,0.48978
1082.01398,0.48708
1080.08525,0.48452
1078.15653,0.48184
1076.22781,0.47852
1074.29908,0.47466
1072.37036,0.47094
1070.44163,0.46729
1068.51291,0.46267
1066.58419,0.45684
1064.65546,0.45070
1062.72674,0.44459
1060.79802,0.43807
1058.86929,0.43141
1056.94057,0.42491
1055.01184,0.41792
1053.08312,0.40995
1051.15440,0.40156
1049.22567,0.39374
1047.29695,0.38641
1045.36823,0.37867
1043.43950,0.37060
1041.51078,0.36324
1039.58206,0.35650
1037.65333,0.34926
1035.72461,0.34122
1033.79588,0.33314
1031.86716,0.32545
1029.93844,0.31785
1028.00971,0.31031
1026.08099,0.30325
1024.15227,0.29673
1022.22354,0.29053
1020.29482,0.28453
1018.36610,0.27882
1016.43737,0.27364
1014.50865,0.26899
1012.57992,0.26460
1010.65120,0.26018
1008.72248,0.25566
1006.79375,0.25117
1004.86503,0.24702
1002.93631,0.24334
1001.00758,0.23984
999.07886,0.23631
997.15013,0.23308
995.22141,0.23047
993.29269,0.22809
991.36396,0.22546
989.43524,0.22269
987.50652,0.22030
985.57779,0.21841
983.64907,0.21658
981.72035,0.21485
979.79162,0.21375
977.86290,0.21320
975.93417,0.21292
974.00545,0.21276
972.07673,0.21234
970.14800,0.21147
968.21928,0.21055
966.29056,0.21015
964.36183,0.21019
962.43311,0.20994
960.50439,0.20913
958.57566,0.20815
956.64694,0.20734
954.71821,0.20662
952.78949,0.20551
950.86077,0.20397
948.93204,0.20244
947.00332,0.20091
945.07460,0.19904
943.14587,0.19670
941.21715,0.19405
939.28842,0.19138
937.35970,0.18884
935.43098,0.18642
933.50225,0.18400
931.57353,0.18128
929.64481,0.17810
927.71608,0.17476
925.78736,0.17134
923.85864,0.16774
921.92991,0.16417
920.00119,0.16066
918.07246,0.15698
916.14374,0.15316
914.21502,0.14931
912.28629,0.14532
910.35757,0.14126
908.42885,0.13729
906.50012,0.13339
904.57140,0.12950
902.64268,0.12567
900.71395,0.12193
898.78523,0.11834
896.85650,0.11496
894.92778,0.11169
892.99906,0.10841
891.07033,0.10512
889.14161,0.10170
887.21289,0.09825
885.28416,0.09530
883.35544,0.09300
881.42671,0.09074
879.49799,0.08819
877.56927,0.08579
875.64054,0.08371
873.71182,0.08152
871.78310,0.07918
869.85437,0.07692
867.92565,0.07481
865.99693,0.07292
864.06820,0.07127
862.13948,0.06972
860.21075,0.06836
858.28203,0.06725
856.35331,0.06617
854.42458,0.06521
852.49586,0.06475
850.56714,0.06459
848.63841,0.06441
846.70969,0.06460
844.78097,0.06566
842.85224,0.06741
840.92352,0.06950
838.99479,0.07177
837.06607,0.07403
835.13735,0.07647
833.20862,0.07932
831.27990,0.08238
829.35118,0.08537
827.42245,0.08850
825.49373,0.09198
823.56501,0.09539
821.63628,0.09832
819.70756,0.10122
817.77883,0.10445
815.85011,0.10749
813.92139,0.11007
811.99266,0.11258
810.06394,0.11531
808.13522,0.11830
806.20649,0.12110
804.27777,0.12315
802.34904,0.12466
800.42032,0.12588
798.49160,0.12653
796.56287,0.12651
794.63415,0.12579
792.70543,0.12435
790.77670,0.12236
788.84798,0.11997
786.91926,0.11747
784.99053,0.11497
783.06181,0.11235
781.13308,0.10952
779.20436,0.10629
777.27564,0.10247
775.34691,0.09831
773.41819,0.09442
771.48947,0.09143
769.56074,0.08928
767.63202,0.08749
765.70330,0.08604
763.77457,0.08513
761.84585,0.08457
759.91712,0.08410
757.98840,0.08371
756.05968,0.08339
754.13095,0.08307
752.20223,0.08259
750.27351,0.08218
748.34478,0.08209
746.41606,0.08212
744.48733,0.08224
742.55861,0.08244
740.62989,0.08249
738.70116,0.08228
736.77244,0.08191
734.84372,0.08186
732.91499,0.08237
730.98627,0.08302
729.05755,0.08348
727.12882,0.08384
725.20010,0.08431
723.27137,0.08488
721.34265,0.08493
719.41393,0.08478
717.48520,0.08487
715.55648,0.08536
713.62776,0.08616
711.69903,0.08692
709.77031,0.08774
707.84159,0.08899
705.91286,0.09045
703.98414,0.09176
702.05541,0.09290
700.12669,0.09397
698.19797,0.09499
696.26924,0.09584
694.34052,0.09637
692.41180,0.09668
690.48307,0.09702
688.55435,0.09741
686.62562,0.09778
684.69690,0.09820
682.76818,0.09877
680.83945,0.09959
678.91073,0.10049
676.98201,0.10133
675.05328,0.10232
673.12456,0.10331
671.19584,0.10313
669.26711,0.10202
667.33839,0.10266
665.40966,0.10470
663.48094,0.10552
661.55222,0.10559
659.62349,0.10633
657.69477,0.10746
655.76605,0.10836
653.83732,0.10918
651.90860,0.11051
649.97988,0.11213
648.05115,0.11341
646.12243,0.11432
644.19370,0.11530
642.26498,0.11668
640.33626,0.11826
638.40753,0.11945
636.47881,0.12016
634.55009,0.12116
632.62136,0.12286
630.69264,0.12446
628.76391,0.12529
626.83519,0.12577
624.90647,0.12659
622.97774,0.12772
621.04902,0.12935
619.12030,0.13120
617.19157,0.13233
615.26285,0.13270
613.33413,0.13366
611.40540,0.13595
609.47668,0.13830
607.54795,0.13929
605.61923,0.13985
603.69051,0.14147
601.76178,0.14398
599.83306,0.14595
597.90434,0.14649
595.97561,0.14670
594.04689,0.14808
592.11817,0.15027
590.18944,0.15216
588.26072,0.15364
586.33199,0.15468
584.40327,0.15499
582.47455,0.15530
580.54582,0.15638
578.61710,0.15795
576.68838,0.15975
574.75965,0.16145
572.83093,0.16195
570.90220,0.16080
568.97348,0.15915
567.04476,0.15851
565.11603,0.15937
563.18731,0.16118
561.25859,0.16283
559.32986,0.16348
557.40114,0.16351
555.47242,0.16378
553.54369,0.16478
551.61497,0.16620
549.68624,0.16725
547.75752,0.16760
545.82880,0.16753
543.90007,0.16749
541.97135,0.16777
540.04263,0.16797
538.11390,0.16768
536.18518,0.16720
534.25646,0.16699
532.32773,0.16695
530.39901,0.16708
528.47028,0.16720
526.54156,0.16641
524.61284,0.16477
522.68411,0.16380
520.75539,0.16446
518.82667,0.16579
516.89794,0.16619
514.96922,0.16641
513.04049,0.16877
511.11177,0.17364
509.18305,0.17913
507.25432,0.18404
505.32560,0.18878
503.39688,0.19378
501.46815,0.19889
499.53943,0.20406
497.61071,0.20991
495.68198,0.21717
493.75326,0.22583
491.82453,0.23451
489.89581,0.24150
487.96709,0.24810
486.03836,0.25715
484.10964,0.26769
482.18092,0.27600
480.25219,0.28146
478.32347,0.28667
476.39475,0.29341
474.46602,0.30029
472.53730,0.30524
470.60857,0.30962
468.67985,0.31404
466.75113,0.31524
464.82240,0.31196
462.89368,0.30699
460.96496,0.30334
459.03623,0.30150
457.10751,0.29920
455.17878,0.29485
453.25006,0.28995
451.32134,0.28647
449.39261,0.28336
447.46389,0.27696
445.53517,0.26617
443.60644,0.25539
441.67772,0.24925
439.74900,0.24644
437.82027,0.24283
435.89155,0.23790
433.96282,0.23232
432.03410,0.22372
430.10538,0.21278
428.17665,0.20470
426.24793,0.20063
424.31921,0.19650
422.39048,0.18959
420.46176,0.18093
418.53304,0.17266
416.60431,0.16636
414.67559,0.16213
412.74686,0.15856
410.81814,0.15424
408.88942,0.15110
406.96069,0.15401
405.03197,0.16123
403.10325,0.16179
401.17452,0.14976
399.24580,0.13085
397.31708,0.11276
395.38835,0.10167
393.45963,0.10220
391.53090,0.10747
389.60218,0.10305
387.67346,0.08674
385.74473,0.07323
383.81601,0.07405
381.88729,0.08496
379.95856,0.10515
378.02984,0.14259
376.10111,0.18249
374.17239,0.17645
372.24367,0.11364
370.31494,0.04499
368.38622,0.00000
