3996.31543,0.00000
3994.38671,0.00006
3992.45799,0.00027
3990.52926,0.00056
3988.60054,0.00068
3986.67182,0.00071
3984.74309,0.00075
3982.81437,0.00074
3980.88564,0.00064
3978.95692,0.00056
3977.02820,0.00061
3975.09947,0.00067
3973.17075,0.00062
3971.24203,0.00051
3969.31330,0.00041
3967.38458,0.00039
3965.45586,0.00051
3963.52713,0.00074
3961.59841,0.00083
3959.66968,0.00078
3957.74096,0.00080
3955.81224,0.00080
3953.88351,0.00079
3951.95479,0.00097
3950.02607,0.00122
3948.09734,0.00117
3946.16862,0.00100
3944.23990,0.00117
3942.31117,0.00111
3940.38245,0.00061
3938.45372,0.00044
3936.52500,0.00070
3934.59628,0.00124
3932.66755,0.00161
3930.73883,0.00122
3928.81011,0.00067
3926.88138,0.00089
3924.95266,0.00133
3923.02393,0.00118
3921.09521,0.00122
3919.16649,0.00172
3917.23776,0.00178
3915.30904,0.00120
3913.38032,0.00083
3911.45159,0.00090
3909.52287,0.00101
3907.59415,0.00158
3905.66542,0.00263
3903.73670,0.00285
3901.80797,0.00205
3899.87925,0.00125
3897.95053,0.00032
3896.02180,0.00000
3894.09308,0.00111
3892.16436,0.00213
3890.23563,0.00137
3888.30691,0.00082
3886.37819,0.00160
3884.44946,0.00159
3882.52074,0.00161
3880.59201,0.00199
3878.66329,0.00106
3876.73457,0.00076
3874.80584,0.00171
3872.87712,0.00222
3870.94840,0.00244
3869.01967,0.00167
3867.09095,0.00105
3865.16222,0.00200
3863.23350,0.00215
3861.30478,0.00115
3859.37605,0.00069
3857.44733,0.00177
3855.51861,0.00429
3853.58988,0.00522
3851.66116,0.00222
3849.73244,0.00000
3847.80371,0.00028
3845.87499,0.00152
3843.94626,0.00238
3842.01754,0.00263
3840.08882,0.00306
3838.16009,0.00292
3836.23137,0.00166
3834.30265,0.00097
3832.37392,0.00123
3830.44520,0.00131
3828.51648,0.00148
3826.58775,0.00160
3824.65903,0.00158
3822.73030,0.00264
3820.80158,0.00274
3818.87286,0.00127
3816.94413,0.00137
3815.01541,0.00119
3813.08669,0.00017
3811.15796,0.00045
3809.22924,0.00188
3807.30052,0.00263
3805.37179,0.00179
3803.44307,0.00208
3801.51434,0.00284
3799.58562,0.00175
3797.65690,0.00149
3795.72817,0.00188
3793.79945,0.00183
3791.87073,0.00214
3789.94200,0.00253
3788.01328,0.00270
3786.08455,0.00288
3784.15583,0.00282
3782.22711,0.00301
3780.29838,0.00376
3778.36966,0.00355
3776.44094,0.00269
3774.51221,0.00266
3772.58349,0.00359
3770.65477,0.00460
3768.72604,0.00458
3766.79732,0.00435
3764.86859,0.00421
3762.93987,0.00425
3761.01115,0.00539
3759.08242,0.00628
3757.15370,0.00588
3755.22498,0.00605
3753.29625,0.00803
3751.36753,0.00965
3749.43881,0.00862
3747.51008,0.00783
3745.58136,0.00936
3743.65263,0.00937
3741.72391,0.00786
3739.79519,0.00846
3737.86646,0.01075
3735.93774,0.01258
3734.00902,0.01268
3732.08029,0.01216
3730.15157,0.01239
3728.22284,0.01424
3726.29412,0.01665
3724.36540,0.01808
3722.43667,0.01900
3720.50795,0.01988
3718.57923,0.02082
3716.65050,0.02213
3714.72178,0.02453
3712.79306,0.02772
3710.86433,0.02969
3708.93561,0.03032
3707.00688,0.03155
3705.07816,0.03423
3703.14944,0.03776
3701.22071,0.04044
3699.29199,0.04212
3697.36327,0.04426
3695.43454,0.04676
3693.50582,0.04960
3691.57710,0.05338
3689.64837,0.05714
3687.71965,0.05929
3685.79092,0.06099
3683.86220,0.06396
3681.93348,0.06778
3680.00475,0.07174
3678.07603,0.07636
3676.14731,0.08139
3674.21858,0.08410
3672.28986,0.08683
3670.36113,0.09162
3668.43241,0.09491
3666.50369,0.09710
3664.57496,0.10032
3662.64624,0.10390
3660.71752,0.10700
3658.78879,0.11017
3656.86007,0.11331
3654.93135,0.11523
3653.00262,0.11765
3651.07390,0.12209
3649.14517,0.12566
3647.21645,0.12668
3645.28773,0.12739
3643.35900,0.12947
3641.43028,0.13217
3639.50156,0.13449
3637.57283,0.13638
3635.64411,0.13814
3633.71539,0.13982
3631.78666,0.14217
3629.85794,0.14559
3627.92921,0.14703
3626.00049,0.14649
3624.07177,0.14722
3622.14304,0.14958
3620.21432,0.15221
3618.28560,0.15336
3616.35687,0.15363
3614.42815,0.15464
3612.49942,0.15569
3610.57070,0.15670
3608.64198,0.15826
3606.71325,0.15922
3604.78453,0.15964
3602.85581,0.16074
3600.92708,0.16214
3598.99836,0.16310
3597.06964,0.16410
3595.14091,0.16531
3593.21219,0.16612
3591.28346,0.16703
3589.35474,0.16899
3587.42602,0.17068
3585.49729,0.17084
3583.56857,0.17103
3581.63985,0.17199
3579.71112,0.17304
3577.78240,0.17390
3575.85368,0.17464
3573.92495,0.17516
3571.99623,0.17578
3570.06750,0.17727
3568.13878,0.17923
3566.21006,0.17989
3564.28133,0.17949
3562.35261,0.17981
3560.42389,0.18074
3558.49516,0.18148
3556.56644,0.18215
3554.63771,0.18306
3552.70899,0.18395
3550.78027,0.18438
3548.85154,0.18494
3546.92282,0.18597
3544.99410,0.18674
3543.06537,0.18702
3541.13665,0.18735
3539.20793,0.18813
3537.27920,0.18914
3535.35048,0.18976
3533.42175,0.19002
3531.49303,0.19052
3529.56431,0.19127
3527.63558,0.19186
3525.70686,0.19232
3523.77814,0.19290
3521.84941,0.19341
3519.92069,0.19398
3517.99197,0.19469
3516.06324,0.19531
3514.13452,0.19587
3512.20579,0.19645
3510.27707,0.19691
3508.34835,0.19711
3506.41962,0.19753
3504.49090,0.19849
3502.56218,0.19922
3500.63345,0.19951
3498.70473,0.19996
3496.77600,0.20056
3494.84728,0.20089
3492.91856,0.20107
3490.98983,0.20145
3489.06111,0.20201
3487.13239,0.20239
3485.20366,0.20267
3483.27494,0.20327
3481.34622,0.20380
3479.41749,0.20400
3477.48877,0.20429
3475.56004,0.20474
3473.63132,0.20505
3471.70260,0.20527
3469.77387,0.20558
3467.84515,0.20593
3465.91643,0.20620
3463.98770,0.20661
3462.05898,0.20713
3460.13026,0.20736
3458.20153,0.20731
3456.27281,0.20730
3454.34408,0.20753
3452.41536,0.20794
3450.48664,0.20840
3448.55791,0.20891
3446.62919,0.20913
3444.70047,0.20911
3442.77174,0.20935
3440.84302,0.20957
3438.91429,0.20968
3436.98557,0.20994
3435.05685,0.21030
3433.12812,0.21067
3431.19940,0.21085
3429.27068,0.21075
3427.34195,0.21067
3425.41323,0.21080
3423.48451,0.21115
3421.55578,0.21152
3419.62706,0.21170
3417.69833,0.21176
3415.76961,0.21179
3413.84089,0.21174
3411.91216,0.21171
3409.98344,0.21186
3408.05472,0.21214
3406.12599,0.21221
3404.19727,0.21202
3402.26855,0.21194
3400.33982,0.21215
3398.41110,0.21249
3396.48237,0.21260
3394.55365,0.21248
3392.62493,0.21236
3390.69620,0.21236
3388.76748,0.21250
3386.83876,0.21255
3384.91003,0.21242
3382.98131,0.21228
3381.05259,0.21224
3379.12386,0.21226
3377.19514,0.21229
3375.26641,0.21223
3373.33769,0.21203
3371.40897,0.21175
3369.48024,0.21164
3367.55152,0.21171
3365.62280,0.21167
3363.69407,0.21145
3361.76535,0.21121
3359.83662,0.21104
3357.90790,0.21097
3355.97918,0.21093
3354.05045,0.21083
3352.12173,0.21075
3350.19301,0.21068
3348.26428,0.21061
3346.33556,0.21055
3344.40684,0.21040
3342.47811,0.21020
3340.54939,0.21006
3338.62066,0.20993
3336.69194,0.20968
3334.76322,0.20932
3332.83449,0.20904
3330.90577,0.20891
3328.97705,0.20882
3327.04832,0.20866
3325.11960,0.20847
3323.19088,0.20821
3321.26215,0.20781
3319.33343,0.20736
3317.40470,0.20705
3315.47598,0.20695
3313.54726,0.20698
3311.61853,0.20712
3309.68981,0.20716
3307.76109,0.20691
3305.83236,0.20658
3303.90364,0.20635
3301.97491,0.20611
3300.04619,0.20586
3298.11747,0.20561
3296.18874,0.20546
3294.26002,0.20547
3292.33130,0.20539
3290.40257,0.20500
3288.47385,0.20444
3286.54513,0.20395
3284.61640,0.20368
3282.68768,0.20366
3280.75895,0.20368
3278.83023,0.20356
3276.90151,0.20327
3274.97278,0.20288
3273.04406,0.20242
3271.11534,0.20202
3269.18661,0.20176
3267.25789,0.20153
3265.32917,0.20129
3263.40044,0.20099
3261.47172,0.20063
3259.54299,0.20033
3257.61427,0.20006
3255.68555,0.19971
3253.75682,0.19930
3251.82810,0.19884
3249.89938,0.19847
3247.97065,0.19819
3246.04193,0.19785
3244.11320,0.19744
3242.18448,0.19717
3240.25576,0.19710
3238.32703,0.19702
3236.39831,0.19674
3234.46959,0.19623
3232.54086,0.19573
3230.61214,0.19535
3228.68342,0.19497
3226.75469,0.19456
3224.82597,0.19411
3222.89724,0.19359
3220.96852,0.19302
3219.03980,0.19247
3217.11107,0.19197
3215.18235,0.19153
3213.25363,0.19105
3211.32490,0.19055
3209.39618,0.19013
3207.46746,0.18969
3205.53873,0.18918
3203.61001,0.18864
3201.68128,0.18809
3199.75256,0.18755
3197.82384,0.18699
3195.89511,0.18643
3193.96639,0.18598
3192.03767,0.18562
3190.10894,0.18513
3188.18022,0.18443
3186.25149,0.18366
3184.32277,0.18298
3182.39405,0.18236
3180.46532,0.18174
3178.53660,0.18110
3176.60788,0.18044
3174.67915,0.17988
3172.75043,0.17935
3170.82171,0.17876
3168.89298,0.17810
3166.96426,0.17736
3165.03553,0.17663
3163.10681,0.17598
3161.17809,0.17530
3159.24936,0.17460
3157.32064,0.17396
3155.39192,0.17342
3153.46319,0.17294
3151.53447,0.17242
3149.60575,0.17177
3147.67702,0.17104
3145.74830,0.17030
3143.81957,0.16962
3141.89085,0.16898
3139.96213,0.16828
3138.03340,0.16750
3136.10468,0.16677
3134.17596,0.16622
3132.24723,0.16562
3130.31851,0.16489
3128.38978,0.16423
3126.46106,0.16367
3124.53234,0.16313
3122.60361,0.16259
3120.67489,0.16196
3118.74617,0.16116
3116.81744,0.16026
3114.88872,0.15942
3112.96000,0.15879
3111.03127,0.15820
3109.10255,0.15750
3107.17382,0.15674
3105.24510,0.15601
3103.31638,0.15536
3101.38765,0.15475
3099.45893,0.15401
3097.53021,0.15317
3095.60148,0.15227
3093.67276,0.15140
3091.74404,0.15069
3089.81531,0.15004
3087.88659,0.14932
3085.95786,0.14862
3084.02914,0.14797
3082.10042,0.14721
3080.17169,0.14632
3078.24297,0.14542
3076.31425,0.14454
3074.38552,0.14369
3072.45680,0.14285
3070.52807,0.14205
3068.59935,0.14135
3066.67063,0.14070
3064.74190,0.13992
3062.81318,0.13903
3060.88446,0.13806
3058.95573,0.13712
3057.02701,0.13632
3055.09829,0.13566
3053.16956,0.13509
3051.24084,0.13444
3049.31211,0.13366
3047.38339,0.13287
3045.45467,0.13209
3043.52594,0.13123
3041.59722,0.13036
3039.66850,0.12959
3037.73977,0.12892
3035.81105,0.12823
3033.88233,0.12749
3031.95360,0.12678
3030.02488,0.12606
3028.09615,0.12525
3026.16743,0.12443
3024.23871,0.12367
3022.30998,0.12306
3020.38126,0.12254
3018.45254,0.12196
3016.52381,0.12136
3014.59509,0.12077
3012.66636,0.12016
3010.73764,0.11957
3008.80892,0.11899
3006.88019,0.11843
3004.95147,0.11781
3003.02275,0.11712
3001.09402,0.11645
2999.16530,0.11594
2997.23658,0.11561
2995.30785,0.11526
2993.37913,0.11476
2991.45040,0.11424
2989.52168,0.11380
2987.59296,0.11341
2985.66423,0.11303
2983.73551,0.11275
2981.80679,0.11263
2979.87806,0.11258
2977.94934,0.11250
2976.02062,0.11245
2974.09189,0.11248
2972.16317,0.11250
2970.23444,0.11256
2968.30572,0.11272
2966.37700,0.11288
2964.44827,0.11302
2962.51955,0.11308
2960.59083,0.11295
2958.66210,0.11272
2956.73338,0.11247
2954.80466,0.11216
2952.87593,0.11178
2950.94721,0.11135
2949.01848,0.11095
2947.08976,0.11077
2945.16104,0.11087
2943.23231,0.11119
2941.30359,0.11169
2939.37487,0.11238
2937.44614,0.11313
2935.51742,0.11380
2933.58869,0.11447
2931.65997,0.11517
2929.73125,0.11568
2927.80252,0.11582
2925.87380,0.11559
2923.94508,0.11497
2922.01635,0.11382
2920.08763,0.11223
2918.15891,0.11044
2916.23018,0.10849
2914.30146,0.10640
2912.37273,0.10446
2910.44401,0.10275
2908.51529,0.10112
2906.58656,0.09956
2904.65784,0.09821
2902.72912,0.09705
2900.80039,0.09589
2898.87167,0.09464
2896.94295,0.09345
2895.01422,0.09240
2893.08550,0.09146
2891.15677,0.09053
2889.22805,0.08956
2887.29933,0.08862
2885.37060,0.08773
2883.44188,0.08688
2881.51316,0.08618
2879.58443,0.08569
2877.65571,0.08532
2875.72698,0.08497
2873.79826,0.08454
2871.86954,0.08396
2869.94081,0.08335
2868.01209,0.08276
2866.08337,0.08233
2864.15464,0.08228
2862.22592,0.08255
2860.29720,0.08290
2858.36847,0.08330
2856.43975,0.08373
2854.51102,0.08396
2852.58230,0.08359
2850.65358,0.08231
2848.72485,0.08020
2846.79613,0.07761
2844.86741,0.07500
2842.93868,0.07270
2841.00996,0.07074
2839.08124,0.06908
2837.15251,0.06766
2835.22379,0.06648
2833.29506,0.06545
2831.36634,0.06446
2829.43762,0.06354
2827.50889,0.06276
2825.58017,0.06202
2823.65145,0.06123
2821.72272,0.06047
2819.79400,0.05979
2817.86527,0.05923
2815.93655,0.05871
2814.00783,0.05814
2812.07910,0.05752
2810.15038,0.05688
2808.22166,0.05620
2806.29293,0.05552
2804.36421,0.05490
2802.43549,0.05435
2800.50676,0.05391
2798.57804,0.05344
2796.64931,0.05287
2794.72059,0.05230
2792.79187,0.05178
2790.86314,0.05125
2788.93442,0.05069
2787.00570,0.05010
2785.07697,0.04953
2783.14825,0.04902
2781.21953,0.04849
2779.29080,0.04795
2777.36208,0.04746
2775.43335,0.04700
2773.50463,0.04656
2771.57591,0.04614
2769.64718,0.04569
2767.71846,0.04516
2765.78974,0.04461
2763.86101,0.04414
2761.93229,0.04375
2760.00356,0.04336
2758.07484,0.04287
2756.14612,0.04238
2754.21739,0.04196
2752.28867,0.04156
2750.35995,0.04112
2748.43122,0.04065
2746.50250,0.04018
2744.57378,0.03967
2742.64505,0.03915
2740.71633,0.03870
2738.78760,0.03837
2736.85888,0.03804
2734.93016,0.03758
2733.00143,0.03711
2731.07271,0.03674
2729.14399,0.03640
2727.21526,0.03601
2725.28654,0.03561
2723.35782,0.03522
2721.42909,0.03482
2719.50037,0.03442
2717.57164,0.03405
2715.64292,0.03369
2713.71420,0.03328
2711.78547,0.03285
2709.85675,0.03246
2707.92803,0.03209
2705.99930,0.03172
2704.07058,0.03137
2702.14185,0.03101
2700.21313,0.03061
2698.28441,0.03026
2696.35568,0.02993
2694.42696,0.02953
2692.49824,0.02907
2690.56951,0.02863
2688.64079,0.02833
2686.71207,0.02809
2684.78334,0.02776
2682.85462,0.02743
2680.92589,0.02717
2678.99717,0.02686
2677.06845,0.02644
2675.13972,0.02601
2673.21100,0.02565
2671.28228,0.02532
2669.35355,0.02499
2667.42483,0.02461
2665.49611,0.02420
2663.56738,0.02386
2661.63866,0.02356
2659.70993,0.02322
2657.78121,0.02286
2655.85249,0.02256
2653.92376,0.02235
2651.99504,0.02217
2650.06632,0.02194
2648.13759,0.02162
2646.20887,0.02126
2644.28014,0.02091
2642.35142,0.02058
2640.42270,0.02026
2638.49397,0.01996
2636.56525,0.01972
2634.63653,0.01947
2632.70780,0.01915
2630.77908,0.01884
2628.85036,0.01861
2626.92163,0.01842
2624.99291,0.01818
2623.06418,0.01783
2621.13546,0.01750
2619.20674,0.01726
2617.27801,0.01701
2615.34929,0.01676
2613.42057,0.01651
2611.49184,0.01622
2609.56312,0.01591
2607.63440,0.01568
2605.70567,0.01548
2603.77695,0.01523
2601.84822,0.01499
2599.91950,0.01480
2597.99078,0.01460
2596.06205,0.01436
2594.13333,0.01413
2592.20461,0.01391
2590.27588,0.01373
2588.34716,0.01353
2586.41843,0.01330
2584.48971,0.01308
2582.56099,0.01292
2580.63226,0.01276
2578.70354,0.01258
2576.77482,0.01234
2574.84609,0.01205
2572.91737,0.01181
2570.98865,0.01166
2569.05992,0.01154
2567.13120,0.01139
2565.20247,0.01120
2563.27375,0.01102
2561.34503,0.01091
2559.41630,0.01085
2557.48758,0.01074
2555.55886,0.01057
2553.63013,0.01037
2551.70141,0.01012
2549.77269,0.00982
2547.84396,0.00958
2545.91524,0.00944
2543.98651,0.00941
2542.05779,0.00936
2540.12907,0.00920
2538.20034,0.00901
2536.27162,0.00890
2534.34290,0.00883
2532.41417,0.00871
2530.48545,0.00852
2528.55673,0.00838
2526.62800,0.00827
2524.69928,0.00808
2522.77055,0.00786
2520.84183,0.00771
2518.91311,0.00762
2516.98438,0.00750
2515.05566,0.00736
2513.12694,0.00721
2511.19821,0.00705
2509.26949,0.00689
2507.34076,0.00673
2505.41204,0.00660
2503.48332,0.00645
2501.55459,0.00633
2499.62587,0.00628
2497.69715,0.00630
2495.76842,0.00630
2493.83970,0.00620
2491.91098,0.00606
2489.98225,0.00594
2488.05353,0.00583
2486.12480,0.00569
2484.19608,0.00558
2482.26736,0.00546
2480.33863,0.00525
2478.40991,0.00508
2476.48119,0.00501
2474.55246,0.00498
2472.62374,0.00489
2470.69502,0.00477
2468.76629,0.00465
2466.83757,0.00457
2464.90884,0.00448
2462.98012,0.00432
2461.05140,0.00421
2459.12267,0.00417
2457.19395,0.00412
2455.26523,0.00401
2453.33650,0.00387
2451.40778,0.00374
2449.47905,0.00363
2447.55033,0.00351
2445.62161,0.00339
2443.69288,0.00326
2441.76416,0.00318
2439.83544,0.00314
2437.90671,0.00308
2435.97799,0.00300
2434.04927,0.00292
2432.12054,0.00280
2430.19182,0.00272
2428.26309,0.00269
2426.33437,0.00267
2424.40565,0.00262
2422.47692,0.00260
2420.54820,0.00257
2418.61948,0.00247
2416.69075,0.00233
2414.76203,0.00217
2412.83331,0.00205
2410.90458,0.00198
2408.97586,0.00189
2407.04713,0.00175
2405.11841,0.00166
2403.18969,0.00164
2401.26096,0.00163
2399.33224,0.00160
2397.40352,0.00154
2395.47479,0.00148
2393.54607,0.00144
2391.61734,0.00139
2389.68862,0.00129
2387.75990,0.00116
2385.83117,0.00106
2383.90245,0.00102
2381.97373,0.00105
2380.04500,0.00114
2378.11628,0.00128
2376.18756,0.00146
2374.25883,0.00165
2372.33011,0.00170
2370.40138,0.00164
2368.47266,0.00156
2366.54394,0.00146
2364.61521,0.00144
2362.68649,0.00149
2360.75777,0.00155
2358.82904,0.00169
2356.90032,0.00180
2354.97160,0.00160
2353.04287,0.00098
2351.11415,0.00020
2349.18542,0.00007
2347.25670,0.00085
2345.32798,0.00159
2343.39925,0.00147
2341.47053,0.00096
2339.54181,0.00065
2337.61308,0.00060
2335.68436,0.00063
2333.75563,0.00068
2331.82691,0.00074
2329.89819,0.00077
2327.96946,0.00069
2326.04074,0.00052
2324.11202,0.00039
2322.18329,0.00036
2320.25457,0.00035
2318.32585,0.00030
2316.39712,0.00023
2314.46840,0.00017
2312.53967,0.00011
2310.61095,0.00007
2308.68223,0.00006
2306.75350,0.00005
2304.82478,0.00005
2302.89606,0.00006
2300.96733,0.00004
2299.03861,0.00001
2297.10989,0.00002
2295.18116,0.00005
2293.25244,0.00009
2291.32371,0.00011
2289.39499,0.00008
2287.46627,0.00004
2285.53754,0.00001
2283.60882,0.00001
2281.68010,0.00001
2279.75137,0.00001
2277.82265,-0.00001
2275.89392,-0.00003
2273.96520,-0.00002
2272.03648,0.00002
2270.10775,0.00006
2268.17903,0.00008
2266.25031,0.00006
2264.32158,0.00004
2262.39286,0.00003
2260.46414,0.00000
2258.53541,-0.00004
2256.60669,-0.00004
2254.67796,-0.00007
2252.74924,-0.00013
2250.82052,-0.00014
2248.89179,-0.00009
2246.96307,-0.00005
2245.03435,-0.00007
2243.10562,-0.00014
2241.17690,-0.00019
2239.24818,-0.00015
2237.31945,-0.00005
2235.39073,0.00002
2233.46200,0.00004
2231.53328,0.00000
2229.60456,-0.00008
2227.67583,-0.00015
2225.74711,-0.00018
2223.81839,-0.00017
2221.88966,-0.00014
2219.96094,-0.00007
2218.03221,-0.00002
2216.10349,-0.00001
2214.17477,-0.00002
2212.24604,-0.00004
2210.31732,-0.00004
2208.38860,-0.00003
2206.45987,0.00000
2204.53115,0.00004
2202.60243,0.00010
2200.67370,0.00011
2198.74498,0.00005
2196.81625,0.00002
2194.88753,0.00004
2192.95881,0.00009
2191.03008,0.00008
2189.10136,-0.00000
2187.17264,-0.00005
2185.24391,-0.00001
2183.31519,0.00003
2181.38647,0.00008
2179.45774,0.00015
2177.52902,0.00023
2175.60029,0.00024
2173.67157,0.00020
2171.74285,0.00019
2169.81412,0.00025
2167.88540,0.00029
2165.95668,0.00027
2164.02795,0.00023
2162.09923,0.00026
2160.17050,0.00037
2158.24178,0.00048
2156.31306,0.00046
2154.38433,0.00038
2152.45561,0.00034
2150.52689,0.00035
2148.59816,0.00034
2146.66944,0.00031
2144.74072,0.00030
2142.81199,0.00033
2140.88327,0.00037
2138.95454,0.00038
2137.02582,0.00036
2135.09710,0.00034
2133.16837,0.00031
2131.23965,0.00031
2129.31093,0.00035
2127.38220,0.00037
2125.45348,0.00037
2123.52476,0.00036
2121.59603,0.00035
2119.66731,0.00036
2117.73858,0.00036
2115.80986,0.00032
2113.88114,0.00027
2111.95241,0.00024
2110.02369,0.00018
2108.09497,0.00007
2106.16624,0.00001
2104.23752,0.00004
2102.30880,0.00007
2100.38007,0.00011
2098.45135,0.00012
2096.52262,0.00005
2094.59390,0.00000
2092.66518,-0.00006
2090.73645,-0.00012
2088.80773,-0.00028
2086.87901,-0.00044
2084.95028,-0.00053
2083.02156,-0.00062
2081.09283,-0.00072
2079.16411,-0.00082
2077.23539,-0.00085
2075.30666,-0.00085
2073.37794,-0.00093
2071.44922,-0.00102
2069.52049,-0.00104
2067.59177,-0.00097
2065.66305,-0.00086
2063.73432,-0.00086
2061.80560,-0.00091
2059.87687,-0.00094
2057.94815,-0.00099
2056.01943,-0.00098
2054.09070,-0.00091
2052.16198,-0.00081
2050.23326,-0.00067
2048.30453,-0.00052
2046.37581,-0.00044
2044.44709,-0.00037
2042.51836,-0.00020
2040.58964,-0.00006
2038.66091,0.00000
2036.73219,0.00013
2034.80347,0.00037
2032.87474,0.00061
2030.94602,0.00074
2029.01730,0.00080
2027.08857,0.00092
2025.15985,0.00114
2023.23112,0.00130
2021.30240,0.00138
2019.37368,0.00159
2017.44495,0.00190
2015.51623,0.00194
2013.58751,0.00195
2011.65878,0.00217
2009.73006,0.00237
2007.80134,0.00244
2005.87261,0.00247
2003.94389,0.00253
2002.01516,0.00256
2000.08644,0.00257
1998.15772,0.00256
1996.22899,0.00256
1994.30027,0.00279
1992.37155,0.00309
1990.44282,0.00295
1988.51410,0.00277
1986.58538,0.00277
1984.65665,0.00278
1982.72793,0.00281
1980.79920,0.00275
1978.87048,0.00265
1976.94176,0.00259
1975.01303,0.00258
1973.08431,0.00250
1971.15559,0.00235
1969.22686,0.00239
1967.29814,0.00246
1965.36941,0.00218
1963.44069,0.00195
1961.51197,0.00194
1959.58324,0.00185
1957.65452,0.00173
1955.72580,0.00169
1953.79707,0.00157
1951.86835,0.00139
1949.93963,0.00127
1948.01090,0.00123
1946.08218,0.00128
1944.15345,0.00154
1942.22473,0.00154
1940.29601,0.00101
1938.36728,0.00083
1936.43856,0.00098
1934.50984,0.00102
1932.58111,0.00094
1930.65239,0.00087
1928.72367,0.00086
1926.79494,0.00091
1924.86622,0.00120
1922.93749,0.00137
1921.00877,0.00121
1919.08005,0.00154
1917.15132,0.00175
1915.22260,0.00153
1913.29388,0.00179
1911.36515,0.00247
1909.43643,0.00301
1907.50770,0.00317
1905.57898,0.00332
1903.65026,0.00366
1901.72153,0.00402
1899.79281,0.00437
1897.86409,0.00488
1895.93536,0.00546
1894.00664,0.00575
1892.07792,0.00610
1890.14919,0.00678
1888.22047,0.00694
1886.29174,0.00683
1884.36302,0.00708
1882.43430,0.00739
1880.50557,0.00762
1878.57685,0.00778
1876.64813,0.00779
1874.71940,0.00766
1872.79068,0.00764
1870.86196,0.00818
1868.93323,0.00858
1867.00451,0.00776
1865.07578,0.00668
1863.14706,0.00634
1861.21834,0.00628
1859.28961,0.00598
1857.36089,0.00547
1855.43217,0.00493
1853.50344,0.00443
1851.57472,0.00400
1849.64599,0.00370
1847.71727,0.00352
1845.78855,0.00368
1843.85982,0.00342
1841.93110,0.00225
1840.00238,0.00165
1838.07365,0.00183
1836.14493,0.00171
1834.21621,0.00130
1832.28748,0.00140
1830.35876,0.00164
1828.43003,0.00098
1826.50131,0.00047
1824.57259,0.00051
1822.64386,0.00022
1820.71514,0.00011
1818.78642,0.00028
1816.85769,0.00023
1814.92897,0.00000
1813.00025,0.00007
1811.07152,0.00032
1809.14280,0.00018
1807.21407,-0.00007
1805.28535,-0.00006
1803.35663,0.00029
1801.42790,0.00069
1799.49918,0.00058
1797.57046,0.00022
1795.64173,0.00044
1793.71301,0.00141
1791.78428,0.00188
1789.85556,0.00122
1787.92684,0.00113
1785.99811,0.00194
1784.06939,0.00256
1782.14067,0.00308
1780.21194,0.00352
1778.28322,0.00344
1776.35450,0.00358
1774.42577,0.00462
1772.49705,0.00564
1770.56832,0.00534
1768.63960,0.00501
1766.71088,0.00511
1764.78215,0.00562
1762.85343,0.00679
1760.92471,0.00725
1758.99598,0.00725
1757.06726,0.00769
1755.13854,0.00780
1753.20981,0.00849
1751.28109,0.01010
1749.35236,0.01094
1747.42364,0.01093
1745.49492,0.01123
1743.56619,0.01216
1741.63747,0.01338
1739.70875,0.01412
1737.78002,0.01430
1735.85130,0.01617
1733.92257,0.01857
1731.99385,0.01865
1730.06513,0.01878
1728.13640,0.01964
1726.20768,0.02067
1724.27896,0.02174
1722.35023,0.02238
1720.42151,0.02376
1718.49279,0.02632
1716.56406,0.02757
1714.63534,0.02748
1712.70661,0.02789
1710.77789,0.02917
1708.84917,0.03108
1706.92044,0.03323
1704.99172,0.03441
1703.06300,0.03548
1701.13427,0.03840
1699.20555,0.04086
1697.27683,0.04294
1695.34810,0.04528
1693.41938,0.04641
1691.49065,0.04827
1689.56193,0.05074
1687.63321,0.05307
1685.70448,0.05704
1683.77576,0.06082
1681.84704,0.06162
1679.91831,0.06257
1677.98959,0.06502
1676.06087,0.06822
1674.13214,0.07031
1672.20342,0.07222
1670.27469,0.07557
1668.34597,0.07770
1666.41725,0.07856
1664.48852,0.08091
1662.55980,0.08377
1660.63108,0.08487
1658.70235,0.08516
1656.77363,0.08667
1654.84490,0.09054
1652.91618,0.09292
1650.98746,0.09087
1649.05873,0.09150
1647.13001,0.09465
1645.20129,0.09505
1643.27256,0.09414
1641.34384,0.09436
1639.41512,0.09543
1637.48639,0.09741
1635.55767,0.09837
1633.62894,0.09646
1631.70022,0.09499
1629.77150,0.09526
1627.84277,0.09519
1625.91405,0.09422
1623.98533,0.09307
1622.05660,0.09072
1620.12788,0.08834
1618.19916,0.08755
1616.27043,0.08559
1614.34171,0.08176
1612.41298,0.07910
1610.48426,0.07760
1608.55554,0.07569
1606.62681,0.07324
1604.69809,0.07086
1602.76937,0.06865
1600.84064,0.06637
1598.91192,0.06421
1596.98319,0.06245
1595.05447,0.06086
1593.12575,0.05913
1591.19702,0.05741
1589.26830,0.05583
1587.33958,0.05432
1585.41085,0.05285
1583.48213,0.05134
1581.55341,0.04976
1579.62468,0.04869
1577.69596,0.04874
1575.76723,0.04774
1573.83851,0.04503
1571.90979,0.04414
1569.98106,0.04469
1568.05234,0.04364
1566.12362,0.04219
1564.19489,0.04122
1562.26617,0.04130
1560.33745,0.04361
1558.40872,0.04357
1556.48000,0.03967
1554.55127,0.03809
1552.62255,0.03827
1550.69383,0.03839
1548.76510,0.03763
1546.83638,0.03679
1544.90766,0.03678
1542.97893,0.03700
1541.05021,0.03704
1539.12148,0.03461
1537.19276,0.03112
1535.26404,0.03077
1533.33531,0.03112
1531.40659,0.02912
1529.47787,0.02746
1527.54914,0.02692
1525.62042,0.02574
1523.69170,0.02459
1521.76297,0.02364
1519.83425,0.02131
1517.90552,0.01945
1515.97680,0.01799
1514.04808,0.01598
1512.11935,0.01458
1510.19063,0.01441
1508.26191,0.01531
1506.33318,0.01376
1504.40446,0.00918
1502.47574,0.00666
1500.54701,0.00658
1498.61829,0.00660
1496.68956,0.00523
1494.76084,0.00275
1492.83212,0.00163
1490.90339,0.00234
1488.97467,0.00226
1487.04595,0.00090
1485.11722,0.00000
1483.18850,0.00014
1481.25977,0.00060
1479.33105,0.00088
1477.40233,0.00170
1475.47360,0.00343
1473.54488,0.00574
1471.61616,0.00691
1469.68743,0.00688
1467.75871,0.00813
1465.82999,0.01026
1463.90126,0.01070
1461.97254,0.00997
1460.04381,0.01109
1458.11509,0.01363
1456.18637,0.01372
1454.25764,0.01197
1452.32892,0.01153
1450.40020,0.01225
1448.47147,0.01300
1446.54275,0.01296
1444.61403,0.01258
1442.68530,0.01251
1440.75658,0.01258
1438.82785,0.01345
1436.89913,0.01454
1434.97041,0.01398
1433.04168,0.01346
1431.11296,0.01415
1429.18424,0.01457
1427.25551,0.01451
1425.32679,0.01488
1423.39806,0.01520
1421.46934,0.01580
1419.54062,0.01712
1417.61189,0.01732
1415.68317,0.01685
1413.75445,0.01728
1411.82572,0.01814
1409.89700,0.01876
1407.96828,0.01942
1406.03955,0.02032
1404.11083,0.02051
1402.18210,0.02007
1400.25338,0.02007
1398.32466,0.01968
1396.39593,0.01855
1394.46721,0.01700
1392.53849,0.01507
1390.60976,0.01393
1388.68104,0.01384
1386.75232,0.01334
1384.82359,0.01218
1382.89487,0.01137
1380.96614,0.01091
1379.03742,0.01031
1377.10870,0.00971
1375.17997,0.00920
1373.25125,0.00812
1371.32253,0.00678
1369.39380,0.00602
1367.46508,0.00528
1365.53635,0.00464
1363.60763,0.00449
1361.67891,0.00395
1359.75018,0.00300
1357.82146,0.00246
1355.89274,0.00227
1353.96401,0.00202
1352.03529,0.00175
1350.10657,0.00163
1348.17784,0.00152
1346.24912,0.00130
1344.32039,0.00104
1342.39167,0.00111
1340.46295,0.00156
1338.53422,0.00159
1336.60550,0.00113
1334.67678,0.00089
1332.74805,0.00096
1330.81933,0.00110
1328.89061,0.00126
1326.96188,0.00147
1325.03316,0.00167
1323.10443,0.00186
1321.17571,0.00220
1319.24699,0.00260
1317.31826,0.00278
1315.38954,0.00302
1313.46082,0.00348
1311.53209,0.00388
1309.60337,0.00427
1307.67464,0.00481
1305.74592,0.00546
1303.81720,0.00618
1301.88847,0.00697
1299.95975,0.00787
1298.03103,0.00894
1296.10230,0.01011
1294.17358,0.01133
1292.24486,0.01265
1290.31613,0.01421
1288.38741,0.01610
1286.45868,0.01818
1284.52996,0.02026
1282.60124,0.02242
1280.67251,0.02476
1278.74379,0.02728
1276.81507,0.02998
1274.88634,0.03302
1272.95762,0.03652
1271.02890,0.04044
1269.10017,0.04472
1267.17145,0.04941
1265.24272,0.05456
1263.31400,0.06030
1261.38528,0.06682
1259.45655,0.07395
1257.52783,0.08145
1255.59911,0.08935
1253.67038,0.09765
1251.74166,0.10614
1249.81294,0.11462
1247.88421,0.12305
1245.95549,0.13130
1244.02676,0.13909
1242.09804,0.14626
1240.16932,0.15275
1238.24059,0.15878
1236.31187,0.16456
1234.38315,0.17001
1232.45442,0.17505
1230.52570,0.17991
1228.59697,0.18470
1226.66825,0.18925
1224.73953,0.19350
1222.81080,0.19752
1220.88208,0.20127
1218.95336,0.20479
1217.02463,0.20812
1215.09591,0.21127
1213.16719,0.21437
1211.23846,0.21756
1209.30974,0.22084
1207.38101,0.22402
1205.45229,0.22694
1203.52357,0.22969
1201.59484,0.23243
1199.66612,0.23520
1197.73740,0.23813
1195.80867,0.24111
1193.87995,0.24367
1191.95123,0.24592
1190.02250,0.24838
1188.09378,0.25100
1186.16505,0.25350
1184.23633,0.25588
1182.30761,0.25819
1180.37888,0.26045
1178.45016,0.26276
1176.52144,0.26521
1174.59271,0.26775
1172.66399,0.27019
1170.73526,0.27259
1168.80654,0.27503
1166.87782,0.27742
1164.94909,0.27955
1163.02037,0.28133
1161.09165,0.28304
1159.16292,0.28495
1157.23420,0.28692
1155.30548,0.28864
1153.37675,0.29011
1151.44803,0.29154
1149.51930,0.29306
1147.59058,0.29464
1145.66186,0.29617
1143.73313,0.29762
1141.80441,0.29916
1139.87569,0.30084
1137.94696,0.30239
1136.01824,0.30357
1134.08952,0.30472
1132.16079,0.30630
1130.23207,0.30813
1128.30334,0.30982
1126.37462,0.31173
1124.44590,0.31412
1122.51717,0.31651
1120.58845,0.31891
1118.65973,0.32165
1116.73100,0.32492
1114.80228,0.32869
1112.87355,0.33275
1110.94483,0.33720
1109.01611,0.34214
1107.08738,0.34701
1105.15866,0.35155
1103.22994,0.35619
1101.30121,0.36068
1099.37249,0.36418
1097.44377,0.36667
1095.51504,0.36861
1093.58632,0.37028
1091.65759,0.37175
1089.72887,0.37272
1087.80015,0.37305
1085.87142,0.37313
1083.94270,0.37313
1082.01398,0.37260
1080.08525,0.37163
1078.15653,0.37098
1076.22781,0.37055
1074.29908,0.36964
1072.37036,0.36839
1070.44163,0.36703
1068.51291,0.36533
1066.58419,0.36308
1064.65546,0.36041
1062.72674,0.35791
1060.79802,0.35580
1058.86929,0.35369
1056.94057,0.35100
1055.01184,0.34750
1053.08312,0.34353
1051.15440,0.33946
1049.22567,0.33569
1047.29695,0.33256
1045.36823,0.32974
1043.43950,0.32651
1041.51078,0.32255
1039.58206,0.31816
1037.65333,0.31361
1035.72461,0.30904
1033.79588,0.30470
1031.86716,0.30073
1029.93844,0.29691
1028.00971,0.29284
1026.08099,0.28870
1024.15227,0.28485
1022.22354,0.28142
1020.29482,0.27820
1018.36610,0.27498
1016.43737,0.27183
1014.50865,0.26877
1012.57992,0.26580
1010.65120,0.26298
1008.72248,0.26040
1006.79375,0.25795
1004.86503,0.25535
1002.93631,0.25273
1001.00758,0.25034
999.07886,0.24799
997.15013,0.24539
995.22141,0.24260
993.29269,0.23978
991.36396,0.23717
989.43524,0.23500
987.50652,0.23305
985.57779,0.23098
983.64907,0.22901
981.72035,0.22748
979.79162,0.22607
977.86290,0.22441
975.93417,0.22271
974.00545,0.22136
972.07673,0.22019
970.14800,0.21883
968.21928,0.21731
966.29056,0.21596
964.36183,0.21480
962.43311,0.21353
960.50439,0.21213
958.57566,0.21071
956.64694,0.20941
954.71821,0.20826
952.78949,0.20677
950.86077,0.20477
948.93204,0.20278
947.00332,0.20098
945.07460,0.19895
943.14587,0.19652
941.21715,0.19408
939.28842,0.19175
937.35970,0.18926
935.43098,0.18658
933.50225,0.18376
931.57353,0.18095
929.64481,0.17822
927.71608,0.17524
925.78736,0.17189
923.85864,0.16849
921.92991,0.16523
920.00119,0.16194
918.07246,0.15855
916.14374,0.15520
914.21502,0.15179
912.28629,0.14806
910.35757,0.14394
908.42885,0.13962
906.50012,0.13532
904.57140,0.13134
902.64268,0.12765
900.71395,0.12375
898.78523,0.11977
896.85650,0.11612
894.92778,0.11246
892.99906,0.10872
891.07033,0.10521
889.14161,0.10157
887.21289,0.09759
885.28416,0.09380
883.35544,0.09051
881.42671,0.08760
879.49799,0.08471
877.56927,0.08165
875.64054,0.07873
873.71182,0.07609
871.78310,0.07335
869.85437,0.07051
867.92565,0.06805
865.99693,0.06594
864.06820,0.06374
862.13948,0.06125
860.21075,0.05876
858.28203,0.05662
856.35331,0.05473
854.42458,0.05278
852.49586,0.05108
850.56714,0.05012
848.63841,0.04961
846.70969,0.04898
844.78097,0.04855
842.85224,0.04901
840.92352,0.05017
838.99479,0.05152
837.06607,0.05313
835.13735,0.05513
833.20862,0.05732
831.27990,0.05969
829.35118,0.06235
827.42245,0.06508
825.49373,0.06755
823.56501,0.06988
821.63628,0.07239
819.70756,0.07508
817.77883,0.07785
815.85011,0.08093
813.92139,0.08438
811.99266,0.08775
810.06394,0.09077
808.13522,0.09374
806.20649,0.09700
804.27777,0.10036
802.34904,0.10334
800.42032,0.10565
798.49160,0.10726
796.56287,0.10813
794.63415,0.10840
792.70543,0.10843
790.77670,0.10805
788.84798,0.10724
786.91926,0.10635
784.99053,0.10519
783.06181,0.10359
781.13308,0.10171
779.20436,0.09956
777.27564,0.09722
775.34691,0.09498
773.41819,0.09309
771.48947,0.09129
769.56074,0.08910
767.63202,0.08695
765.70330,0.08568
763.77457,0.08506
761.84585,0.08451
759.91712,0.08392
757.98840,0.08339
756.05968,0.08294
754.13095,0.08234
752.20223,0.08148
750.27351,0.08076
748.34478,0.08055
746.41606,0.08079
744.48733,0.08088
742.55861,0.08039
740.62989,0.07965
738.70116,0.07916
736.77244,0.07914
734.84372,0.07949
732.91499,0.07989
730.98627,0.08007
729.05755,0.07988
727.12882,0.07937
725.20010,0.07869
723.27137,0.07808
721.34265,0.07772
719.41393,0.07730
717.48520,0.07663
715.55648,0.07612
713.62776,0.07597
711.69903,0.07578
709.77031,0.07521
707.84159,0.07454
705.91286,0.07418
703.98414,0.07418
702.05541,0.07447
700.12669,0.07475
698.19797,0.07455
696.26924,0.07395
694.34052,0.07331
692.41180,0.07277
690.48307,0.07249
688.55435,0.07258
686.62562,0.07279
684.69690,0.07279
682.76818,0.07250
680.83945,0.07209
678.91073,0.07162
676.98201,0.07077
675.05328,0.06943
673.12456,0.06816
671.19584,0.06785
669.26711,0.06835
667.33839,0.06780
665.40966,0.06637
663.48094,0.06627
661.55222,0.06739
659.62349,0.06822
657.69477,0.06847
655.76605,0.06881
653.83732,0.06958
651.90860,0.07091
649.97988,0.07268
648.05115,0.07451
646.12243,0.07638
644.19370,0.07867
642.26498,0.08141
640.33626,0.08390
638.40753,0.08537
636.47881,0.08610
634.55009,0.08689
632.62136,0.08782
630.69264,0.08866
628.76391,0.08946
626.83519,0.09038
624.90647,0.09111
622.97774,0.09169
621.04902,0.09251
619.12030,0.09335
617.19157,0.09406
615.26285,0.09481
613.33413,0.09547
611.40540,0.09587
609.47668,0.09682
607.54795,0.09881
605.61923,0.10079
603.69051,0.10212
601.76178,0.10339
599.83306,0.10498
597.90434,0.10653
595.97561,0.10800
594.04689,0.10961
592.11817,0.11088
590.18944,0.11155
588.26072,0.11249
586.33199,0.11349
584.40327,0.11374
582.47455,0.11382
580.54582,0.11412
578.61710,0.11428
576.68838,0.11406
574.75965,0.11332
572.83093,0.11258
570.90220,0.11218
568.97348,0.11182
567.04476,0.11137
565.11603,0.11123
563.18731,0.11102
561.25859,0.11003
559.32986,0.10932
557.40114,0.10994
555.47242,0.11079
553.54369,0.11112
551.61497,0.11187
549.68624,0.11322
547.75752,0.11448
545.82880,0.11555
543.90007,0.11648
541.97135,0.11667
540.04263,0.11582
538.11390,0.11502
536.18518,0.11533
534.25646,0.11649
532.32773,0.11668
530.39901,0.11446
528.47028,0.11104
526.54156,0.10871
524.61284,0.10850
522.68411,0.11024
520.75539,0.11299
518.82667,0.11556
516.89794,0.11702
514.96922,0.11828
513.04049,0.12063
511.11177,0.12286
509.18305,0.12348
507.25432,0.12284
505.32560,0.12391
503.39688,0.13007
501.46815,0.13910
499.53943,0.14611
497.61071,0.15040
495.68198,0.15399
493.75326,0.15808
491.82453,0.16209
489.89581,0.16641
487.96709,0.17245
486.03836,0.17951
484.10964,0.18632
482.18092,0.19280
480.25219,0.19824
478.32347,0.20119
476.39475,0.20222
474.46602,0.20445
472.53730,0.20926
470.60857,0.21445
468.67985,0.21891
466.75113,0.22299
464.82240,0.22599
462.89368,0.22716
460.96496,0.22623
459.03623,0.22297
457.10751,0.21734
455.17878,0.21177
453.25006,0.20802
451.32134,0.20402
449.39261,0.19937
447.46389,0.19521
445.53517,0.19095
443.60644,0.18609
441.67772,0.18125
439.74900,0.17766
437.82027,0.17564
435.89155,0.17397
433.96282,0.17075
432.03410,0.16462
430.10538,0.15800
428.17665,0.15389
426.24793,0.15061
424.31921,0.14729
422.39048,0.14680
420.46176,0.14803
418.53304,0.14414
416.60431,0.13445
414.67559,0.12556
412.74686,0.11891
410.81814,0.11399
408.88942,0.11178
406.96069,0.10924
405.03197,0.10235
403.10325,0.09471
401.17452,0.09145
399.24580,0.09117
397.31708,0.08684
395.38835,0.07493
393.45963,0.06718
391.53090,0.07268
389.60218,0.08462
387.67346,0.09205
385.74473,0.08753
383.81601,0.06922
381.88729,0.04934
379.95856,0.04199
378.02984,0.04941
376.10111,0.05063
374.17239,0.02035
372.24367,0.00000
370.31494,-0.01012
368.38622,0.00000
