3996.31543,0.00003
3994.38671,0.00004
3992.45799,0.00023
3990.52926,0.00042
3988.60054,0.00038
3986.67182,0.00019
3984.74309,0.00007
3982.81437,0.00002
3980.88564,0.00000
3978.95692,0.00001
3977.02820,0.00003
3975.09947,0.00006
3973.17075,0.00012
3971.24203,0.00016
3969.31330,0.00019
3967.38458,0.00030
3965.45586,0.00046
3963.52713,0.00059
3961.59841,0.00069
3959.66968,0.00075
3957.74096,0.00072
3955.81224,0.00066
3953.88351,0.00070
3951.95479,0.00083
3950.02607,0.00091
3948.09734,0.00087
3946.16862,0.00085
3944.23990,0.00096
3942.31117,0.00109
3940.38245,0.00098
3938.45372,0.00064
3936.52500,0.00039
3934.59628,0.00047
3932.66755,0.00077
3930.73883,0.00097
3928.81011,0.00096
3926.88138,0.00085
3924.95266,0.00083
3923.02393,0.00091
3921.09521,0.00093
3919.16649,0.00086
3917.23776,0.00083
3915.30904,0.00087
3913.38032,0.00084
3911.45159,0.00077
3909.52287,0.00069
3907.59415,0.00056
3905.66542,0.00046
3903.73670,0.00057
3901.80797,0.00078
3899.87925,0.00089
3897.95053,0.00081
3896.02180,0.00053
3894.09308,0.00031
3892.16436,0.00032
3890.23563,0.00033
3888.30691,0.00014
3886.37819,0.00000
3884.44946,0.00000
3882.52074,-0.00001
3880.59201,0.00006
3878.66329,0.00022
3876.73457,0.00029
3874.80584,0.00030
3872.87712,0.00036
3870.94840,0.00049
3869.01967,0.00054
3867.09095,0.00037
3865.16222,0.00025
3863.23350,0.00035
3861.30478,0.00036
3859.37605,0.00006
3857.44733,-0.00027
3855.51861,-0.00010
3853.58988,0.00067
3851.66116,0.00115
3849.73244,0.00076
3847.80371,0.00003
3845.87499,-0.00048
3843.94626,-0.00057
3842.01754,-0.00036
3840.08882,-0.00006
3838.16009,0.00021
3836.23137,0.00031
3834.30265,0.00024
3832.37392,0.00017
3830.44520,0.00018
3828.51648,0.00021
3826.58775,0.00020
3824.65903,0.00012
3822.73030,0.00005
3820.80158,0.00011
3818.87286,0.00021
3816.94413,0.00042
3815.01541,0.00080
3813.08669,0.00097
3811.15796,0.00077
3809.22924,0.00054
3807.30052,0.00062
3805.37179,0.00092
3803.44307,0.00121
3801.51434,0.00156
3799.58562,0.00179
3797.65690,0.00178
3795.72817,0.00175
3793.79945,0.00171
3791.87073,0.00158
3789.94200,0.00149
3788.01328,0.00155
3786.08455,0.00181
3784.15583,0.00218
3782.22711,0.00253
3780.29838,0.00294
3778.36966,0.00344
3776.44094,0.00375
3774.51221,0.00375
3772.58349,0.00374
3770.65477,0.00409
3768.72604,0.00475
3766.79732,0.00525
3764.86859,0.00539
3762.93987,0.00538
3761.01115,0.00559
3759.08242,0.00616
3757.15370,0.00672
3755.22498,0.00696
3753.29625,0.00728
3751.36753,0.00819
3749.43881,0.00931
3747.51008,0.00994
3745.58136,0.01044
3743.65263,0.01127
3741.72391,0.01208
3739.79519,0.01262
3737.86646,0.01327
3735.93774,0.01456
3734.00902,0.01638
3732.08029,0.01810
3730.15157,0.01925
3728.22284,0.02010
3726.29412,0.02135
3724.36540,0.02318
3722.43667,0.02521
3720.50795,0.02716
3718.57923,0.02907
3716.65050,0.03094
3714.72178,0.03295
3712.79306,0.03565
3710.86433,0.03915
3708.93561,0.04247
3707.00688,0.04507
3705.07816,0.04747
3703.14944,0.05036
3701.22071,0.05380
3699.29199,0.05710
3697.36327,0.05987
3695.43454,0.06225
3693.50582,0.06441
3691.57710,0.06713
3689.64837,0.07128
3687.71965,0.07597
3685.79092,0.07964
3683.86220,0.08252
3681.93348,0.08541
3680.00475,0.08845
3678.07603,0.09194
3676.14731,0.09671
3674.21858,0.10197
3672.28986,0.10620
3670.36113,0.11037
3668.43241,0.11471
3666.50369,0.11794
3664.57496,0.12054
3662.64624,0.12340
3660.71752,0.12649
3658.78879,0.12956
3656.86007,0.13277
3654.93135,0.13577
3653.00262,0.13809
3651.07390,0.14058
3649.14517,0.14432
3647.21645,0.14825
3645.28773,0.15094
3643.35900,0.15288
3641.43028,0.15490
3639.50156,0.15703
3637.57283,0.15910
3635.64411,0.16113
3633.71539,0.16302
3631.78666,0.16470
3629.85794,0.16688
3627.92921,0.16990
3626.00049,0.17227
3624.07177,0.17345
3622.14304,0.17439
3620.21432,0.17595
3618.28560,0.17795
3616.35687,0.17959
3614.42815,0.18087
3612.49942,0.18215
3610.57070,0.18341
3608.64198,0.18478
3606.71325,0.18639
3604.78453,0.18779
3602.85581,0.18880
3600.92708,0.18981
3598.99836,0.19109
3597.06964,0.19262
3595.14091,0.19420
3593.21219,0.19554
3591.28346,0.19653
3589.35474,0.19756
3587.42602,0.19894
3585.49729,0.20025
3583.56857,0.20132
3581.63985,0.20245
3579.71112,0.20370
3577.78240,0.20488
3575.85368,0.20598
3573.92495,0.20694
3571.99623,0.20765
3570.06750,0.20832
3568.13878,0.20949
3566.21006,0.21113
3564.28133,0.21249
3562.35261,0.21332
3560.42389,0.21404
3558.49516,0.21492
3556.56644,0.21592
3554.63771,0.21695
3552.70899,0.21796
3550.78027,0.21880
3548.85154,0.21949
3546.92282,0.22030
3544.99410,0.22133
3543.06537,0.22240
3541.13665,0.22335
3539.20793,0.22417
3537.27920,0.22500
3535.35048,0.22587
3533.42175,0.22669
3531.49303,0.22739
3529.56431,0.22803
3527.63558,0.22875
3525.70686,0.22958
3523.77814,0.23049
3521.84941,0.23144
3519.92069,0.23225
3517.99197,0.23282
3516.06324,0.23329
3514.13452,0.23387
3512.20579,0.23460
3510.27707,0.23538
3508.34835,0.23618
3506.41962,0.23692
3504.49090,0.23764
3502.56218,0.23842
3500.63345,0.23918
3498.70473,0.23993
3496.77600,0.24070
3494.84728,0.24130
3492.91856,0.24157
3490.98983,0.24182
3489.06111,0.24231
3487.13239,0.24292
3485.20366,0.24347
3483.27494,0.24411
3481.34622,0.24502
3479.41749,0.24592
3477.48877,0.24648
3475.56004,0.24679
3473.63132,0.24709
3471.70260,0.24744
3469.77387,0.24777
3467.84515,0.24803
3465.91643,0.24829
3463.98770,0.24869
3462.05898,0.24921
3460.13026,0.24975
3458.20153,0.25029
3456.27281,0.25075
3454.34408,0.25115
3452.41536,0.25150
3450.48664,0.25181
3448.55791,0.25215
3446.62919,0.25258
3444.70047,0.25304
3442.77174,0.25336
3440.84302,0.25345
3438.91429,0.25339
3436.98557,0.25339
3435.05685,0.25359
3433.12812,0.25409
3431.19940,0.25475
3429.27068,0.25519
3427.34195,0.25530
3425.41323,0.25529
3423.48451,0.25531
3421.55578,0.25542
3419.62706,0.25566
3417.69833,0.25586
3415.76961,0.25590
3413.84089,0.25591
3411.91216,0.25610
3409.98344,0.25646
3408.05472,0.25673
3406.12599,0.25678
3404.19727,0.25676
3402.26855,0.25692
3400.33982,0.25713
3398.41110,0.25715
3396.48237,0.25701
3394.55365,0.25676
3392.62493,0.25654
3390.69620,0.25654
3388.76748,0.25666
3386.83876,0.25673
3384.91003,0.25676
3382.98131,0.25681
3381.05259,0.25677
3379.12386,0.25669
3377.19514,0.25655
3375.26641,0.25623
3373.33769,0.25583
3371.40897,0.25560
3369.48024,0.25565
3367.55152,0.25577
3365.62280,0.25570
3363.69407,0.25556
3361.76535,0.25553
3359.83662,0.25544
3357.90790,0.25521
3355.97918,0.25494
3354.05045,0.25469
3352.12173,0.25453
3350.19301,0.25447
3348.26428,0.25427
3346.33556,0.25385
3344.40684,0.25350
3342.47811,0.25327
3340.54939,0.25303
3338.62066,0.25284
3336.69194,0.25265
3334.76322,0.25236
3332.83449,0.25210
3330.90577,0.25197
3328.97705,0.25182
3327.04832,0.25148
3325.11960,0.25112
3323.19088,0.25088
3321.26215,0.25077
3319.33343,0.25065
3317.40470,0.25047
3315.47598,0.25036
3313.54726,0.25018
3311.61853,0.24985
3309.68981,0.24957
3307.76109,0.24943
3305.83236,0.24932
3303.90364,0.24917
3301.97491,0.24899
3300.04619,0.24878
3298.11747,0.24849
3296.18874,0.24812
3294.26002,0.24773
3292.33130,0.24735
3290.40257,0.24704
3288.47385,0.24680
3286.54513,0.24659
3284.61640,0.24648
3282.68768,0.24646
3280.75895,0.24634
3278.83023,0.24594
3276.90151,0.24544
3274.97278,0.24513
3273.04406,0.24502
3271.11534,0.24485
3269.18661,0.24450
3267.25789,0.24411
3265.32917,0.24375
3263.40044,0.24339
3261.47172,0.24307
3259.54299,0.24280
3257.61427,0.24248
3255.68555,0.24208
3253.75682,0.24166
3251.82810,0.24126
3249.89938,0.24091
3247.97065,0.24053
3246.04193,0.24009
3244.11320,0.23963
3242.18448,0.23915
3240.25576,0.23860
3238.32703,0.23817
3236.39831,0.23803
3234.46959,0.23791
3232.54086,0.23752
3230.61214,0.23705
3228.68342,0.23666
3226.75469,0.23621
3224.82597,0.23567
3222.89724,0.23513
3220.96852,0.23462
3219.03980,0.23414
3217.11107,0.23364
3215.18235,0.23311
3213.25363,0.23265
3211.32490,0.23214
3209.39618,0.23157
3207.46746,0.23107
3205.53873,0.23066
3203.61001,0.23021
3201.68128,0.22963
3199.75256,0.22894
3197.82384,0.22828
3195.89511,0.22773
3193.96639,0.22719
3192.03767,0.22658
3190.10894,0.22594
3188.18022,0.22530
3186.25149,0.22459
3184.32277,0.22384
3182.39405,0.22313
3180.46532,0.22246
3178.53660,0.22184
3176.60788,0.22117
3174.67915,0.22047
3172.75043,0.21985
3170.82171,0.21928
3168.89298,0.21858
3166.96426,0.21779
3165.03553,0.21710
3163.10681,0.21646
3161.17809,0.21567
3159.24936,0.21481
3157.32064,0.21411
3155.39192,0.21346
3153.46319,0.21269
3151.53447,0.21188
3149.60575,0.21114
3147.67702,0.21046
3145.74830,0.20978
3143.81957,0.20908
3141.89085,0.20836
3139.96213,0.20763
3138.03340,0.20690
3136.10468,0.20622
3134.17596,0.20554
3132.24723,0.20472
3130.31851,0.20388
3128.38978,0.20319
3126.46106,0.20261
3124.53234,0.20197
3122.60361,0.20115
3120.67489,0.20025
3118.74617,0.19936
3116.81744,0.19847
3114.88872,0.19763
3112.96000,0.19688
3111.03127,0.19605
3109.10255,0.19499
3107.17382,0.19384
3105.24510,0.19287
3103.31638,0.19209
3101.38765,0.19124
3099.45893,0.19025
3097.53021,0.18921
3095.60148,0.18822
3093.67276,0.18728
3091.74404,0.18636
3089.81531,0.18535
3087.88659,0.18424
3085.95786,0.18312
3084.02914,0.18204
3082.10042,0.18099
3080.17169,0.17991
3078.24297,0.17879
3076.31425,0.17768
3074.38552,0.17665
3072.45680,0.17572
3070.52807,0.17488
3068.59935,0.17402
3066.67063,0.17303
3064.74190,0.17194
3062.81318,0.17082
3060.88446,0.16972
3058.95573,0.16866
3057.02701,0.16770
3055.09829,0.16682
3053.16956,0.16589
3051.24084,0.16487
3049.31211,0.16386
3047.38339,0.16301
3045.45467,0.16224
3043.52594,0.16145
3041.59722,0.16059
3039.66850,0.15965
3037.73977,0.15867
3035.81105,0.15779
3033.88233,0.15700
3031.95360,0.15609
3030.02488,0.15511
3028.09615,0.15431
3026.16743,0.15371
3024.23871,0.15307
3022.30998,0.15235
3020.38126,0.15162
3018.45254,0.15080
3016.52381,0.14995
3014.59509,0.14921
3012.66636,0.14856
3010.73764,0.14784
3008.80892,0.14707
3006.88019,0.14642
3004.95147,0.14586
3003.02275,0.14525
3001.09402,0.14454
2999.16530,0.14383
2997.23658,0.14321
2995.30785,0.14260
2993.37913,0.14198
2991.45040,0.14141
2989.52168,0.14091
2987.59296,0.14045
2985.66423,0.14010
2983.73551,0.13989
2981.80679,0.13975
2979.87806,0.13955
2977.94934,0.13930
2976.02062,0.13913
2974.09189,0.13914
2972.16317,0.13928
2970.23444,0.13949
2968.30572,0.13971
2966.37700,0.13985
2964.44827,0.13999
2962.51955,0.14022
2960.59083,0.14039
2958.66210,0.14035
2956.73338,0.14007
2954.80466,0.13960
2952.87593,0.13913
2950.94721,0.13883
2949.01848,0.13878
2947.08976,0.13895
2945.16104,0.13923
2943.23231,0.13957
2941.30359,0.14002
2939.37487,0.14064
2937.44614,0.14146
2935.51742,0.14237
2933.58869,0.14328
2931.65997,0.14416
2929.73125,0.14483
2927.80252,0.14513
2925.87380,0.14511
2923.94508,0.14479
2922.01635,0.14396
2920.08763,0.14252
2918.15891,0.14048
2916.23018,0.13790
2914.30146,0.13508
2912.37273,0.13236
2910.44401,0.12980
2908.51529,0.12755
2906.58656,0.12569
2904.65784,0.12405
2902.72912,0.12249
2900.80039,0.12101
2898.87167,0.11964
2896.94295,0.11832
2895.01422,0.11709
2893.08550,0.11593
2891.15677,0.11472
2889.22805,0.11345
2887.29933,0.11235
2885.37060,0.11141
2883.44188,0.11049
2881.51316,0.10961
2879.58443,0.10880
2877.65571,0.10815
2875.72698,0.10775
2873.79826,0.10737
2871.86954,0.10674
2869.94081,0.10600
2868.01209,0.10539
2866.08337,0.10506
2864.15464,0.10510
2862.22592,0.10550
2860.29720,0.10618
2858.36847,0.10700
2856.43975,0.10778
2854.51102,0.10821
2852.58230,0.10789
2850.65358,0.10645
2848.72485,0.10388
2846.79613,0.10054
2844.86741,0.09711
2842.93868,0.09411
2841.00996,0.09164
2839.08124,0.08958
2837.15251,0.08786
2835.22379,0.08641
2833.29506,0.08505
2831.36634,0.08373
2829.43762,0.08259
2827.50889,0.08170
2825.58017,0.08090
2823.65145,0.08003
2821.72272,0.07913
2819.79400,0.07817
2817.86527,0.07718
2815.93655,0.07627
2814.00783,0.07550
2812.07910,0.07483
2810.15038,0.07420
2808.22166,0.07352
2806.29293,0.07274
2804.36421,0.07194
2802.43549,0.07125
2800.50676,0.07068
2798.57804,0.07011
2796.64931,0.06949
2794.72059,0.06882
2792.79187,0.06815
2790.86314,0.06752
2788.93442,0.06686
2787.00570,0.06610
2785.07697,0.06537
2783.14825,0.06480
2781.21953,0.06432
2779.29080,0.06383
2777.36208,0.06333
2775.43335,0.06277
2773.50463,0.06217
2771.57591,0.06157
2769.64718,0.06091
2767.71846,0.06016
2765.78974,0.05947
2763.86101,0.05890
2761.93229,0.05840
2760.00356,0.05786
2758.07484,0.05730
2756.14612,0.05676
2754.21739,0.05627
2752.28867,0.05583
2750.35995,0.05540
2748.43122,0.05491
2746.50250,0.05430
2744.57378,0.05369
2742.64505,0.05313
2740.71633,0.05265
2738.78760,0.05222
2736.85888,0.05177
2734.93016,0.05122
2733.00143,0.05067
2731.07271,0.05022
2729.14399,0.04983
2727.21526,0.04944
2725.28654,0.04899
2723.35782,0.04844
2721.42909,0.04790
2719.50037,0.04739
2717.57164,0.04684
2715.64292,0.04628
2713.71420,0.04581
2711.78547,0.04539
2709.85675,0.04491
2707.92803,0.04434
2705.99930,0.04374
2704.07058,0.04323
2702.14185,0.04285
2700.21313,0.04248
2698.28441,0.04205
2696.35568,0.04156
2694.42696,0.04105
2692.49824,0.04055
2690.56951,0.04018
2688.64079,0.03991
2686.71207,0.03959
2684.78334,0.03919
2682.85462,0.03882
2680.92589,0.03844
2678.99717,0.03795
2677.06845,0.03741
2675.13972,0.03692
2673.21100,0.03649
2671.28228,0.03606
2669.35355,0.03564
2667.42483,0.03531
2665.49611,0.03503
2663.56738,0.03466
2661.63866,0.03415
2659.70993,0.03365
2657.78121,0.03323
2655.85249,0.03285
2653.92376,0.03251
2651.99504,0.03217
2650.06632,0.03178
2648.13759,0.03138
2646.20887,0.03104
2644.28014,0.03072
2642.35142,0.03042
2640.42270,0.03015
2638.49397,0.02982
2636.56525,0.02938
2634.63653,0.02893
2632.70780,0.02856
2630.77908,0.02827
2628.85036,0.02800
2626.92163,0.02769
2624.99291,0.02726
2623.06418,0.02678
2621.13546,0.02642
2619.20674,0.02620
2617.27801,0.02599
2615.34929,0.02575
2613.42057,0.02544
2611.49184,0.02504
2609.56312,0.02465
2607.63440,0.02430
2605.70567,0.02400
2603.77695,0.02372
2601.84822,0.02344
2599.91950,0.02317
2597.99078,0.02293
2596.06205,0.02271
2594.13333,0.02244
2592.20461,0.02211
2590.27588,0.02176
2588.34716,0.02142
2586.41843,0.02110
2584.48971,0.02080
2582.56099,0.02057
2580.63226,0.02038
2578.70354,0.02017
2576.77482,0.01990
2574.84609,0.01962
2572.91737,0.01937
2570.98865,0.01916
2569.05992,0.01894
2567.13120,0.01872
2565.20247,0.01852
2563.27375,0.01827
2561.34503,0.01800
2559.41630,0.01776
2557.48758,0.01755
2555.55886,0.01733
2553.63013,0.01712
2551.70141,0.01693
2549.77269,0.01674
2547.84396,0.01653
2545.91524,0.01632
2543.98651,0.01616
2542.05779,0.01601
2540.12907,0.01580
2538.20034,0.01556
2536.27162,0.01532
2534.34290,0.01514
2532.41417,0.01506
2530.48545,0.01495
2528.55673,0.01470
2526.62800,0.01444
2524.69928,0.01431
2522.77055,0.01422
2520.84183,0.01404
2518.91311,0.01373
2516.98438,0.01339
2515.05566,0.01316
2513.12694,0.01304
2511.19821,0.01291
2509.26949,0.01265
2507.34076,0.01235
2505.41204,0.01216
2503.48332,0.01209
2501.55459,0.01203
2499.62587,0.01189
2497.69715,0.01167
2495.76842,0.01144
2493.83970,0.01127
2491.91098,0.01111
2489.98225,0.01092
2488.05353,0.01073
2486.12480,0.01055
2484.19608,0.01036
2482.26736,0.01020
2480.33863,0.01011
2478.40991,0.00998
2476.48119,0.00977
2474.55246,0.00958
2472.62374,0.00949
2470.69502,0.00936
2468.76629,0.00914
2466.83757,0.00891
2464.90884,0.00871
2462.98012,0.00854
2461.05140,0.00841
2459.12267,0.00830
2457.19395,0.00815
2455.26523,0.00795
2453.33650,0.00781
2451.40778,0.00775
2449.47905,0.00764
2447.55033,0.00741
2445.62161,0.00719
2443.69288,0.00706
2441.76416,0.00696
2439.83544,0.00680
2437.90671,0.00657
2435.97799,0.00642
2434.04927,0.00636
2432.12054,0.00630
2430.19182,0.00622
2428.26309,0.00617
2426.33437,0.00604
2424.40565,0.00579
2422.47692,0.00552
2420.54820,0.00533
2418.61948,0.00524
2416.69075,0.00520
2414.76203,0.00515
2412.83331,0.00498
2410.90458,0.00475
2408.97586,0.00455
2407.04713,0.00443
2405.11841,0.00433
2403.18969,0.00426
2401.26096,0.00419
2399.33224,0.00409
2397.40352,0.00396
2395.47479,0.00383
2393.54607,0.00371
2391.61734,0.00363
2389.68862,0.00360
2387.75990,0.00361
2385.83117,0.00362
2383.90245,0.00359
2381.97373,0.00350
2380.04500,0.00334
2378.11628,0.00321
2376.18756,0.00316
2374.25883,0.00320
2372.33011,0.00327
2370.40138,0.00332
2368.47266,0.00332
2366.54394,0.00328
2364.61521,0.00324
2362.68649,0.00326
2360.75777,0.00328
2358.82904,0.00328
2356.90032,0.00330
2354.97160,0.00330
2353.04287,0.00315
2351.11415,0.00284
2349.18542,0.00251
2347.25670,0.00237
2345.32798,0.00244
2343.39925,0.00254
2341.47053,0.00253
2339.54181,0.00245
2337.61308,0.00236
2335.68436,0.00220
2333.75563,0.00207
2331.82691,0.00207
2329.89819,0.00211
2327.96946,0.00207
2326.04074,0.00201
2324.11202,0.00199
2322.18329,0.00192
2320.25457,0.00175
2318.32585,0.00153
2316.39712,0.00136
2314.46840,0.00129
2312.53967,0.00124
2310.61095,0.00117
2308.68223,0.00111
2306.75350,0.00108
2304.82478,0.00105
2302.89606,0.00100
2300.96733,0.00092
2299.03861,0.00084
2297.10989,0.00078
2295.18116,0.00072
2293.25244,0.00069
2291.32371,0.00068
2289.39499,0.00066
2287.46627,0.00060
2285.53754,0.00051
2283.60882,0.00045
2281.68010,0.00043
2279.75137,0.00042
2277.82265,0.00042
2275.89392,0.00043
2273.96520,0.00040
2272.03648,0.00031
2270.10775,0.00026
2268.17903,0.00026
2266.25031,0.00023
2264.32158,0.00021
2262.39286,0.00024
2260.46414,0.00026
2258.53541,0.00022
2256.60669,0.00015
2254.67796,0.00016
2252.74924,0.00022
2250.82052,0.00019
2248.89179,0.00003
2246.96307,-0.00009
2245.03435,-0.00005
2243.10562,0.00005
2241.17690,0.00009
2239.24818,0.00007
2237.31945,0.00007
2235.39073,0.00010
2233.46200,0.00015
2231.53328,0.00022
2229.60456,0.00026
2227.67583,0.00022
2225.74711,0.00013
2223.81839,0.00002
2221.88966,-0.00003
2219.96094,-0.00001
2218.03221,0.00005
2216.10349,0.00010
2214.17477,0.00011
2212.24604,0.00003
2210.31732,-0.00005
2208.38860,-0.00006
2206.45987,0.00000
2204.53115,0.00005
2202.60243,0.00004
2200.67370,-0.00001
2198.74498,-0.00003
2196.81625,0.00000
2194.88753,0.00011
2192.95881,0.00021
2191.03008,0.00022
2189.10136,0.00018
2187.17264,0.00013
2185.24391,0.00004
2183.31519,-0.00005
2181.38647,-0.00007
2179.45774,0.00000
2177.52902,0.00013
2175.60029,0.00026
2173.67157,0.00031
2171.74285,0.00025
2169.81412,0.00015
2167.88540,0.00008
2165.95668,0.00009
2164.02795,0.00015
2162.09923,0.00019
2160.17050,0.00021
2158.24178,0.00022
2156.31306,0.00024
2154.38433,0.00030
2152.45561,0.00039
2150.52689,0.00047
2148.59816,0.00050
2146.66944,0.00044
2144.74072,0.00034
2142.81199,0.00028
2140.88327,0.00026
2138.95454,0.00024
2137.02582,0.00024
2135.09710,0.00027
2133.16837,0.00032
2131.23965,0.00036
2129.31093,0.00036
2127.38220,0.00035
2125.45348,0.00035
2123.52476,0.00034
2121.59603,0.00032
2119.66731,0.00032
2117.73858,0.00032
2115.80986,0.00026
2113.88114,0.00015
2111.95241,0.00012
2110.02369,0.00020
2108.09497,0.00027
2106.16624,0.00030
2104.23752,0.00028
2102.30880,0.00020
2100.38007,0.00012
2098.45135,0.00014
2096.52262,0.00018
2094.59390,0.00017
2092.66518,0.00007
2090.73645,0.00000
2088.80773,0.00004
2086.87901,0.00014
2084.95028,0.00013
2083.02156,-0.00000
2081.09283,-0.00011
2079.16411,-0.00014
2077.23539,-0.00014
2075.30666,-0.00015
2073.37794,-0.00013
2071.44922,-0.00006
2069.52049,0.00001
2067.59177,0.00009
2065.66305,0.00015
2063.73432,0.00018
2061.80560,0.00021
2059.87687,0.00025
2057.94815,0.00029
2056.01943,0.00032
2054.09070,0.00039
2052.16198,0.00049
2050.23326,0.00058
2048.30453,0.00066
2046.37581,0.00076
2044.44709,0.00089
2042.51836,0.00098
2040.58964,0.00107
2038.66091,0.00122
2036.73219,0.00141
2034.80347,0.00158
2032.87474,0.00172
2030.94602,0.00186
2029.01730,0.00199
2027.08857,0.00213
2025.15985,0.00225
2023.23112,0.00233
2021.30240,0.00243
2019.37368,0.00258
2017.44495,0.00273
2015.51623,0.00289
2013.58751,0.00304
2011.65878,0.00318
2009.73006,0.00327
2007.80134,0.00331
2005.87261,0.00336
2003.94389,0.00343
2002.01516,0.00348
2000.08644,0.00352
1998.15772,0.00353
1996.22899,0.00350
1994.30027,0.00344
1992.37155,0.00342
1990.44282,0.00344
1988.51410,0.00340
1986.58538,0.00328
1984.65665,0.00316
1982.72793,0.00309
1980.79920,0.00301
1978.87048,0.00292
1976.94176,0.00283
1975.01303,0.00276
1973.08431,0.00268
1971.15559,0.00257
1969.22686,0.00242
1967.29814,0.00229
1965.36941,0.00215
1963.44069,0.00195
1961.51197,0.00178
1959.58324,0.00165
1957.65452,0.00152
1955.72580,0.00138
1953.79707,0.00125
1951.86835,0.00110
1949.93963,0.00092
1948.01090,0.00072
1946.08218,0.00053
1944.15345,0.00042
1942.22473,0.00040
1940.29601,0.00031
1938.36728,0.00014
1936.43856,0.00004
1934.50984,0.00003
1932.58111,0.00005
1930.65239,0.00002
1928.72367,-0.00001
1926.79494,0.00000
1924.86622,0.00003
1922.93749,0.00011
1921.00877,0.00020
1919.08005,0.00035
1917.15132,0.00059
1915.22260,0.00085
1913.29388,0.00108
1911.36515,0.00135
1909.43643,0.00169
1907.50770,0.00208
1905.57898,0.00246
1903.65026,0.00284
1901.72153,0.00325
1899.79281,0.00364
1897.86409,0.00402
1895.93536,0.00445
1894.00664,0.00489
1892.07792,0.00525
1890.14919,0.00557
1888.22047,0.00593
1886.29174,0.00626
1884.36302,0.00654
1882.43430,0.00679
1880.50557,0.00700
1878.57685,0.00714
1876.64813,0.00720
1874.71940,0.00720
1872.79068,0.00714
1870.86196,0.00702
1868.93323,0.00693
1867.00451,0.00686
1865.07578,0.00674
1863.14706,0.00652
1861.21834,0.00616
1859.28961,0.00570
1857.36089,0.00522
1855.43217,0.00481
1853.50344,0.00445
1851.57472,0.00405
1849.64599,0.00354
1847.71727,0.00298
1845.78855,0.00252
1843.85982,0.00220
1841.93110,0.00193
1840.00238,0.00162
1838.07365,0.00130
1836.14493,0.00100
1834.21621,0.00074
1832.28748,0.00053
1830.35876,0.00038
1828.43003,0.00026
1826.50131,0.00012
1824.57259,0.00000
1822.64386,-0.00009
1820.71514,-0.00016
1818.78642,-0.00014
1816.85769,-0.00006
1814.92897,0.00000
1813.00025,-0.00015
1811.07152,-0.00021
1809.14280,-0.00016
1807.21407,-0.00009
1805.28535,-0.00008
1803.35663,-0.00007
1801.42790,0.00005
1799.49918,0.00029
1797.57046,0.00051
1795.64173,0.00071
1793.71301,0.00111
1791.78428,0.00183
1789.85556,0.00252
1787.92684,0.00295
1785.99811,0.00335
1784.06939,0.00390
1782.14067,0.00459
1780.21194,0.00537
1778.28322,0.00607
1776.35450,0.00654
1774.42577,0.00702
1772.49705,0.00781
1770.56832,0.00877
1768.63960,0.00958
1766.71088,0.01021
1764.78215,0.01078
1762.85343,0.01146
1760.92471,0.01232
1758.99598,0.01315
1757.06726,0.01396
1755.13854,0.01479
1753.20981,0.01559
1751.28109,0.01665
1749.35236,0.01813
1747.42364,0.01965
1745.49492,0.02097
1743.56619,0.02230
1741.63747,0.02386
1739.70875,0.02554
1737.78002,0.02691
1735.85130,0.02817
1733.92257,0.03010
1731.99385,0.03235
1730.06513,0.03406
1728.13640,0.03536
1726.20768,0.03658
1724.27896,0.03789
1722.35023,0.03916
1720.42151,0.04037
1718.49279,0.04199
1716.56406,0.04421
1714.63534,0.04619
1712.70661,0.04753
1710.77789,0.04867
1708.84917,0.05003
1706.92044,0.05184
1704.99172,0.05388
1703.06300,0.05576
1701.13427,0.05797
1699.20555,0.06096
1697.27683,0.06425
1695.34810,0.06755
1693.41938,0.07031
1691.49065,0.07249
1689.56193,0.07473
1687.63321,0.07714
1685.70448,0.08014
1683.77576,0.08422
1681.84704,0.08791
1679.91831,0.09039
1677.98959,0.09259
1676.06087,0.09531
1674.13214,0.09829
1672.20342,0.10093
1670.27469,0.10366
1668.34597,0.10651
1666.41725,0.10863
1664.48852,0.11040
1662.55980,0.11264
1660.63108,0.11495
1658.70235,0.11651
1656.77363,0.11748
1654.84490,0.11880
1652.91618,0.12083
1650.98746,0.12213
1649.05873,0.12252
1647.13001,0.12330
1645.20129,0.12453
1643.27256,0.12522
1641.34384,0.12530
1639.41512,0.12518
1637.48639,0.12523
1635.55767,0.12563
1633.62894,0.12592
1631.70022,0.12565
1629.77150,0.12497
1627.84277,0.12408
1625.91405,0.12291
1623.98533,0.12140
1622.05660,0.11965
1620.12788,0.11775
1618.19916,0.11553
1616.27043,0.11291
1614.34171,0.11026
1612.41298,0.10776
1610.48426,0.10527
1608.55554,0.10278
1606.62681,0.10032
1604.69809,0.09788
1602.76937,0.09555
1600.84064,0.09341
1598.91192,0.09135
1596.98319,0.08926
1595.05447,0.08722
1593.12575,0.08531
1591.19702,0.08348
1589.26830,0.08164
1587.33958,0.07984
1585.41085,0.07815
1583.48213,0.07660
1581.55341,0.07519
1579.62468,0.07383
1577.69596,0.07254
1575.76723,0.07140
1573.83851,0.07038
1571.90979,0.06939
1569.98106,0.06850
1568.05234,0.06777
1566.12362,0.06705
1564.19489,0.06624
1562.26617,0.06537
1560.33745,0.06466
1558.40872,0.06435
1556.48000,0.06415
1554.55127,0.06365
1552.62255,0.06291
1550.69383,0.06201
1548.76510,0.06102
1546.83638,0.05996
1544.90766,0.05881
1542.97893,0.05750
1541.05021,0.05611
1539.12148,0.05494
1537.19276,0.05403
1535.26404,0.05299
1533.33531,0.05155
1531.40659,0.04986
1529.47787,0.04815
1527.54914,0.04634
1525.62042,0.04436
1523.69170,0.04236
1521.76297,0.04039
1519.83425,0.03861
1517.90552,0.03695
1515.97680,0.03522
1514.04808,0.03342
1512.11935,0.03164
1510.19063,0.02988
1508.26191,0.02792
1506.33318,0.02564
1504.40446,0.02356
1502.47574,0.02182
1500.54701,0.02019
1498.61829,0.01860
1496.68956,0.01711
1494.76084,0.01584
1492.83212,0.01480
1490.90339,0.01393
1488.97467,0.01337
1487.04595,0.01320
1485.11722,0.01321
1483.18850,0.01334
1481.25977,0.01368
1479.33105,0.01423
1477.40233,0.01501
1475.47360,0.01629
1473.54488,0.01854
1471.61616,0.02144
1469.68743,0.02372
1467.75871,0.02512
1465.82999,0.02626
1463.90126,0.02730
1461.97254,0.02786
1460.04381,0.02801
1458.11509,0.02847
1456.18637,0.02954
1454.25764,0.03033
1452.32892,0.03052
1450.40020,0.03056
1448.47147,0.03079
1446.54275,0.03116
1444.61403,0.03144
1442.68530,0.03155
1440.75658,0.03160
1438.82785,0.03173
1436.89913,0.03214
1434.97041,0.03267
1433.04168,0.03303
1431.11296,0.03335
1429.18424,0.03390
1427.25551,0.03460
1425.32679,0.03530
1423.39806,0.03598
1421.46934,0.03672
1419.54062,0.03778
1417.61189,0.03914
1415.68317,0.04040
1413.75445,0.04160
1411.82572,0.04305
1409.89700,0.04475
1407.96828,0.04649
1406.03955,0.04817
1404.11083,0.04962
1402.18210,0.05034
1400.25338,0.05001
1398.32466,0.04863
1396.39593,0.04648
1394.46721,0.04394
1392.53849,0.04148
1390.60976,0.03929
1388.68104,0.03729
1386.75232,0.03557
1384.82359,0.03413
1382.89487,0.03268
1380.96614,0.03108
1379.03742,0.02952
1377.10870,0.02811
1375.17997,0.02675
1373.25125,0.02538
1371.32253,0.02406
1369.39380,0.02283
1367.46508,0.02167
1365.53635,0.02057
1363.60763,0.01948
1361.67891,0.01846
1359.75018,0.01761
1357.82146,0.01690
1355.89274,0.01630
1353.96401,0.01573
1352.03529,0.01515
1350.10657,0.01460
1348.17784,0.01411
1346.24912,0.01366
1344.32039,0.01324
1342.39167,0.01288
1340.46295,0.01260
1338.53422,0.01238
1336.60550,0.01213
1334.67678,0.01187
1332.74805,0.01164
1330.81933,0.01152
1328.89061,0.01150
1326.96188,0.01144
1325.03316,0.01131
1323.10443,0.01117
1321.17571,0.01104
1319.24699,0.01078
1317.31826,0.01037
1315.38954,0.00996
1313.46082,0.00966
1311.53209,0.00936
1309.60337,0.00899
1307.67464,0.00851
1305.74592,0.00775
1303.81720,0.00662
1301.88847,0.00569
1299.95975,0.00579
1298.03103,0.00676
1296.10230,0.00790
1294.17358,0.00913
1292.24486,0.01080
1290.31613,0.01300
1288.38741,0.01569
1286.45868,0.01881
1284.52996,0.02212
1282.60124,0.02550
1280.67251,0.02892
1278.74379,0.03237
1276.81507,0.03589
1274.88634,0.03968
1272.95762,0.04385
1271.02890,0.04839
1269.10017,0.05337
1267.17145,0.05883
1265.24272,0.06477
1263.31400,0.07130
1261.38528,0.07866
1259.45655,0.08685
1257.52783,0.09568
1255.59911,0.10505
1253.67038,0.11484
1251.74166,0.12483
1249.81294,0.13458
1247.88421,0.14368
1245.95549,0.15217
1244.02676,0.16024
1242.09804,0.16771
1240.16932,0.17439
1238.24059,0.18030
1236.31187,0.18555
1234.38315,0.19037
1232.45442,0.19469
1230.52570,0.19839
1228.59697,0.20175
1226.66825,0.20497
1224.73953,0.20806
1222.81080,0.21093
1220.88208,0.21349
1218.95336,0.21575
1217.02463,0.21781
1215.09591,0.21973
1213.16719,0.22159
1211.23846,0.22336
1209.30974,0.22500
1207.38101,0.22661
1205.45229,0.22824
1203.52357,0.22962
1201.59484,0.23053
1199.66612,0.23102
1197.73740,0.23131
1195.80867,0.23135
1193.87995,0.23121
1191.95123,0.23155
1190.02250,0.23281
1188.09378,0.23438
1186.16505,0.23565
1184.23633,0.23722
1182.30761,0.23978
1180.37888,0.24293
1178.45016,0.24600
1176.52144,0.24878
1174.59271,0.25120
1172.66399,0.25338
1170.73526,0.25579
1168.80654,0.25847
1166.87782,0.26116
1164.94909,0.26380
1163.02037,0.26615
1161.09165,0.26789
1159.16292,0.26934
1157.23420,0.27098
1155.30548,0.27275
1153.37675,0.27431
1151.44803,0.27567
1149.51930,0.27712
1147.59058,0.27878
1145.66186,0.28043
1143.73313,0.28207
1141.80441,0.28368
1139.87569,0.28511
1137.94696,0.28663
1136.01824,0.28863
1134.08952,0.29094
1132.16079,0.29329
1130.23207,0.29577
1128.30334,0.29835
1126.37462,0.30094
1124.44590,0.30374
1122.51717,0.30672
1120.58845,0.30982
1118.65973,0.31336
1116.73100,0.31748
1114.80228,0.32211
1112.87355,0.32739
1110.94483,0.33316
1109.01611,0.33892
1107.08738,0.34429
1105.15866,0.34947
1103.22994,0.35497
1101.30121,0.36008
1099.37249,0.36399
1097.44377,0.36720
1095.51504,0.37003
1093.58632,0.37219
1091.65759,0.37360
1089.72887,0.37432
1087.80015,0.37455
1085.87142,0.37472
1083.94270,0.37462
1082.01398,0.37378
1080.08525,0.37244
1078.15653,0.37085
1076.22781,0.36896
1074.29908,0.36665
1072.37036,0.36404
1070.44163,0.36107
1068.51291,0.35764
1066.58419,0.35406
1064.65546,0.35026
1062.72674,0.34601
1060.79802,0.34146
1058.86929,0.33667
1056.94057,0.33137
1055.01184,0.32556
1053.08312,0.31974
1051.15440,0.31421
1049.22567,0.30860
1047.29695,0.30254
1045.36823,0.29618
1043.43950,0.28971
1041.51078,0.28309
1039.58206,0.27651
1037.65333,0.26993
1035.72461,0.26323
1033.79588,0.25665
1031.86716,0.25035
1029.93844,0.24402
1028.00971,0.23738
1026.08099,0.23073
1024.15227,0.22452
1022.22354,0.21872
1020.29482,0.21312
1018.36610,0.20772
1016.43737,0.20255
1014.50865,0.19755
1012.57992,0.19285
1010.65120,0.18841
1008.72248,0.18396
1006.79375,0.17949
1004.86503,0.17529
1002.93631,0.17149
1001.00758,0.16784
999.07886,0.16428
997.15013,0.16102
995.22141,0.15802
993.29269,0.15492
991.36396,0.15168
989.43524,0.14857
987.50652,0.14574
985.57779,0.14309
983.64907,0.14071
981.72035,0.13881
979.79162,0.13735
977.86290,0.13598
975.93417,0.13458
974.00545,0.13341
972.07673,0.13281
970.14800,0.13264
968.21928,0.13252
966.29056,0.13230
964.36183,0.13223
962.43311,0.13237
960.50439,0.13229
958.57566,0.13168
956.64694,0.13085
954.71821,0.13027
952.78949,0.12975
950.86077,0.12894
948.93204,0.12788
947.00332,0.12666
945.07460,0.12526
943.14587,0.12376
941.21715,0.12206
939.28842,0.12005
937.35970,0.11808
935.43098,0.11635
933.50225,0.11452
931.57353,0.11224
929.64481,0.10962
927.71608,0.10693
925.78736,0.10415
923.85864,0.10115
921.92991,0.09816
920.00119,0.09541
918.07246,0.09265
916.14374,0.08960
914.21502,0.08644
912.28629,0.08328
910.35757,0.07998
908.42885,0.07661
906.50012,0.07337
904.57140,0.07022
902.64268,0.06705
900.71395,0.06391
898.78523,0.06097
896.85650,0.05812
894.92778,0.05513
892.99906,0.05215
891.07033,0.04940
889.14161,0.04682
887.21289,0.04432
885.28416,0.04195
883.35544,0.03982
881.42671,0.03778
879.49799,0.03554
877.56927,0.03313
875.64054,0.03080
873.71182,0.02888
871.78310,0.02739
869.85437,0.02581
867.92565,0.02402
865.99693,0.02249
864.06820,0.02117
862.13948,0.01963
860.21075,0.01790
858.28203,0.01644
856.35331,0.01543
854.42458,0.01456
852.49586,0.01369
850.56714,0.01325
848.63841,0.01348
846.70969,0.01408
844.78097,0.01490
842.85224,0.01606
840.92352,0.01772
838.99479,0.01986
837.06607,0.02238
835.13735,0.02521
833.20862,0.02808
831.27990,0.03105
829.35118,0.03417
827.42245,0.03711
825.49373,0.03984
823.56501,0.04263
821.63628,0.04560
819.70756,0.04855
817.77883,0.05127
815.85011,0.05374
813.92139,0.05599
811.99266,0.05807
810.06394,0.06008
808.13522,0.06216
806.20649,0.06448
804.27777,0.06697
802.34904,0.06900
800.42032,0.07016
798.49160,0.07062
796.56287,0.07057
794.63415,0.06996
792.70543,0.06866
790.77670,0.06708
788.84798,0.06579
786.91926,0.06442
784.99053,0.06218
783.06181,0.05912
781.13308,0.05584
779.20436,0.05265
777.27564,0.04953
775.34691,0.04624
773.41819,0.04261
771.48947,0.03906
769.56074,0.03650
767.63202,0.03504
765.70330,0.03397
763.77457,0.03306
761.84585,0.03244
759.91712,0.03186
757.98840,0.03135
756.05968,0.03117
754.13095,0.03106
752.20223,0.03076
750.27351,0.03026
748.34478,0.02972
746.41606,0.02946
744.48733,0.02930
742.55861,0.02894
740.62989,0.02869
738.70116,0.02865
736.77244,0.02860
734.84372,0.02876
732.91499,0.02921
730.98627,0.02932
729.05755,0.02879
727.12882,0.02806
725.20010,0.02781
723.27137,0.02819
721.34265,0.02888
719.41393,0.02937
717.48520,0.02966
715.55648,0.02980
713.62776,0.02970
711.69903,0.02956
709.77031,0.02978
707.84159,0.03032
705.91286,0.03087
703.98414,0.03147
702.05541,0.03225
700.12669,0.03300
698.19797,0.03355
696.26924,0.03390
694.34052,0.03407
692.41180,0.03407
690.48307,0.03392
688.55435,0.03360
686.62562,0.03319
684.69690,0.03288
682.76818,0.03274
680.83945,0.03268
678.91073,0.03261
676.98201,0.03269
675.05328,0.03323
673.12456,0.03405
671.19584,0.03454
669.26711,0.03463
667.33839,0.03459
665.40966,0.03452
663.48094,0.03443
661.55222,0.03457
659.62349,0.03522
657.69477,0.03622
655.76605,0.03716
653.83732,0.03803
651.90860,0.03897
649.97988,0.03980
648.05115,0.04044
646.12243,0.04136
644.19370,0.04283
642.26498,0.04439
640.33626,0.04552
638.40753,0.04635
636.47881,0.04723
634.55009,0.04803
632.62136,0.04839
630.69264,0.04855
628.76391,0.04897
626.83519,0.04975
624.90647,0.05061
622.97774,0.05165
621.04902,0.05297
619.12030,0.05410
617.19157,0.05457
615.26285,0.05515
613.33413,0.05647
611.40540,0.05779
609.47668,0.05873
607.54795,0.05977
605.61923,0.06107
603.69051,0.06227
601.76178,0.06336
599.83306,0.06447
597.90434,0.06558
595.97561,0.06665
594.04689,0.06756
592.11817,0.06853
590.18944,0.06991
588.26072,0.07145
586.33199,0.07298
584.40327,0.07434
582.47455,0.07518
580.54582,0.07558
578.61710,0.07608
576.68838,0.07669
574.75965,0.07713
572.83093,0.07759
570.90220,0.07769
568.97348,0.07678
567.04476,0.07560
565.11603,0.07526
563.18731,0.07580
561.25859,0.07697
559.32986,0.07861
557.40114,0.08013
555.47242,0.08067
553.54369,0.08031
551.61497,0.08004
549.68624,0.08013
547.75752,0.08028
545.82880,0.08028
543.90007,0.08024
541.97135,0.08060
540.04263,0.08104
538.11390,0.08087
536.18518,0.08066
534.25646,0.08104
532.32773,0.08116
530.39901,0.08026
528.47028,0.07874
526.54156,0.07748
524.61284,0.07749
522.68411,0.07872
520.75539,0.08008
518.82667,0.08107
516.89794,0.08175
514.96922,0.08250
513.04049,0.08436
511.11177,0.08715
509.18305,0.08990
507.25432,0.09326
505.32560,0.09742
503.39688,0.10132
501.46815,0.10541
499.53943,0.11094
497.61071,0.11769
495.68198,0.12427
493.75326,0.13006
491.82453,0.13602
489.89581,0.14231
487.96709,0.14744
486.03836,0.15102
484.10964,0.15473
482.18092,0.16025
480.25219,0.16754
478.32347,0.17521
476.39475,0.18308
474.46602,0.19265
472.53730,0.20244
470.60857,0.20750
468.67985,0.20778
466.75113,0.20761
464.82240,0.20844
462.89368,0.20896
460.96496,0.20801
459.03623,0.20577
457.10751,0.20281
455.17878,0.19785
453.25006,0.18931
451.32134,0.17886
449.39261,0.17142
447.46389,0.16954
445.53517,0.16927
443.60644,0.16583
441.67772,0.15973
439.74900,0.15283
437.82027,0.14533
435.89155,0.13900
433.96282,0.13456
432.03410,0.12870
430.10538,0.12103
428.17665,0.11603
426.24793,0.11519
424.31921,0.11480
422.39048,0.11196
420.46176,0.10598
418.53304,0.09662
416.60431,0.08834
414.67559,0.08463
412.74686,0.08144
410.81814,0.07506
408.88942,0.06720
406.96069,0.05890
405.03197,0.04947
403.10325,0.04460
401.17452,0.05195
399.24580,0.06998
397.31708,0.08555
395.38835,0.08455
393.45963,0.07115
391.53090,0.05953
389.60218,0.05610
387.67346,0.05354
385.74473,0.04193
383.81601,0.02601
381.88729,0.01898
379.95856,0.02329
378.02984,0.03214
376.10111,0.03535
374.17239,0.02337
372.24367,0.00403
370.31494,0.00000
368.38622,0.00000
