3996.31543,0.00010
3994.38671,0.00000
3992.45799,0.00001
3990.52926,0.00010
3988.60054,0.00022
3986.67182,0.00028
3984.74309,0.00025
3982.81437,0.00016
3980.88564,0.00015
3978.95692,0.00018
3977.02820,0.00030
3975.09947,0.00057
3973.17075,0.00083
3971.24203,0.00089
3969.31330,0.00088
3967.38458,0.00092
3965.45586,0.00083
3963.52713,0.00063
3961.59841,0.00057
3959.66968,0.00069
3957.74096,0.00079
3955.81224,0.00075
3953.88351,0.00061
3951.95479,0.00055
3950.02607,0.00067
3948.09734,0.00089
3946.16862,0.00102
3944.23990,0.00106
3942.31117,0.00110
3940.38245,0.00106
3938.45372,0.00090
3936.52500,0.00079
3934.59628,0.00082
3932.66755,0.00092
3930.73883,0.00084
3928.81011,0.00055
3926.88138,0.00038
3924.95266,0.00055
3923.02393,0.00074
3921.09521,0.00070
3919.16649,0.00074
3917.23776,0.00102
3915.30904,0.00117
3913.38032,0.00095
3911.45159,0.00061
3909.52287,0.00036
3907.59415,0.00026
3905.66542,0.00046
3903.73670,0.00100
3901.80797,0.00150
3899.87925,0.00164
3897.95053,0.00142
3896.02180,0.00099
3894.09308,0.00064
3892.16436,0.00060
3890.23563,0.00062
3888.30691,0.00035
3886.37819,0.00015
3884.44946,0.00032
3882.52074,0.00057
3880.59201,0.00069
3878.66329,0.00064
3876.73457,0.00044
3874.80584,0.00041
3872.87712,0.00059
3870.94840,0.00087
3869.01967,0.00112
3867.09095,0.00116
3865.16222,0.00108
3863.23350,0.00104
3861.30478,0.00084
3859.37605,0.00042
3857.44733,0.00000
3855.51861,0.00011
3853.58988,0.00119
3851.66116,0.00213
3849.73244,0.00188
3847.80371,0.00103
3845.87499,0.00035
3843.94626,0.00009
3842.01754,0.00018
3840.08882,0.00047
3838.16009,0.00087
3836.23137,0.00111
3834.30265,0.00108
3832.37392,0.00102
3830.44520,0.00096
3828.51648,0.00089
3826.58775,0.00088
3824.65903,0.00080
3822.73030,0.00078
3820.80158,0.00109
3818.87286,0.00133
3816.94413,0.00131
3815.01541,0.00132
3813.08669,0.00116
3811.15796,0.00073
3809.22924,0.00043
3807.30052,0.00067
3805.37179,0.00120
3803.44307,0.00168
3801.51434,0.00228
3799.58562,0.00273
3797.65690,0.00271
3795.72817,0.00250
3793.79945,0.00222
3791.87073,0.00198
3789.94200,0.00197
3788.01328,0.00216
3786.08455,0.00249
3784.15583,0.00282
3782.22711,0.00299
3780.29838,0.00327
3778.36966,0.00375
3776.44094,0.00398
3774.51221,0.00385
3772.58349,0.00383
3770.65477,0.00431
3768.72604,0.00517
3766.79732,0.00594
3764.86859,0.00640
3762.93987,0.00655
3761.01115,0.00672
3759.08242,0.00721
3757.15370,0.00779
3755.22498,0.00819
3753.29625,0.00881
3751.36753,0.01005
3749.43881,0.01124
3747.51008,0.01178
3745.58136,0.01266
3743.65263,0.01421
3741.72391,0.01510
3739.79519,0.01510
3737.86646,0.01544
3735.93774,0.01712
3734.00902,0.01959
3732.08029,0.02154
3730.15157,0.02262
3728.22284,0.02360
3726.29412,0.02524
3724.36540,0.02748
3722.43667,0.02987
3720.50795,0.03227
3718.57923,0.03459
3716.65050,0.03669
3714.72178,0.03882
3712.79306,0.04193
3710.86433,0.04627
3708.93561,0.05021
3707.00688,0.05287
3705.07816,0.05525
3703.14944,0.05859
3701.22071,0.06288
3699.29199,0.06695
3697.36327,0.07041
3695.43454,0.07357
3693.50582,0.07656
3691.57710,0.08010
3689.64837,0.08512
3687.71965,0.09067
3685.79092,0.09504
3683.86220,0.09847
3681.93348,0.10195
3680.00475,0.10580
3678.07603,0.11039
3676.14731,0.11646
3674.21858,0.12279
3672.28986,0.12753
3670.36113,0.13238
3668.43241,0.13813
3666.50369,0.14286
3664.57496,0.14652
3662.64624,0.15019
3660.71752,0.15399
3658.78879,0.15783
3656.86007,0.16205
3654.93135,0.16605
3653.00262,0.16898
3651.07390,0.17238
3649.14517,0.17805
3647.21645,0.18404
3645.28773,0.18780
3643.35900,0.19013
3641.43028,0.19264
3639.50156,0.19572
3637.57283,0.19896
3635.64411,0.20196
3633.71539,0.20452
3631.78666,0.20697
3629.85794,0.21059
3627.92921,0.21542
3626.00049,0.21890
3624.07177,0.22057
3622.14304,0.22210
3620.21432,0.22459
3618.28560,0.22757
3616.35687,0.22991
3614.42815,0.23183
3612.49942,0.23399
3610.57070,0.23629
3608.64198,0.23869
3606.71325,0.24111
3604.78453,0.24312
3602.85581,0.24480
3600.92708,0.24663
3598.99836,0.24874
3597.06964,0.25108
3595.14091,0.25346
3593.21219,0.25541
3591.28346,0.25678
3589.35474,0.25840
3587.42602,0.26098
3585.49729,0.26368
3583.56857,0.26548
3581.63985,0.26664
3579.71112,0.26778
3577.78240,0.26923
3575.85368,0.27101
3573.92495,0.27290
3571.99623,0.27452
3570.06750,0.27592
3568.13878,0.27777
3566.21006,0.28024
3564.28133,0.28220
3562.35261,0.28331
3560.42389,0.28433
3558.49516,0.28563
3556.56644,0.28700
3554.63771,0.28834
3552.70899,0.28972
3550.78027,0.29106
3548.85154,0.29231
3546.92282,0.29373
3544.99410,0.29527
3543.06537,0.29651
3541.13665,0.29753
3539.20793,0.29869
3537.27920,0.30006
3535.35048,0.30139
3533.42175,0.30250
3531.49303,0.30353
3529.56431,0.30475
3527.63558,0.30605
3525.70686,0.30721
3523.77814,0.30825
3521.84941,0.30927
3519.92069,0.31022
3517.99197,0.31116
3516.06324,0.31214
3514.13452,0.31312
3512.20579,0.31404
3510.27707,0.31498
3508.34835,0.31601
3506.41962,0.31700
3504.49090,0.31798
3502.56218,0.31908
3500.63345,0.32018
3498.70473,0.32117
3496.77600,0.32210
3494.84728,0.32298
3492.91856,0.32374
3490.98983,0.32441
3489.06111,0.32502
3487.13239,0.32564
3485.20366,0.32636
3483.27494,0.32729
3481.34622,0.32841
3479.41749,0.32933
3477.48877,0.32985
3475.56004,0.33034
3473.63132,0.33098
3471.70260,0.33156
3469.77387,0.33212
3467.84515,0.33295
3465.91643,0.33391
3463.98770,0.33468
3462.05898,0.33512
3460.13026,0.33535
3458.20153,0.33566
3456.27281,0.33627
3454.34408,0.33705
3452.41536,0.33774
3450.48664,0.33818
3448.55791,0.33847
3446.62919,0.33877
3444.70047,0.33912
3442.77174,0.33951
3440.84302,0.34004
3438.91429,0.34058
3436.98557,0.34090
3435.05685,0.34101
3433.12812,0.34124
3431.19940,0.34162
3429.27068,0.34186
3427.34195,0.34195
3425.41323,0.34216
3423.48451,0.34267
3421.55578,0.34341
3419.62706,0.34400
3417.69833,0.34412
3415.76961,0.34407
3413.84089,0.34437
3411.91216,0.34490
3409.98344,0.34515
3408.05472,0.34487
3406.12599,0.34443
3404.19727,0.34440
3402.26855,0.34461
3400.33982,0.34461
3398.41110,0.34459
3396.48237,0.34487
3394.55365,0.34515
3392.62493,0.34512
3390.69620,0.34487
3388.76748,0.34472
3386.83876,0.34477
3384.91003,0.34478
3382.98131,0.34454
3381.05259,0.34414
3379.12386,0.34385
3377.19514,0.34369
3375.26641,0.34356
3373.33769,0.34350
3371.40897,0.34348
3369.48024,0.34337
3367.55152,0.34325
3365.62280,0.34314
3363.69407,0.34281
3361.76535,0.34228
3359.83662,0.34174
3357.90790,0.34137
3355.97918,0.34130
3354.05045,0.34145
3352.12173,0.34149
3350.19301,0.34117
3348.26428,0.34062
3346.33556,0.34012
3344.40684,0.33980
3342.47811,0.33956
3340.54939,0.33914
3338.62066,0.33846
3336.69194,0.33776
3334.76322,0.33725
3332.83449,0.33691
3330.90577,0.33655
3328.97705,0.33616
3327.04832,0.33585
3325.11960,0.33562
3323.19088,0.33524
3321.26215,0.33471
3319.33343,0.33417
3317.40470,0.33359
3315.47598,0.33306
3313.54726,0.33276
3311.61853,0.33260
3309.68981,0.33238
3307.76109,0.33206
3305.83236,0.33161
3303.90364,0.33112
3301.97491,0.33073
3300.04619,0.33040
3298.11747,0.33012
3296.18874,0.32992
3294.26002,0.32964
3292.33130,0.32907
3290.40257,0.32830
3288.47385,0.32767
3286.54513,0.32731
3284.61640,0.32698
3282.68768,0.32653
3280.75895,0.32601
3278.83023,0.32547
3276.90151,0.32497
3274.97278,0.32454
3273.04406,0.32403
3271.11534,0.32336
3269.18661,0.32276
3267.25789,0.32219
3265.32917,0.32146
3263.40044,0.32074
3261.47172,0.32023
3259.54299,0.31981
3257.61427,0.31931
3255.68555,0.31881
3253.75682,0.31837
3251.82810,0.31775
3249.89938,0.31690
3247.97065,0.31617
3246.04193,0.31568
3244.11320,0.31506
3242.18448,0.31423
3240.25576,0.31354
3238.32703,0.31301
3236.39831,0.31242
3234.46959,0.31172
3232.54086,0.31092
3230.61214,0.31006
3228.68342,0.30931
3226.75469,0.30871
3224.82597,0.30807
3222.89724,0.30728
3220.96852,0.30634
3219.03980,0.30540
3217.11107,0.30453
3215.18235,0.30377
3213.25363,0.30317
3211.32490,0.30250
3209.39618,0.30153
3207.46746,0.30039
3205.53873,0.29932
3203.61001,0.29842
3201.68128,0.29768
3199.75256,0.29692
3197.82384,0.29594
3195.89511,0.29485
3193.96639,0.29381
3192.03767,0.29278
3190.10894,0.29173
3188.18022,0.29079
3186.25149,0.28993
3184.32277,0.28896
3182.39405,0.28781
3180.46532,0.28664
3178.53660,0.28567
3176.60788,0.28494
3174.67915,0.28417
3172.75043,0.28309
3170.82171,0.28178
3168.89298,0.28054
3166.96426,0.27953
3165.03553,0.27868
3163.10681,0.27769
3161.17809,0.27641
3159.24936,0.27504
3157.32064,0.27390
3155.39192,0.27297
3153.46319,0.27203
3151.53447,0.27095
3149.60575,0.26983
3147.67702,0.26880
3145.74830,0.26785
3143.81957,0.26682
3141.89085,0.26566
3139.96213,0.26445
3138.03340,0.26332
3136.10468,0.26241
3134.17596,0.26156
3132.24723,0.26047
3130.31851,0.25917
3128.38978,0.25786
3126.46106,0.25669
3124.53234,0.25565
3122.60361,0.25464
3120.67489,0.25365
3118.74617,0.25262
3116.81744,0.25152
3114.88872,0.25035
3112.96000,0.24923
3111.03127,0.24814
3109.10255,0.24709
3107.17382,0.24610
3105.24510,0.24502
3103.31638,0.24371
3101.38765,0.24236
3099.45893,0.24115
3097.53021,0.23994
3095.60148,0.23873
3093.67276,0.23763
3091.74404,0.23649
3089.81531,0.23527
3087.88659,0.23409
3085.95786,0.23298
3084.02914,0.23182
3082.10042,0.23063
3080.17169,0.22948
3078.24297,0.22830
3076.31425,0.22704
3074.38552,0.22564
3072.45680,0.22422
3070.52807,0.22291
3068.59935,0.22171
3066.67063,0.22062
3064.74190,0.21957
3062.81318,0.21834
3060.88446,0.21695
3058.95573,0.21560
3057.02701,0.21428
3055.09829,0.21296
3053.16956,0.21177
3051.24084,0.21065
3049.31211,0.20938
3047.38339,0.20801
3045.45467,0.20675
3043.52594,0.20565
3041.59722,0.20457
3039.66850,0.20337
3037.73977,0.20210
3035.81105,0.20089
3033.88233,0.19973
3031.95360,0.19867
3030.02488,0.19780
3028.09615,0.19693
3026.16743,0.19587
3024.23871,0.19475
3022.30998,0.19370
3020.38126,0.19274
3018.45254,0.19179
3016.52381,0.19079
3014.59509,0.18976
3012.66636,0.18877
3010.73764,0.18785
3008.80892,0.18700
3006.88019,0.18619
3004.95147,0.18541
3003.02275,0.18459
3001.09402,0.18369
2999.16530,0.18289
2997.23658,0.18227
2995.30785,0.18170
2993.37913,0.18119
2991.45040,0.18069
2989.52168,0.18016
2987.59296,0.17964
2985.66423,0.17928
2983.73551,0.17916
2981.80679,0.17916
2979.87806,0.17916
2977.94934,0.17929
2976.02062,0.17967
2974.09189,0.18024
2972.16317,0.18078
2970.23444,0.18120
2968.30572,0.18170
2966.37700,0.18233
2964.44827,0.18301
2962.51955,0.18364
2960.59083,0.18396
2958.66210,0.18382
2956.73338,0.18342
2954.80466,0.18295
2952.87593,0.18240
2950.94721,0.18190
2949.01848,0.18158
2947.08976,0.18158
2945.16104,0.18200
2943.23231,0.18292
2941.30359,0.18425
2939.37487,0.18591
2937.44614,0.18779
2935.51742,0.18971
2933.58869,0.19149
2931.65997,0.19306
2929.73125,0.19436
2927.80252,0.19530
2925.87380,0.19558
2923.94508,0.19470
2922.01635,0.19268
2920.08763,0.18990
2918.15891,0.18648
2916.23018,0.18250
2914.30146,0.17834
2912.37273,0.17441
2910.44401,0.17084
2908.51529,0.16769
2906.58656,0.16497
2904.65784,0.16256
2902.72912,0.16036
2900.80039,0.15823
2898.87167,0.15618
2896.94295,0.15429
2895.01422,0.15247
2893.08550,0.15059
2891.15677,0.14884
2889.22805,0.14727
2887.29933,0.14579
2885.37060,0.14442
2883.44188,0.14319
2881.51316,0.14213
2879.58443,0.14128
2877.65571,0.14068
2875.72698,0.14026
2873.79826,0.13970
2871.86954,0.13884
2869.94081,0.13791
2868.01209,0.13725
2866.08337,0.13701
2864.15464,0.13721
2862.22592,0.13787
2860.29720,0.13894
2858.36847,0.14018
2856.43975,0.14131
2854.51102,0.14195
2852.58230,0.14139
2850.65358,0.13894
2848.72485,0.13476
2846.79613,0.12982
2844.86741,0.12498
2842.93868,0.12066
2841.00996,0.11707
2839.08124,0.11419
2837.15251,0.11170
2835.22379,0.10944
2833.29506,0.10754
2831.36634,0.10590
2829.43762,0.10439
2827.50889,0.10297
2825.58017,0.10164
2823.65145,0.10042
2821.72272,0.09927
2819.79400,0.09815
2817.86527,0.09708
2815.93655,0.09606
2814.00783,0.09503
2812.07910,0.09407
2810.15038,0.09322
2808.22166,0.09233
2806.29293,0.09138
2804.36421,0.09040
2802.43549,0.08942
2800.50676,0.08852
2798.57804,0.08766
2796.64931,0.08679
2794.72059,0.08595
2792.79187,0.08522
2790.86314,0.08450
2788.93442,0.08362
2787.00570,0.08268
2785.07697,0.08187
2783.14825,0.08111
2781.21953,0.08030
2779.29080,0.07949
2777.36208,0.07871
2775.43335,0.07797
2773.50463,0.07723
2771.57591,0.07642
2769.64718,0.07561
2767.71846,0.07492
2765.78974,0.07430
2763.86101,0.07357
2761.93229,0.07279
2760.00356,0.07213
2758.07484,0.07150
2756.14612,0.07072
2754.21739,0.06989
2752.28867,0.06920
2750.35995,0.06866
2748.43122,0.06810
2746.50250,0.06746
2744.57378,0.06676
2742.64505,0.06605
2740.71633,0.06537
2738.78760,0.06475
2736.85888,0.06419
2734.93016,0.06364
2733.00143,0.06298
2731.07271,0.06224
2729.14399,0.06161
2727.21526,0.06108
2725.28654,0.06056
2723.35782,0.05997
2721.42909,0.05927
2719.50037,0.05852
2717.57164,0.05783
2715.64292,0.05720
2713.71420,0.05661
2711.78547,0.05606
2709.85675,0.05547
2707.92803,0.05476
2705.99930,0.05401
2704.07058,0.05339
2702.14185,0.05288
2700.21313,0.05235
2698.28441,0.05179
2696.35568,0.05131
2694.42696,0.05089
2692.49824,0.05046
2690.56951,0.04998
2688.64079,0.04942
2686.71207,0.04880
2684.78334,0.04823
2682.85462,0.04780
2680.92589,0.04742
2678.99717,0.04695
2677.06845,0.04637
2675.13972,0.04575
2673.21100,0.04519
2671.28228,0.04471
2669.35355,0.04420
2667.42483,0.04365
2665.49611,0.04313
2663.56738,0.04259
2661.63866,0.04204
2659.70993,0.04156
2657.78121,0.04110
2655.85249,0.04063
2653.92376,0.04018
2651.99504,0.03973
2650.06632,0.03925
2648.13759,0.03872
2646.20887,0.03823
2644.28014,0.03785
2642.35142,0.03749
2640.42270,0.03711
2638.49397,0.03673
2636.56525,0.03631
2634.63653,0.03584
2632.70780,0.03533
2630.77908,0.03487
2628.85036,0.03451
2626.92163,0.03415
2624.99291,0.03367
2623.06418,0.03314
2621.13546,0.03268
2619.20674,0.03231
2617.27801,0.03198
2615.34929,0.03166
2613.42057,0.03131
2611.49184,0.03091
2609.56312,0.03047
2607.63440,0.03003
2605.70567,0.02968
2603.77695,0.02942
2601.84822,0.02911
2599.91950,0.02866
2597.99078,0.02817
2596.06205,0.02780
2594.13333,0.02755
2592.20461,0.02724
2590.27588,0.02686
2588.34716,0.02651
2586.41843,0.02619
2584.48971,0.02584
2582.56099,0.02547
2580.63226,0.02512
2578.70354,0.02479
2576.77482,0.02449
2574.84609,0.02421
2572.91737,0.02387
2570.98865,0.02351
2569.05992,0.02322
2567.13120,0.02299
2565.20247,0.02273
2563.27375,0.02245
2561.34503,0.02222
2559.41630,0.02202
2557.48758,0.02176
2555.55886,0.02148
2553.63013,0.02123
2551.70141,0.02099
2549.77269,0.02072
2547.84396,0.02042
2545.91524,0.02019
2543.98651,0.02003
2542.05779,0.01985
2540.12907,0.01960
2538.20034,0.01926
2536.27162,0.01892
2534.34290,0.01870
2532.41417,0.01850
2530.48545,0.01824
2528.55673,0.01802
2526.62800,0.01786
2524.69928,0.01769
2522.77055,0.01750
2520.84183,0.01729
2518.91311,0.01703
2516.98438,0.01680
2515.05566,0.01660
2513.12694,0.01639
2511.19821,0.01616
2509.26949,0.01596
2507.34076,0.01579
2505.41204,0.01558
2503.48332,0.01534
2501.55459,0.01511
2499.62587,0.01492
2497.69715,0.01477
2495.76842,0.01461
2493.83970,0.01439
2491.91098,0.01412
2489.98225,0.01387
2488.05353,0.01365
2486.12480,0.01343
2484.19608,0.01319
2482.26736,0.01296
2480.33863,0.01276
2478.40991,0.01260
2476.48119,0.01245
2474.55246,0.01226
2472.62374,0.01206
2470.69502,0.01189
2468.76629,0.01172
2466.83757,0.01149
2464.90884,0.01124
2462.98012,0.01104
2461.05140,0.01089
2459.12267,0.01072
2457.19395,0.01055
2455.26523,0.01042
2453.33650,0.01029
2451.40778,0.01010
2449.47905,0.00987
2447.55033,0.00962
2445.62161,0.00938
2443.69288,0.00919
2441.76416,0.00901
2439.83544,0.00881
2437.90671,0.00865
2435.97799,0.00853
2434.04927,0.00842
2432.12054,0.00826
2430.19182,0.00808
2428.26309,0.00798
2426.33437,0.00791
2424.40565,0.00774
2422.47692,0.00745
2420.54820,0.00714
2418.61948,0.00692
2416.69075,0.00683
2414.76203,0.00674
2412.83331,0.00655
2410.90458,0.00634
2408.97586,0.00621
2407.04713,0.00609
2405.11841,0.00596
2403.18969,0.00585
2401.26096,0.00575
2399.33224,0.00556
2397.40352,0.00535
2395.47479,0.00520
2393.54607,0.00509
2391.61734,0.00495
2389.68862,0.00480
2387.75990,0.00472
2385.83117,0.00469
2383.90245,0.00464
2381.97373,0.00455
2380.04500,0.00451
2378.11628,0.00451
2376.18756,0.00446
2374.25883,0.00442
2372.33011,0.00448
2370.40138,0.00460
2368.47266,0.00465
2366.54394,0.00468
2364.61521,0.00472
2362.68649,0.00471
2360.75777,0.00463
2358.82904,0.00446
2356.90032,0.00423
2354.97160,0.00412
2353.04287,0.00426
2351.11415,0.00455
2349.18542,0.00450
2347.25670,0.00388
2345.32798,0.00329
2343.39925,0.00317
2341.47053,0.00319
2339.54181,0.00315
2337.61308,0.00320
2335.68436,0.00332
2333.75563,0.00342
2331.82691,0.00344
2329.89819,0.00332
2327.96946,0.00313
2326.04074,0.00299
2324.11202,0.00288
2322.18329,0.00276
2320.25457,0.00268
2318.32585,0.00267
2316.39712,0.00256
2314.46840,0.00230
2312.53967,0.00201
2310.61095,0.00182
2308.68223,0.00172
2306.75350,0.00163
2304.82478,0.00153
2302.89606,0.00140
2300.96733,0.00126
2299.03861,0.00117
2297.10989,0.00115
2295.18116,0.00114
2293.25244,0.00111
2291.32371,0.00103
2289.39499,0.00097
2287.46627,0.00099
2285.53754,0.00107
2283.60882,0.00108
2281.68010,0.00096
2279.75137,0.00082
2277.82265,0.00078
2275.89392,0.00080
2273.96520,0.00078
2272.03648,0.00070
2270.10775,0.00059
2268.17903,0.00053
2266.25031,0.00053
2264.32158,0.00056
2262.39286,0.00056
2260.46414,0.00052
2258.53541,0.00050
2256.60669,0.00050
2254.67796,0.00047
2252.74924,0.00041
2250.82052,0.00032
2248.89179,0.00025
2246.96307,0.00025
2245.03435,0.00019
2243.10562,0.00009
2241.17690,0.00000
2239.24818,-0.00002
2237.31945,0.00002
2235.39073,0.00003
2233.46200,-0.00004
2231.53328,-0.00013
2229.60456,-0.00018
2227.67583,-0.00018
2225.74711,-0.00014
2223.81839,-0.00010
2221.88966,-0.00006
2219.96094,-0.00003
2218.03221,-0.00007
2216.10349,-0.00012
2214.17477,-0.00014
2212.24604,-0.00014
2210.31732,-0.00011
2208.38860,-0.00004
2206.45987,0.00000
2204.53115,0.00002
2202.60243,0.00004
2200.67370,0.00002
2198.74498,-0.00001
2196.81625,-0.00001
2194.88753,0.00001
2192.95881,0.00001
2191.03008,0.00001
2189.10136,0.00005
2187.17264,0.00009
2185.24391,0.00008
2183.31519,0.00004
2181.38647,-0.00002
2179.45774,-0.00003
2177.52902,0.00001
2175.60029,0.00009
2173.67157,0.00014
2171.74285,0.00013
2169.81412,0.00005
2167.88540,0.00001
2165.95668,0.00008
2164.02795,0.00014
2162.09923,0.00011
2160.17050,0.00006
2158.24178,0.00006
2156.31306,0.00011
2154.38433,0.00015
2152.45561,0.00016
2150.52689,0.00015
2148.59816,0.00011
2146.66944,0.00008
2144.74072,0.00009
2142.81199,0.00018
2140.88327,0.00025
2138.95454,0.00021
2137.02582,0.00017
2135.09710,0.00024
2133.16837,0.00033
2131.23965,0.00036
2129.31093,0.00039
2127.38220,0.00043
2125.45348,0.00045
2123.52476,0.00040
2121.59603,0.00026
2119.66731,0.00011
2117.73858,0.00007
2115.80986,0.00012
2113.88114,0.00013
2111.95241,0.00007
2110.02369,0.00003
2108.09497,0.00002
2106.16624,0.00001
2104.23752,0.00001
2102.30880,0.00005
2100.38007,0.00006
2098.45135,0.00003
2096.52262,0.00000
2094.59390,0.00000
2092.66518,-0.00003
2090.73645,-0.00007
2088.80773,-0.00011
2086.87901,-0.00013
2084.95028,-0.00015
2083.02156,-0.00018
2081.09283,-0.00020
2079.16411,-0.00022
2077.23539,-0.00024
2075.30666,-0.00026
2073.37794,-0.00026
2071.44922,-0.00027
2069.52049,-0.00029
2067.59177,-0.00026
2065.66305,-0.00018
2063.73432,-0.00010
2061.80560,-0.00002
2059.87687,0.00004
2057.94815,0.00008
2056.01943,0.00014
2054.09070,0.00028
2052.16198,0.00043
2050.23326,0.00053
2048.30453,0.00060
2046.37581,0.00067
2044.44709,0.00080
2042.51836,0.00099
2040.58964,0.00119
2038.66091,0.00138
2036.73219,0.00156
2034.80347,0.00175
2032.87474,0.00193
2030.94602,0.00209
2029.01730,0.00222
2027.08857,0.00237
2025.15985,0.00250
2023.23112,0.00258
2021.30240,0.00269
2019.37368,0.00286
2017.44495,0.00305
2015.51623,0.00320
2013.58751,0.00331
2011.65878,0.00337
2009.73006,0.00340
2007.80134,0.00348
2005.87261,0.00362
2003.94389,0.00373
2002.01516,0.00379
2000.08644,0.00389
1998.15772,0.00401
1996.22899,0.00401
1994.30027,0.00394
1992.37155,0.00392
1990.44282,0.00394
1988.51410,0.00392
1986.58538,0.00383
1984.65665,0.00372
1982.72793,0.00363
1980.79920,0.00355
1978.87048,0.00348
1976.94176,0.00340
1975.01303,0.00328
1973.08431,0.00311
1971.15559,0.00294
1969.22686,0.00281
1967.29814,0.00276
1965.36941,0.00264
1963.44069,0.00238
1961.51197,0.00208
1959.58324,0.00188
1957.65452,0.00176
1955.72580,0.00164
1953.79707,0.00150
1951.86835,0.00131
1949.93963,0.00108
1948.01090,0.00089
1946.08218,0.00078
1944.15345,0.00074
1942.22473,0.00070
1940.29601,0.00055
1938.36728,0.00034
1936.43856,0.00018
1934.50984,0.00011
1932.58111,0.00008
1930.65239,0.00005
1928.72367,0.00002
1926.79494,0.00000
1924.86622,0.00001
1922.93749,0.00009
1921.00877,0.00021
1919.08005,0.00043
1917.15132,0.00077
1915.22260,0.00105
1913.29388,0.00123
1911.36515,0.00148
1909.43643,0.00189
1907.50770,0.00236
1905.57898,0.00281
1903.65026,0.00324
1901.72153,0.00366
1899.79281,0.00404
1897.86409,0.00443
1895.93536,0.00490
1894.00664,0.00536
1892.07792,0.00573
1890.14919,0.00614
1888.22047,0.00664
1886.29174,0.00706
1884.36302,0.00737
1882.43430,0.00763
1880.50557,0.00782
1878.57685,0.00797
1876.64813,0.00810
1874.71940,0.00814
1872.79068,0.00808
1870.86196,0.00804
1868.93323,0.00812
1867.00451,0.00811
1865.07578,0.00777
1863.14706,0.00722
1861.21834,0.00667
1859.28961,0.00618
1857.36089,0.00571
1855.43217,0.00524
1853.50344,0.00479
1851.57472,0.00434
1849.64599,0.00390
1847.71727,0.00349
1845.78855,0.00318
1843.85982,0.00291
1841.93110,0.00250
1840.00238,0.00197
1838.07365,0.00153
1836.14493,0.00122
1834.21621,0.00092
1832.28748,0.00073
1830.35876,0.00073
1828.43003,0.00075
1826.50131,0.00064
1824.57259,0.00044
1822.64386,0.00019
1820.71514,0.00000
1818.78642,-0.00009
1816.85769,-0.00005
1814.92897,0.00000
1813.00025,-0.00002
1811.07152,0.00011
1809.14280,0.00026
1807.21407,0.00028
1805.28535,0.00024
1803.35663,0.00034
1801.42790,0.00067
1799.49918,0.00111
1797.57046,0.00141
1795.64173,0.00161
1793.71301,0.00206
1791.78428,0.00291
1789.85556,0.00367
1787.92684,0.00409
1785.99811,0.00458
1784.06939,0.00538
1782.14067,0.00634
1780.21194,0.00725
1778.28322,0.00796
1776.35450,0.00849
1774.42577,0.00917
1772.49705,0.01036
1770.56832,0.01174
1768.63960,0.01275
1766.71088,0.01346
1764.78215,0.01412
1762.85343,0.01504
1760.92471,0.01621
1758.99598,0.01730
1757.06726,0.01829
1755.13854,0.01918
1753.20981,0.02005
1751.28109,0.02147
1749.35236,0.02353
1747.42364,0.02553
1745.49492,0.02714
1743.56619,0.02871
1741.63747,0.03058
1739.70875,0.03265
1737.78002,0.03443
1735.85130,0.03627
1733.92257,0.03904
1731.99385,0.04191
1730.06513,0.04386
1728.13640,0.04545
1726.20768,0.04717
1724.27896,0.04905
1722.35023,0.05082
1720.42151,0.05247
1718.49279,0.05478
1716.56406,0.05793
1714.63534,0.06065
1712.70661,0.06249
1710.77789,0.06417
1708.84917,0.06626
1706.92044,0.06901
1704.99172,0.07201
1703.06300,0.07481
1701.13427,0.07826
1699.20555,0.08284
1697.27683,0.08742
1695.34810,0.09163
1693.41938,0.09520
1691.49065,0.09832
1689.56193,0.10171
1687.63321,0.10528
1685.70448,0.10973
1683.77576,0.11591
1681.84704,0.12144
1679.91831,0.12494
1677.98959,0.12790
1676.06087,0.13171
1674.13214,0.13607
1672.20342,0.13999
1670.27469,0.14392
1668.34597,0.14798
1666.41725,0.15111
1664.48852,0.15381
1662.55980,0.15713
1660.63108,0.16030
1658.70235,0.16219
1656.77363,0.16320
1654.84490,0.16486
1652.91618,0.16796
1650.98746,0.17036
1649.05873,0.17127
1647.13001,0.17227
1645.20129,0.17346
1643.27256,0.17397
1641.34384,0.17407
1639.41512,0.17420
1637.48639,0.17454
1635.55767,0.17505
1633.62894,0.17501
1631.70022,0.17418
1629.77150,0.17301
1627.84277,0.17180
1625.91405,0.17039
1623.98533,0.16854
1622.05660,0.16621
1620.12788,0.16361
1618.19916,0.16073
1616.27043,0.15753
1614.34171,0.15437
1612.41298,0.15141
1610.48426,0.14839
1608.55554,0.14520
1606.62681,0.14194
1604.69809,0.13875
1602.76937,0.13562
1600.84064,0.13257
1598.91192,0.12972
1596.98319,0.12705
1595.05447,0.12440
1593.12575,0.12175
1591.19702,0.11920
1589.26830,0.11678
1587.33958,0.11441
1585.41085,0.11212
1583.48213,0.10991
1581.55341,0.10781
1579.62468,0.10584
1577.69596,0.10406
1575.76723,0.10243
1573.83851,0.10084
1571.90979,0.09932
1569.98106,0.09805
1568.05234,0.09701
1566.12362,0.09593
1564.19489,0.09469
1562.26617,0.09338
1560.33745,0.09233
1558.40872,0.09181
1556.48000,0.09127
1554.55127,0.09034
1552.62255,0.08927
1550.69383,0.08818
1548.76510,0.08701
1546.83638,0.08583
1544.90766,0.08469
1542.97893,0.08346
1541.05021,0.08189
1539.12148,0.07988
1537.19276,0.07774
1535.26404,0.07565
1533.33531,0.07351
1531.40659,0.07125
1529.47787,0.06892
1527.54914,0.06647
1525.62042,0.06393
1523.69170,0.06150
1521.76297,0.05917
1519.83425,0.05688
1517.90552,0.05451
1515.97680,0.05205
1514.04808,0.04958
1512.11935,0.04718
1510.19063,0.04482
1508.26191,0.04227
1506.33318,0.03919
1504.40446,0.03604
1502.47574,0.03323
1500.54701,0.03066
1498.61829,0.02826
1496.68956,0.02613
1494.76084,0.02430
1492.83212,0.02276
1490.90339,0.02161
1488.97467,0.02101
1487.04595,0.02078
1485.11722,0.02066
1483.18850,0.02086
1481.25977,0.02156
1479.33105,0.02254
1477.40233,0.02375
1475.47360,0.02582
1473.54488,0.02943
1471.61616,0.03388
1469.68743,0.03732
1467.75871,0.03954
1465.82999,0.04144
1463.90126,0.04298
1461.97254,0.04366
1460.04381,0.04400
1458.11509,0.04501
1456.18637,0.04641
1454.25764,0.04685
1452.32892,0.04656
1450.40020,0.04634
1448.47147,0.04647
1446.54275,0.04677
1444.61403,0.04701
1442.68530,0.04714
1440.75658,0.04723
1438.82785,0.04750
1436.89913,0.04821
1434.97041,0.04904
1433.04168,0.04946
1431.11296,0.04972
1429.18424,0.05023
1427.25551,0.05096
1425.32679,0.05177
1423.39806,0.05255
1421.46934,0.05328
1419.54062,0.05430
1417.61189,0.05561
1415.68317,0.05659
1413.75445,0.05726
1411.82572,0.05804
1409.89700,0.05903
1407.96828,0.06015
1406.03955,0.06126
1404.11083,0.06209
1402.18210,0.06223
1400.25338,0.06160
1398.32466,0.06037
1396.39593,0.05861
1394.46721,0.05643
1392.53849,0.05419
1390.60976,0.05228
1388.68104,0.05086
1386.75232,0.04983
1384.82359,0.04880
1382.89487,0.04751
1380.96614,0.04608
1379.03742,0.04469
1377.10870,0.04337
1375.17997,0.04191
1373.25125,0.04025
1371.32253,0.03858
1369.39380,0.03711
1367.46508,0.03576
1365.53635,0.03436
1363.60763,0.03291
1361.67891,0.03152
1359.75018,0.03030
1357.82146,0.02924
1355.89274,0.02830
1353.96401,0.02747
1352.03529,0.02676
1350.10657,0.02618
1348.17784,0.02567
1346.24912,0.02518
1344.32039,0.02469
1342.39167,0.02426
1340.46295,0.02397
1338.53422,0.02377
1336.60550,0.02346
1334.67678,0.02306
1332.74805,0.02274
1330.81933,0.02259
1328.89061,0.02258
1326.96188,0.02263
1325.03316,0.02265
1323.10443,0.02257
1321.17571,0.02248
1319.24699,0.02253
1317.31826,0.02264
1315.38954,0.02261
1313.46082,0.02250
1311.53209,0.02250
1309.60337,0.02262
1307.67464,0.02271
1305.74592,0.02272
1303.81720,0.02269
1301.88847,0.02292
1299.95975,0.02369
1298.03103,0.02495
1296.10230,0.02638
1294.17358,0.02789
1292.24486,0.02970
1290.31613,0.03198
1288.38741,0.03468
1286.45868,0.03765
1284.52996,0.04082
1282.60124,0.04418
1280.67251,0.04788
1278.74379,0.05199
1276.81507,0.05636
1274.88634,0.06085
1272.95762,0.06561
1271.02890,0.07098
1269.10017,0.07700
1267.17145,0.08365
1265.24272,0.09104
1263.31400,0.09923
1261.38528,0.10836
1259.45655,0.11858
1257.52783,0.12976
1255.59911,0.14176
1253.67038,0.15440
1251.74166,0.16726
1249.81294,0.17995
1247.88421,0.19213
1245.95549,0.20349
1244.02676,0.21402
1242.09804,0.22381
1240.16932,0.23287
1238.24059,0.24114
1236.31187,0.24853
1234.38315,0.25524
1232.45442,0.26147
1230.52570,0.26710
1228.59697,0.27200
1226.66825,0.27643
1224.73953,0.28070
1222.81080,0.28483
1220.88208,0.28870
1218.95336,0.29221
1217.02463,0.29543
1215.09591,0.29848
1213.16719,0.30144
1211.23846,0.30433
1209.30974,0.30713
1207.38101,0.30979
1205.45229,0.31220
1203.52357,0.31452
1201.59484,0.31693
1199.66612,0.31903
1197.73740,0.32057
1195.80867,0.32202
1193.87995,0.32377
1191.95123,0.32589
1190.02250,0.32830
1188.09378,0.33080
1186.16505,0.33308
1184.23633,0.33525
1182.30761,0.33802
1180.37888,0.34160
1178.45016,0.34531
1176.52144,0.34856
1174.59271,0.35151
1172.66399,0.35459
1170.73526,0.35781
1168.80654,0.36065
1166.87782,0.36301
1164.94909,0.36545
1163.02037,0.36821
1161.09165,0.37091
1159.16292,0.37317
1157.23420,0.37514
1155.30548,0.37714
1153.37675,0.37926
1151.44803,0.38160
1149.51930,0.38426
1147.59058,0.38675
1145.66186,0.38863
1143.73313,0.39056
1141.80441,0.39304
1139.87569,0.39569
1137.94696,0.39815
1136.01824,0.40066
1134.08952,0.40354
1132.16079,0.40682
1130.23207,0.41058
1128.30334,0.41441
1126.37462,0.41796
1124.44590,0.42212
1122.51717,0.42743
1120.58845,0.43298
1118.65973,0.43819
1116.73100,0.44357
1114.80228,0.44958
1112.87355,0.45662
1110.94483,0.46443
1109.01611,0.47216
1107.08738,0.47951
1105.15866,0.48618
1103.22994,0.49228
1101.30121,0.49809
1099.37249,0.50250
1097.44377,0.50485
1095.51504,0.50662
1093.58632,0.50887
1091.65759,0.51051
1089.72887,0.51040
1087.80015,0.50856
1085.87142,0.50577
1083.94270,0.50332
1082.01398,0.50136
1080.08525,0.49867
1078.15653,0.49502
1076.22781,0.49141
1074.29908,0.48772
1072.37036,0.48354
1070.44163,0.47884
1068.51291,0.47295
1066.58419,0.46606
1064.65546,0.45985
1062.72674,0.45469
1060.79802,0.44923
1058.86929,0.44271
1056.94057,0.43525
1055.01184,0.42754
1053.08312,0.42043
1051.15440,0.41351
1049.22567,0.40609
1047.29695,0.39825
1045.36823,0.39019
1043.43950,0.38218
1041.51078,0.37433
1039.58206,0.36648
1037.65333,0.35878
1035.72461,0.35137
1033.79588,0.34393
1031.86716,0.33654
1029.93844,0.32930
1028.00971,0.32193
1026.08099,0.31467
1024.15227,0.30804
1022.22354,0.30192
1020.29482,0.29609
1018.36610,0.29056
1016.43737,0.28538
1014.50865,0.28067
1012.57992,0.27618
1010.65120,0.27149
1008.72248,0.26671
1006.79375,0.26217
1004.86503,0.25812
1002.93631,0.25450
1001.00758,0.25081
999.07886,0.24706
997.15013,0.24368
995.22141,0.24053
993.29269,0.23730
991.36396,0.23424
989.43524,0.23146
987.50652,0.22880
985.57779,0.22629
983.64907,0.22393
981.72035,0.22172
979.79162,0.22006
977.86290,0.21898
975.93417,0.21797
974.00545,0.21686
972.07673,0.21574
970.14800,0.21472
968.21928,0.21396
966.29056,0.21347
964.36183,0.21317
962.43311,0.21294
960.50439,0.21248
958.57566,0.21136
956.64694,0.20971
954.71821,0.20824
952.78949,0.20702
950.86077,0.20551
948.93204,0.20356
947.00332,0.20126
945.07460,0.19868
943.14587,0.19613
941.21715,0.19360
939.28842,0.19069
937.35970,0.18749
935.43098,0.18445
933.50225,0.18143
931.57353,0.17803
929.64481,0.17438
927.71608,0.17047
925.78736,0.16605
923.85864,0.16159
921.92991,0.15767
920.00119,0.15390
918.07246,0.14977
916.14374,0.14521
914.21502,0.14032
912.28629,0.13554
910.35757,0.13120
908.42885,0.12697
906.50012,0.12265
904.57140,0.11856
902.64268,0.11456
900.71395,0.11009
898.78523,0.10544
896.85650,0.10136
894.92778,0.09785
892.99906,0.09434
891.07033,0.09060
889.14161,0.08710
887.21289,0.08389
885.28416,0.08054
883.35544,0.07724
881.42671,0.07428
879.49799,0.07153
877.56927,0.06895
875.64054,0.06648
873.71182,0.06409
871.78310,0.06184
869.85437,0.05966
867.92565,0.05749
865.99693,0.05526
864.06820,0.05303
862.13948,0.05125
860.21075,0.04994
858.28203,0.04847
856.35331,0.04662
854.42458,0.04492
852.49586,0.04384
850.56714,0.04342
848.63841,0.04337
846.70969,0.04364
844.78097,0.04442
842.85224,0.04562
840.92352,0.04730
838.99479,0.04971
837.06607,0.05273
835.13735,0.05618
833.20862,0.05983
831.27990,0.06326
829.35118,0.06640
827.42245,0.06947
825.49373,0.07284
823.56501,0.07648
821.63628,0.08004
819.70756,0.08341
817.77883,0.08651
815.85011,0.08933
813.92139,0.09226
811.99266,0.09562
810.06394,0.09902
808.13522,0.10182
806.20649,0.10425
804.27777,0.10675
802.34904,0.10902
800.42032,0.11061
798.49160,0.11136
796.56287,0.11095
794.63415,0.10955
792.70543,0.10811
790.77670,0.10682
788.84798,0.10520
786.91926,0.10310
784.99053,0.10030
783.06181,0.09662
781.13308,0.09291
779.20436,0.08966
777.27564,0.08618
775.34691,0.08229
773.41819,0.07862
771.48947,0.07534
769.56074,0.07251
767.63202,0.07039
765.70330,0.06889
763.77457,0.06773
761.84585,0.06695
759.91712,0.06660
757.98840,0.06628
756.05968,0.06588
754.13095,0.06576
752.20223,0.06570
750.27351,0.06536
748.34478,0.06524
746.41606,0.06531
744.48733,0.06496
742.55861,0.06438
740.62989,0.06400
738.70116,0.06381
736.77244,0.06376
734.84372,0.06385
732.91499,0.06432
730.98627,0.06508
729.05755,0.06560
727.12882,0.06589
725.20010,0.06663
723.27137,0.06780
721.34265,0.06851
719.41393,0.06850
717.48520,0.06847
715.55648,0.06885
713.62776,0.06964
711.69903,0.07094
709.77031,0.07248
707.84159,0.07364
705.91286,0.07422
703.98414,0.07480
702.05541,0.07588
700.12669,0.07719
698.19797,0.07823
696.26924,0.07906
694.34052,0.07994
692.41180,0.08081
690.48307,0.08125
688.55435,0.08110
686.62562,0.08073
684.69690,0.08040
682.76818,0.08020
680.83945,0.08040
678.91073,0.08121
676.98201,0.08230
675.05328,0.08325
673.12456,0.08379
671.19584,0.08327
669.26711,0.08196
667.33839,0.08222
665.40966,0.08419
663.48094,0.08558
661.55222,0.08604
659.62349,0.08651
657.69477,0.08738
655.76605,0.08845
653.83732,0.08948
651.90860,0.09093
649.97988,0.09310
648.05115,0.09524
646.12243,0.09654
644.19370,0.09727
642.26498,0.09831
640.33626,0.09984
638.40753,0.10119
636.47881,0.10201
634.55009,0.10299
632.62136,0.10459
630.69264,0.10617
628.76391,0.10721
626.83519,0.10812
624.90647,0.10923
622.97774,0.11052
621.04902,0.11174
619.12030,0.11268
617.19157,0.11383
615.26285,0.11526
613.33413,0.11625
611.40540,0.11693
609.47668,0.11803
607.54795,0.11965
605.61923,0.12123
603.69051,0.12246
601.76178,0.12368
599.83306,0.12553
597.90434,0.12826
595.97561,0.13110
594.04689,0.13300
592.11817,0.13438
590.18944,0.13593
588.26072,0.13722
586.33199,0.13788
584.40327,0.13822
582.47455,0.13847
580.54582,0.13876
578.61710,0.13945
576.68838,0.14060
574.75965,0.14193
572.83093,0.14264
570.90220,0.14182
568.97348,0.14045
567.04476,0.14043
565.11603,0.14101
563.18731,0.14047
561.25859,0.13981
559.32986,0.14015
557.40114,0.14068
555.47242,0.14116
553.54369,0.14186
551.61497,0.14226
549.68624,0.14220
547.75752,0.14230
545.82880,0.14260
543.90007,0.14286
541.97135,0.14340
540.04263,0.14379
538.11390,0.14308
536.18518,0.14152
534.25646,0.14020
532.32773,0.13957
530.39901,0.13925
528.47028,0.13861
526.54156,0.13754
524.61284,0.13659
522.68411,0.13604
520.75539,0.13632
518.82667,0.13828
516.89794,0.14135
514.96922,0.14457
513.04049,0.14797
511.11177,0.15126
509.18305,0.15441
507.25432,0.15831
505.32560,0.16318
503.39688,0.16869
501.46815,0.17400
499.53943,0.17833
497.61071,0.18353
495.68198,0.19162
493.75326,0.20050
491.82453,0.20712
489.89581,0.21265
487.96709,0.21986
486.03836,0.22878
484.10964,0.23786
482.18092,0.24585
480.25219,0.25207
478.32347,0.25791
476.39475,0.26587
474.46602,0.27551
472.53730,0.28340
470.60857,0.28767
468.67985,0.28914
466.75113,0.28839
464.82240,0.28508
462.89368,0.27963
460.96496,0.27465
459.03623,0.27210
457.10751,0.26945
455.17878,0.26340
453.25006,0.25467
451.32134,0.24604
449.39261,0.23989
447.46389,0.23711
445.53517,0.23591
443.60644,0.23220
441.67772,0.22351
439.74900,0.21181
437.82027,0.20064
435.89155,0.19360
433.96282,0.19147
432.03410,0.18854
430.10538,0.18114
428.17665,0.17300
426.24793,0.16550
424.31921,0.15631
422.39048,0.14935
420.46176,0.14975
418.53304,0.15188
416.60431,0.14998
414.67559,0.14697
412.74686,0.13955
410.81814,0.12630
408.88942,0.11524
406.96069,0.10752
405.03197,0.09805
403.10325,0.08903
401.17452,0.08451
399.24580,0.08181
397.31708,0.07389
395.38835,0.06177
393.45963,0.05768
391.53090,0.06677
389.60218,0.08069
387.67346,0.08767
385.74473,0.07983
383.81601,0.06083
381.88729,0.04849
379.95856,0.04572
378.02984,0.03194
376.10111,0.00632
374.17239,0.00000
372.24367,0.00381
370.31494,0.00491
368.38622,0.00000
