3996.31543,-0.00001
3994.38671,0.00021
3992.45799,0.00024
3990.52926,0.00010
3988.60054,0.00000
3986.67182,0.00005
3984.74309,0.00016
3982.81437,0.00024
3980.88564,0.00034
3978.95692,0.00053
3977.02820,0.00074
3975.09947,0.00079
3973.17075,0.00070
3971.24203,0.00063
3969.31330,0.00061
3967.38458,0.00064
3965.45586,0.00077
3963.52713,0.00094
3961.59841,0.00100
3959.66968,0.00093
3957.74096,0.00083
3955.81224,0.00079
3953.88351,0.00077
3951.95479,0.00069
3950.02607,0.00052
3948.09734,0.00038
3946.16862,0.00045
3944.23990,0.00062
3942.31117,0.00067
3940.38245,0.00063
3938.45372,0.00070
3936.52500,0.00080
3934.59628,0.00074
3932.66755,0.00054
3930.73883,0.00038
3928.81011,0.00043
3926.88138,0.00066
3924.95266,0.00086
3923.02393,0.00091
3921.09521,0.00087
3919.16649,0.00080
3917.23776,0.00070
3915.30904,0.00060
3913.38032,0.00054
3911.45159,0.00051
3909.52287,0.00063
3907.59415,0.00097
3905.66542,0.00116
3903.73670,0.00086
3901.80797,0.00039
3899.87925,0.00025
3897.95053,0.00048
3896.02180,0.00093
3894.09308,0.00129
3892.16436,0.00124
3890.23563,0.00098
3888.30691,0.00093
3886.37819,0.00088
3884.44946,0.00064
3882.52074,0.00050
3880.59201,0.00043
3878.66329,0.00037
3876.73457,0.00051
3874.80584,0.00074
3872.87712,0.00080
3870.94840,0.00073
3869.01967,0.00062
3867.09095,0.00063
3865.16222,0.00057
3863.23350,0.00022
3861.30478,0.00000
3859.37605,0.00031
3857.44733,0.00106
3855.51861,0.00159
3853.58988,0.00121
3851.66116,0.00025
3849.73244,-0.00015
3847.80371,0.00009
3845.87499,0.00047
3843.94626,0.00069
3842.01754,0.00084
3840.08882,0.00094
3838.16009,0.00069
3836.23137,0.00027
3834.30265,0.00020
3832.37392,0.00040
3830.44520,0.00060
3828.51648,0.00079
3826.58775,0.00095
3824.65903,0.00118
3822.73030,0.00141
3820.80158,0.00129
3818.87286,0.00096
3816.94413,0.00067
3815.01541,0.00040
3813.08669,0.00045
3811.15796,0.00097
3809.22924,0.00156
3807.30052,0.00176
3805.37179,0.00167
3803.44307,0.00165
3801.51434,0.00158
3799.58562,0.00145
3797.65690,0.00150
3795.72817,0.00160
3793.79945,0.00165
3791.87073,0.00181
3789.94200,0.00219
3788.01328,0.00269
3786.08455,0.00308
3784.15583,0.00333
3782.22711,0.00358
3780.29838,0.00373
3778.36966,0.00371
3776.44094,0.00385
3774.51221,0.00429
3772.58349,0.00478
3770.65477,0.00511
3768.72604,0.00524
3766.79732,0.00534
3764.86859,0.00561
3762.93987,0.00611
3761.01115,0.00671
3759.08242,0.00721
3757.15370,0.00760
3755.22498,0.00816
3753.29625,0.00889
3751.36753,0.00944
3749.43881,0.00978
3747.51008,0.01038
3745.58136,0.01124
3743.65263,0.01201
3741.72391,0.01280
3739.79519,0.01394
3737.86646,0.01534
3735.93774,0.01665
3734.00902,0.01772
3732.08029,0.01890
3730.15157,0.02041
3728.22284,0.02220
3726.29412,0.02426
3724.36540,0.02646
3722.43667,0.02863
3720.50795,0.03080
3718.57923,0.03316
3716.65050,0.03570
3714.72178,0.03837
3712.79306,0.04127
3710.86433,0.04444
3708.93561,0.04771
3707.00688,0.05099
3705.07816,0.05446
3703.14944,0.05833
3701.22071,0.06244
3699.29199,0.06634
3697.36327,0.07002
3695.43454,0.07365
3693.50582,0.07713
3691.57710,0.08059
3689.64837,0.08454
3687.71965,0.08898
3685.79092,0.09331
3683.86220,0.09742
3681.93348,0.10157
3680.00475,0.10592
3678.07603,0.11070
3676.14731,0.11623
3674.21858,0.12178
3672.28986,0.12655
3670.36113,0.13135
3668.43241,0.13629
3666.50369,0.14056
3664.57496,0.14444
3662.64624,0.14836
3660.71752,0.15226
3658.78879,0.15607
3656.86007,0.15987
3654.93135,0.16347
3653.00262,0.16666
3651.07390,0.17000
3649.14517,0.17402
3647.21645,0.17812
3645.28773,0.18148
3643.35900,0.18435
3641.43028,0.18728
3639.50156,0.19036
3637.57283,0.19339
3635.64411,0.19630
3633.71539,0.19896
3631.78666,0.20129
3629.85794,0.20376
3627.92921,0.20677
3626.00049,0.20967
3624.07177,0.21207
3622.14304,0.21422
3620.21432,0.21627
3618.28560,0.21819
3616.35687,0.21985
3614.42815,0.22149
3612.49942,0.22335
3610.57070,0.22538
3608.64198,0.22749
3606.71325,0.22954
3604.78453,0.23132
3602.85581,0.23284
3600.92708,0.23442
3598.99836,0.23626
3597.06964,0.23829
3595.14091,0.24028
3593.21219,0.24199
3591.28346,0.24335
3589.35474,0.24452
3587.42602,0.24589
3585.49729,0.24778
3583.56857,0.24993
3581.63985,0.25183
3579.71112,0.25334
3577.78240,0.25477
3575.85368,0.25635
3573.92495,0.25795
3571.99623,0.25935
3570.06750,0.26051
3568.13878,0.26155
3566.21006,0.26269
3564.28133,0.26395
3562.35261,0.26531
3560.42389,0.26680
3558.49516,0.26828
3556.56644,0.26956
3554.63771,0.27064
3552.70899,0.27172
3550.78027,0.27282
3548.85154,0.27391
3546.92282,0.27515
3544.99410,0.27661
3543.06537,0.27804
3541.13665,0.27933
3539.20793,0.28058
3537.27920,0.28174
3535.35048,0.28271
3533.42175,0.28365
3531.49303,0.28468
3529.56431,0.28572
3527.63558,0.28674
3525.70686,0.28780
3523.77814,0.28879
3521.84941,0.28971
3519.92069,0.29078
3517.99197,0.29201
3516.06324,0.29306
3514.13452,0.29379
3512.20579,0.29450
3510.27707,0.29539
3508.34835,0.29638
3506.41962,0.29732
3504.49090,0.29823
3502.56218,0.29920
3500.63345,0.30019
3498.70473,0.30117
3496.77600,0.30206
3494.84728,0.30270
3492.91856,0.30322
3490.98983,0.30396
3489.06111,0.30495
3487.13239,0.30595
3485.20366,0.30676
3483.27494,0.30734
3481.34622,0.30784
3479.41749,0.30843
3477.48877,0.30903
3475.56004,0.30957
3473.63132,0.31007
3471.70260,0.31061
3469.77387,0.31123
3467.84515,0.31185
3465.91643,0.31241
3463.98770,0.31298
3462.05898,0.31351
3460.13026,0.31398
3458.20153,0.31451
3456.27281,0.31509
3454.34408,0.31559
3452.41536,0.31602
3450.48664,0.31656
3448.55791,0.31713
3446.62919,0.31761
3444.70047,0.31794
3442.77174,0.31812
3440.84302,0.31831
3438.91429,0.31872
3436.98557,0.31929
3435.05685,0.31976
3433.12812,0.32003
3431.19940,0.32025
3429.27068,0.32057
3427.34195,0.32086
3425.41323,0.32104
3423.48451,0.32114
3421.55578,0.32116
3419.62706,0.32127
3417.69833,0.32158
3415.76961,0.32189
3413.84089,0.32211
3411.91216,0.32239
3409.98344,0.32257
3408.05472,0.32248
3406.12599,0.32227
3404.19727,0.32208
3402.26855,0.32209
3400.33982,0.32234
3398.41110,0.32260
3396.48237,0.32280
3394.55365,0.32294
3392.62493,0.32302
3390.69620,0.32299
3388.76748,0.32280
3386.83876,0.32259
3384.91003,0.32256
3382.98131,0.32271
3381.05259,0.32276
3379.12386,0.32263
3377.19514,0.32247
3375.26641,0.32231
3373.33769,0.32202
3371.40897,0.32167
3369.48024,0.32146
3367.55152,0.32138
3365.62280,0.32130
3363.69407,0.32117
3361.76535,0.32100
3359.83662,0.32080
3357.90790,0.32059
3355.97918,0.32034
3354.05045,0.31990
3352.12173,0.31933
3350.19301,0.31890
3348.26428,0.31874
3346.33556,0.31863
3344.40684,0.31830
3342.47811,0.31776
3340.54939,0.31733
3338.62066,0.31713
3336.69194,0.31687
3334.76322,0.31642
3332.83449,0.31593
3330.90577,0.31556
3328.97705,0.31524
3327.04832,0.31489
3325.11960,0.31461
3323.19088,0.31437
3321.26215,0.31408
3319.33343,0.31380
3317.40470,0.31354
3315.47598,0.31315
3313.54726,0.31264
3311.61853,0.31222
3309.68981,0.31198
3307.76109,0.31181
3305.83236,0.31150
3303.90364,0.31108
3301.97491,0.31075
3300.04619,0.31054
3298.11747,0.31027
3296.18874,0.30977
3294.26002,0.30918
3292.33130,0.30873
3290.40257,0.30830
3288.47385,0.30778
3286.54513,0.30743
3284.61640,0.30734
3282.68768,0.30720
3280.75895,0.30696
3278.83023,0.30670
3276.90151,0.30623
3274.97278,0.30548
3273.04406,0.30474
3271.11534,0.30429
3269.18661,0.30394
3267.25789,0.30343
3265.32917,0.30287
3263.40044,0.30242
3261.47172,0.30195
3259.54299,0.30135
3257.61427,0.30064
3255.68555,0.30006
3253.75682,0.29975
3251.82810,0.29943
3249.89938,0.29885
3247.97065,0.29816
3246.04193,0.29758
3244.11320,0.29709
3242.18448,0.29652
3240.25576,0.29580
3238.32703,0.29510
3236.39831,0.29454
3234.46959,0.29402
3232.54086,0.29341
3230.61214,0.29280
3228.68342,0.29221
3226.75469,0.29161
3224.82597,0.29099
3222.89724,0.29028
3220.96852,0.28941
3219.03980,0.28852
3217.11107,0.28779
3215.18235,0.28720
3213.25363,0.28663
3211.32490,0.28592
3209.39618,0.28502
3207.46746,0.28422
3205.53873,0.28360
3203.61001,0.28285
3201.68128,0.28181
3199.75256,0.28074
3197.82384,0.27993
3195.89511,0.27930
3193.96639,0.27862
3192.03767,0.27783
3190.10894,0.27698
3188.18022,0.27609
3186.25149,0.27513
3184.32277,0.27421
3182.39405,0.27322
3180.46532,0.27202
3178.53660,0.27092
3176.60788,0.27006
3174.67915,0.26924
3172.75043,0.26842
3170.82171,0.26759
3168.89298,0.26663
3166.96426,0.26556
3165.03553,0.26449
3163.10681,0.26346
3161.17809,0.26246
3159.24936,0.26148
3157.32064,0.26045
3155.39192,0.25942
3153.46319,0.25853
3151.53447,0.25774
3149.60575,0.25681
3147.67702,0.25574
3145.74830,0.25473
3143.81957,0.25376
3141.89085,0.25268
3139.96213,0.25169
3138.03340,0.25089
3136.10468,0.25004
3134.17596,0.24902
3132.24723,0.24807
3130.31851,0.24725
3128.38978,0.24631
3126.46106,0.24523
3124.53234,0.24418
3122.60361,0.24318
3120.67489,0.24227
3118.74617,0.24141
3116.81744,0.24039
3114.88872,0.23919
3112.96000,0.23803
3111.03127,0.23698
3109.10255,0.23595
3107.17382,0.23489
3105.24510,0.23384
3103.31638,0.23285
3101.38765,0.23183
3099.45893,0.23073
3097.53021,0.22965
3095.60148,0.22857
3093.67276,0.22746
3091.74404,0.22638
3089.81531,0.22539
3087.88659,0.22444
3085.95786,0.22339
3084.02914,0.22217
3082.10042,0.22086
3080.17169,0.21967
3078.24297,0.21856
3076.31425,0.21739
3074.38552,0.21611
3072.45680,0.21486
3070.52807,0.21376
3068.59935,0.21278
3066.67063,0.21175
3064.74190,0.21058
3062.81318,0.20932
3060.88446,0.20813
3058.95573,0.20713
3057.02701,0.20609
3055.09829,0.20484
3053.16956,0.20357
3051.24084,0.20240
3049.31211,0.20126
3047.38339,0.20016
3045.45467,0.19918
3043.52594,0.19819
3041.59722,0.19705
3039.66850,0.19597
3037.73977,0.19509
3035.81105,0.19426
3033.88233,0.19344
3031.95360,0.19283
3030.02488,0.19240
3028.09615,0.19186
3026.16743,0.19121
3024.23871,0.19056
3022.30998,0.18995
3020.38126,0.18938
3018.45254,0.18897
3016.52381,0.18886
3014.59509,0.18889
3012.66636,0.18848
3010.73764,0.18730
3008.80892,0.18577
3006.88019,0.18446
3004.95147,0.18356
3003.02275,0.18299
3001.09402,0.18257
2999.16530,0.18221
2997.23658,0.18184
2995.30785,0.18139
2993.37913,0.18083
2991.45040,0.18020
2989.52168,0.17971
2987.59296,0.17986
2985.66423,0.18063
2983.73551,0.18087
2981.80679,0.17988
2979.87806,0.17847
2977.94934,0.17749
2976.02062,0.17701
2974.09189,0.17674
2972.16317,0.17634
2970.23444,0.17584
2968.30572,0.17542
2966.37700,0.17516
2964.44827,0.17501
2962.51955,0.17487
2960.59083,0.17457
2958.66210,0.17406
2956.73338,0.17344
2954.80466,0.17283
2952.87593,0.17228
2950.94721,0.17178
2949.01848,0.17140
2947.08976,0.17120
2945.16104,0.17126
2943.23231,0.17174
2941.30359,0.17267
2939.37487,0.17375
2937.44614,0.17476
2935.51742,0.17578
2933.58869,0.17693
2931.65997,0.17809
2929.73125,0.17905
2927.80252,0.17957
2925.87380,0.17948
2923.94508,0.17869
2922.01635,0.17714
2920.08763,0.17482
2918.15891,0.17196
2916.23018,0.16890
2914.30146,0.16589
2912.37273,0.16297
2910.44401,0.16014
2908.51529,0.15747
2906.58656,0.15516
2904.65784,0.15319
2902.72912,0.15140
2900.80039,0.14964
2898.87167,0.14783
2896.94295,0.14597
2895.01422,0.14410
2893.08550,0.14229
2891.15677,0.14067
2889.22805,0.13922
2887.29933,0.13787
2885.37060,0.13660
2883.44188,0.13542
2881.51316,0.13447
2879.58443,0.13373
2877.65571,0.13307
2875.72698,0.13241
2873.79826,0.13171
2871.86954,0.13091
2869.94081,0.13008
2868.01209,0.12936
2866.08337,0.12881
2864.15464,0.12857
2862.22592,0.12881
2860.29720,0.12947
2858.36847,0.13033
2856.43975,0.13110
2854.51102,0.13139
2852.58230,0.13077
2850.65358,0.12890
2848.72485,0.12574
2846.79613,0.12179
2844.86741,0.11781
2842.93868,0.11433
2841.00996,0.11148
2839.08124,0.10910
2837.15251,0.10696
2835.22379,0.10507
2833.29506,0.10345
2831.36634,0.10200
2829.43762,0.10064
2827.50889,0.09941
2825.58017,0.09834
2823.65145,0.09729
2821.72272,0.09612
2819.79400,0.09490
2817.86527,0.09380
2815.93655,0.09287
2814.00783,0.09197
2812.07910,0.09102
2810.15038,0.09009
2808.22166,0.08922
2806.29293,0.08836
2804.36421,0.08749
2802.43549,0.08658
2800.50676,0.08571
2798.57804,0.08496
2796.64931,0.08417
2794.72059,0.08327
2792.79187,0.08239
2790.86314,0.08161
2788.93442,0.08084
2787.00570,0.08003
2785.07697,0.07921
2783.14825,0.07843
2781.21953,0.07770
2779.29080,0.07697
2777.36208,0.07620
2775.43335,0.07541
2773.50463,0.07463
2771.57591,0.07391
2769.64718,0.07327
2767.71846,0.07266
2765.78974,0.07199
2763.86101,0.07127
2761.93229,0.07056
2760.00356,0.06989
2758.07484,0.06923
2756.14612,0.06858
2754.21739,0.06791
2752.28867,0.06723
2750.35995,0.06661
2748.43122,0.06600
2746.50250,0.06533
2744.57378,0.06463
2742.64505,0.06396
2740.71633,0.06335
2738.78760,0.06273
2736.85888,0.06216
2734.93016,0.06162
2733.00143,0.06102
2731.07271,0.06034
2729.14399,0.05966
2727.21526,0.05909
2725.28654,0.05854
2723.35782,0.05797
2721.42909,0.05741
2719.50037,0.05680
2717.57164,0.05608
2715.64292,0.05530
2713.71420,0.05457
2711.78547,0.05396
2709.85675,0.05344
2707.92803,0.05290
2705.99930,0.05230
2704.07058,0.05172
2702.14185,0.05117
2700.21313,0.05056
2698.28441,0.04990
2696.35568,0.04934
2694.42696,0.04892
2692.49824,0.04847
2690.56951,0.04789
2688.64079,0.04733
2686.71207,0.04686
2684.78334,0.04639
2682.85462,0.04585
2680.92589,0.04528
2678.99717,0.04475
2677.06845,0.04424
2675.13972,0.04372
2673.21100,0.04320
2671.28228,0.04266
2669.35355,0.04217
2667.42483,0.04177
2665.49611,0.04134
2663.56738,0.04082
2661.63866,0.04023
2659.70993,0.03963
2657.78121,0.03915
2655.85249,0.03880
2653.92376,0.03841
2651.99504,0.03788
2650.06632,0.03736
2648.13759,0.03689
2646.20887,0.03638
2644.28014,0.03587
2642.35142,0.03545
2640.42270,0.03511
2638.49397,0.03475
2636.56525,0.03434
2634.63653,0.03392
2632.70780,0.03349
2630.77908,0.03305
2628.85036,0.03260
2626.92163,0.03215
2624.99291,0.03171
2623.06418,0.03130
2621.13546,0.03092
2619.20674,0.03060
2617.27801,0.03026
2615.34929,0.02983
2613.42057,0.02937
2611.49184,0.02900
2609.56312,0.02869
2607.63440,0.02838
2605.70567,0.02802
2603.77695,0.02765
2601.84822,0.02733
2599.91950,0.02701
2597.99078,0.02661
2596.06205,0.02622
2594.13333,0.02593
2592.20461,0.02565
2590.27588,0.02535
2588.34716,0.02503
2586.41843,0.02469
2584.48971,0.02431
2582.56099,0.02394
2580.63226,0.02364
2578.70354,0.02336
2576.77482,0.02301
2574.84609,0.02261
2572.91737,0.02226
2570.98865,0.02198
2569.05992,0.02173
2567.13120,0.02143
2565.20247,0.02109
2563.27375,0.02078
2561.34503,0.02047
2559.41630,0.02017
2557.48758,0.01992
2555.55886,0.01965
2553.63013,0.01933
2551.70141,0.01905
2549.77269,0.01882
2547.84396,0.01859
2545.91524,0.01834
2543.98651,0.01807
2542.05779,0.01780
2540.12907,0.01759
2538.20034,0.01744
2536.27162,0.01729
2534.34290,0.01714
2532.41417,0.01697
2530.48545,0.01673
2528.55673,0.01646
2526.62800,0.01619
2524.69928,0.01597
2522.77055,0.01583
2520.84183,0.01572
2518.91311,0.01548
2516.98438,0.01516
2515.05566,0.01490
2513.12694,0.01470
2511.19821,0.01445
2509.26949,0.01419
2507.34076,0.01396
2505.41204,0.01380
2503.48332,0.01367
2501.55459,0.01354
2499.62587,0.01339
2497.69715,0.01320
2495.76842,0.01300
2493.83970,0.01279
2491.91098,0.01260
2489.98225,0.01243
2488.05353,0.01225
2486.12480,0.01209
2484.19608,0.01194
2482.26736,0.01172
2480.33863,0.01145
2478.40991,0.01120
2476.48119,0.01101
2474.55246,0.01080
2472.62374,0.01055
2470.69502,0.01031
2468.76629,0.01007
2466.83757,0.00987
2464.90884,0.00975
2462.98012,0.00965
2461.05140,0.00943
2459.12267,0.00913
2457.19395,0.00884
2455.26523,0.00859
2453.33650,0.00836
2451.40778,0.00817
2449.47905,0.00804
2447.55033,0.00790
2445.62161,0.00775
2443.69288,0.00764
2441.76416,0.00753
2439.83544,0.00737
2437.90671,0.00717
2435.97799,0.00698
2434.04927,0.00682
2432.12054,0.00668
2430.19182,0.00653
2428.26309,0.00640
2426.33437,0.00629
2424.40565,0.00615
2422.47692,0.00599
2420.54820,0.00583
2418.61948,0.00567
2416.69075,0.00556
2414.76203,0.00546
2412.83331,0.00532
2410.90458,0.00514
2408.97586,0.00496
2407.04713,0.00484
2405.11841,0.00475
2403.18969,0.00464
2401.26096,0.00455
2399.33224,0.00446
2397.40352,0.00435
2395.47479,0.00421
2393.54607,0.00408
2391.61734,0.00395
2389.68862,0.00385
2387.75990,0.00378
2385.83117,0.00375
2383.90245,0.00370
2381.97373,0.00364
2380.04500,0.00365
2378.11628,0.00374
2376.18756,0.00384
2374.25883,0.00385
2372.33011,0.00377
2370.40138,0.00373
2368.47266,0.00384
2366.54394,0.00409
2364.61521,0.00430
2362.68649,0.00433
2360.75777,0.00419
2358.82904,0.00399
2356.90032,0.00379
2354.97160,0.00360
2353.04287,0.00339
2351.11415,0.00319
2349.18542,0.00312
2347.25670,0.00310
2345.32798,0.00299
2343.39925,0.00279
2341.47053,0.00266
2339.54181,0.00258
2337.61308,0.00236
2335.68436,0.00204
2333.75563,0.00179
2331.82691,0.00165
2329.89819,0.00161
2327.96946,0.00161
2326.04074,0.00154
2324.11202,0.00139
2322.18329,0.00126
2320.25457,0.00120
2318.32585,0.00117
2316.39712,0.00113
2314.46840,0.00106
2312.53967,0.00099
2310.61095,0.00094
2308.68223,0.00090
2306.75350,0.00089
2304.82478,0.00090
2302.89606,0.00085
2300.96733,0.00066
2299.03861,0.00047
2297.10989,0.00041
2295.18116,0.00045
2293.25244,0.00049
2291.32371,0.00049
2289.39499,0.00050
2287.46627,0.00054
2285.53754,0.00057
2283.60882,0.00055
2281.68010,0.00054
2279.75137,0.00055
2277.82265,0.00056
2275.89392,0.00055
2273.96520,0.00055
2272.03648,0.00057
2270.10775,0.00058
2268.17903,0.00056
2266.25031,0.00055
2264.32158,0.00053
2262.39286,0.00044
2260.46414,0.00033
2258.53541,0.00026
2256.60669,0.00024
2254.67796,0.00021
2252.74924,0.00011
2250.82052,0.00000
2248.89179,-0.00006
2246.96307,-0.00003
2245.03435,-0.00003
2243.10562,-0.00008
2241.17690,-0.00018
2239.24818,-0.00030
2237.31945,-0.00039
2235.39073,-0.00042
2233.46200,-0.00041
2231.53328,-0.00040
2229.60456,-0.00044
2227.67583,-0.00049
2225.74711,-0.00048
2223.81839,-0.00050
2221.88966,-0.00055
2219.96094,-0.00056
2218.03221,-0.00052
2216.10349,-0.00040
2214.17477,-0.00025
2212.24604,-0.00014
2210.31732,-0.00008
2208.38860,-0.00004
2206.45987,0.00000
2204.53115,-0.00001
2202.60243,-0.00003
2200.67370,0.00004
2198.74498,0.00016
2196.81625,0.00024
2194.88753,0.00022
2192.95881,0.00014
2191.03008,0.00011
2189.10136,0.00017
2187.17264,0.00028
2185.24391,0.00039
2183.31519,0.00044
2181.38647,0.00042
2179.45774,0.00038
2177.52902,0.00036
2175.60029,0.00035
2173.67157,0.00030
2171.74285,0.00026
2169.81412,0.00028
2167.88540,0.00029
2165.95668,0.00029
2164.02795,0.00028
2162.09923,0.00025
2160.17050,0.00026
2158.24178,0.00036
2156.31306,0.00051
2154.38433,0.00060
2152.45561,0.00058
2150.52689,0.00050
2148.59816,0.00048
2146.66944,0.00057
2144.74072,0.00072
2142.81199,0.00089
2140.88327,0.00101
2138.95454,0.00105
2137.02582,0.00104
2135.09710,0.00100
2133.16837,0.00095
2131.23965,0.00093
2129.31093,0.00093
2127.38220,0.00089
2125.45348,0.00078
2123.52476,0.00064
2121.59603,0.00055
2119.66731,0.00050
2117.73858,0.00042
2115.80986,0.00037
2113.88114,0.00038
2111.95241,0.00036
2110.02369,0.00028
2108.09497,0.00023
2106.16624,0.00023
2104.23752,0.00020
2102.30880,0.00011
2100.38007,0.00004
2098.45135,0.00002
2096.52262,0.00001
2094.59390,0.00000
2092.66518,-0.00004
2090.73645,-0.00008
2088.80773,-0.00018
2086.87901,-0.00025
2084.95028,-0.00025
2083.02156,-0.00030
2081.09283,-0.00039
2079.16411,-0.00041
2077.23539,-0.00040
2075.30666,-0.00042
2073.37794,-0.00049
2071.44922,-0.00056
2069.52049,-0.00063
2067.59177,-0.00061
2065.66305,-0.00052
2063.73432,-0.00044
2061.80560,-0.00036
2059.87687,-0.00026
2057.94815,-0.00015
2056.01943,-0.00005
2054.09070,0.00004
2052.16198,0.00012
2050.23326,0.00022
2048.30453,0.00033
2046.37581,0.00045
2044.44709,0.00060
2042.51836,0.00079
2040.58964,0.00097
2038.66091,0.00119
2036.73219,0.00143
2034.80347,0.00166
2032.87474,0.00185
2030.94602,0.00204
2029.01730,0.00225
2027.08857,0.00244
2025.15985,0.00257
2023.23112,0.00267
2021.30240,0.00276
2019.37368,0.00286
2017.44495,0.00293
2015.51623,0.00299
2013.58751,0.00305
2011.65878,0.00311
2009.73006,0.00318
2007.80134,0.00322
2005.87261,0.00320
2003.94389,0.00319
2002.01516,0.00324
2000.08644,0.00329
1998.15772,0.00330
1996.22899,0.00331
1994.30027,0.00334
1992.37155,0.00335
1990.44282,0.00332
1988.51410,0.00323
1986.58538,0.00315
1984.65665,0.00314
1982.72793,0.00317
1980.79920,0.00314
1978.87048,0.00305
1976.94176,0.00294
1975.01303,0.00279
1973.08431,0.00266
1971.15559,0.00255
1969.22686,0.00242
1967.29814,0.00222
1965.36941,0.00202
1963.44069,0.00187
1961.51197,0.00174
1959.58324,0.00159
1957.65452,0.00140
1955.72580,0.00122
1953.79707,0.00107
1951.86835,0.00092
1949.93963,0.00074
1948.01090,0.00061
1946.08218,0.00048
1944.15345,0.00031
1942.22473,0.00016
1940.29601,0.00008
1938.36728,0.00005
1936.43856,0.00001
1934.50984,-0.00007
1932.58111,-0.00013
1930.65239,-0.00015
1928.72367,-0.00009
1926.79494,0.00000
1924.86622,-0.00004
1922.93749,-0.00017
1921.00877,-0.00015
1919.08005,0.00006
1917.15132,0.00033
1915.22260,0.00064
1913.29388,0.00103
1911.36515,0.00140
1909.43643,0.00172
1907.50770,0.00205
1905.57898,0.00246
1903.65026,0.00294
1901.72153,0.00347
1899.79281,0.00398
1897.86409,0.00442
1895.93536,0.00486
1894.00664,0.00535
1892.07792,0.00581
1890.14919,0.00619
1888.22047,0.00652
1886.29174,0.00686
1884.36302,0.00717
1882.43430,0.00743
1880.50557,0.00768
1878.57685,0.00789
1876.64813,0.00803
1874.71940,0.00811
1872.79068,0.00812
1870.86196,0.00800
1868.93323,0.00770
1867.00451,0.00737
1865.07578,0.00713
1863.14706,0.00688
1861.21834,0.00653
1859.28961,0.00617
1857.36089,0.00582
1855.43217,0.00546
1853.50344,0.00501
1851.57472,0.00450
1849.64599,0.00403
1847.71727,0.00367
1845.78855,0.00331
1843.85982,0.00276
1841.93110,0.00218
1840.00238,0.00175
1838.07365,0.00143
1836.14493,0.00113
1834.21621,0.00087
1832.28748,0.00067
1830.35876,0.00047
1828.43003,0.00028
1826.50131,0.00014
1824.57259,0.00000
1822.64386,-0.00012
1820.71514,-0.00017
1818.78642,-0.00016
1816.85769,-0.00010
1814.92897,0.00000
1813.00025,0.00001
1811.07152,-0.00000
1809.14280,0.00004
1807.21407,0.00016
1805.28535,0.00033
1803.35663,0.00052
1801.42790,0.00075
1799.49918,0.00105
1797.57046,0.00146
1795.64173,0.00195
1793.71301,0.00245
1791.78428,0.00300
1789.85556,0.00362
1787.92684,0.00433
1785.99811,0.00508
1784.06939,0.00585
1782.14067,0.00668
1780.21194,0.00760
1778.28322,0.00857
1776.35450,0.00950
1774.42577,0.01046
1772.49705,0.01153
1770.56832,0.01258
1768.63960,0.01352
1766.71088,0.01444
1764.78215,0.01542
1762.85343,0.01646
1760.92471,0.01752
1758.99598,0.01856
1757.06726,0.01965
1755.13854,0.02079
1753.20981,0.02196
1751.28109,0.02329
1749.35236,0.02480
1747.42364,0.02637
1745.49492,0.02794
1743.56619,0.02964
1741.63747,0.03158
1739.70875,0.03370
1737.78002,0.03572
1735.85130,0.03771
1733.92257,0.04003
1731.99385,0.04240
1730.06513,0.04441
1728.13640,0.04629
1726.20768,0.04817
1724.27896,0.05011
1722.35023,0.05202
1720.42151,0.05388
1718.49279,0.05602
1716.56406,0.05859
1714.63534,0.06106
1712.70661,0.06319
1710.77789,0.06525
1708.84917,0.06745
1706.92044,0.06995
1704.99172,0.07270
1703.06300,0.07552
1701.13427,0.07883
1699.20555,0.08292
1697.27683,0.08722
1695.34810,0.09145
1693.41938,0.09515
1691.49065,0.09849
1689.56193,0.10204
1687.63321,0.10571
1685.70448,0.10980
1683.77576,0.11490
1681.84704,0.11967
1679.91831,0.12331
1677.98959,0.12659
1676.06087,0.13025
1674.13214,0.13413
1672.20342,0.13772
1670.27469,0.14141
1668.34597,0.14528
1666.41725,0.14847
1664.48852,0.15118
1662.55980,0.15412
1660.63108,0.15698
1658.70235,0.15917
1656.77363,0.16087
1654.84490,0.16265
1652.91618,0.16472
1650.98746,0.16623
1649.05873,0.16709
1647.13001,0.16812
1645.20129,0.16941
1643.27256,0.17040
1641.34384,0.17110
1639.41512,0.17162
1637.48639,0.17183
1635.55767,0.17170
1633.62894,0.17143
1631.70022,0.17106
1629.77150,0.17040
1627.84277,0.16934
1625.91405,0.16790
1623.98533,0.16600
1622.05660,0.16385
1620.12788,0.16181
1618.19916,0.15949
1616.27043,0.15643
1614.34171,0.15338
1612.41298,0.15077
1610.48426,0.14813
1608.55554,0.14521
1606.62681,0.14226
1604.69809,0.13942
1602.76937,0.13663
1600.84064,0.13392
1598.91192,0.13139
1596.98319,0.12895
1595.05447,0.12650
1593.12575,0.12413
1591.19702,0.12188
1589.26830,0.11969
1587.33958,0.11756
1585.41085,0.11555
1583.48213,0.11367
1581.55341,0.11194
1579.62468,0.11035
1577.69596,0.10870
1575.76723,0.10693
1573.83851,0.10547
1571.90979,0.10432
1569.98106,0.10303
1568.05234,0.10176
1566.12362,0.10090
1564.19489,0.10041
1562.26617,0.10013
1560.33745,0.09960
1558.40872,0.09833
1556.48000,0.09707
1554.55127,0.09637
1552.62255,0.09579
1550.69383,0.09505
1548.76510,0.09421
1546.83638,0.09337
1544.90766,0.09236
1542.97893,0.09088
1541.05021,0.08882
1539.12148,0.08672
1537.19276,0.08531
1535.26404,0.08402
1533.33531,0.08216
1531.40659,0.08014
1529.47787,0.07835
1527.54914,0.07648
1525.62042,0.07439
1523.69170,0.07230
1521.76297,0.07016
1519.83425,0.06799
1517.90552,0.06585
1515.97680,0.06362
1514.04808,0.06151
1512.11935,0.05970
1510.19063,0.05803
1508.26191,0.05575
1506.33318,0.05230
1504.40446,0.04907
1502.47574,0.04681
1500.54701,0.04481
1498.61829,0.04257
1496.68956,0.04037
1494.76084,0.03878
1492.83212,0.03775
1490.90339,0.03680
1488.97467,0.03595
1487.04595,0.03567
1485.11722,0.03609
1483.18850,0.03705
1481.25977,0.03847
1479.33105,0.04023
1477.40233,0.04226
1475.47360,0.04478
1473.54488,0.04816
1471.61616,0.05198
1469.68743,0.05519
1467.75871,0.05801
1465.82999,0.06099
1463.90126,0.06304
1461.97254,0.06317
1460.04381,0.06268
1458.11509,0.06299
1456.18637,0.06390
1454.25764,0.06434
1452.32892,0.06416
1450.40020,0.06378
1448.47147,0.06358
1446.54275,0.06390
1444.61403,0.06501
1442.68530,0.06687
1440.75658,0.06921
1438.82785,0.07165
1436.89913,0.07372
1434.97041,0.07494
1433.04168,0.07606
1431.11296,0.07849
1429.18424,0.08147
1427.25551,0.08260
1425.32679,0.08183
1423.39806,0.08116
1421.46934,0.08140
1419.54062,0.08190
1417.61189,0.08207
1415.68317,0.08183
1413.75445,0.08132
1411.82572,0.08073
1409.89700,0.08032
1407.96828,0.08019
1406.03955,0.08024
1404.11083,0.08033
1402.18210,0.08030
1400.25338,0.07982
1398.32466,0.07863
1396.39593,0.07689
1394.46721,0.07498
1392.53849,0.07319
1390.60976,0.07164
1388.68104,0.07025
1386.75232,0.06908
1384.82359,0.06815
1382.89487,0.06723
1380.96614,0.06622
1379.03742,0.06526
1377.10870,0.06432
1375.17997,0.06307
1373.25125,0.06151
1371.32253,0.05999
1369.39380,0.05865
1367.46508,0.05739
1365.53635,0.05612
1363.60763,0.05476
1361.67891,0.05339
1359.75018,0.05217
1357.82146,0.05114
1355.89274,0.05026
1353.96401,0.04954
1352.03529,0.04895
1350.10657,0.04841
1348.17784,0.04789
1346.24912,0.04744
1344.32039,0.04712
1342.39167,0.04687
1340.46295,0.04660
1338.53422,0.04644
1336.60550,0.04662
1334.67678,0.04708
1332.74805,0.04759
1330.81933,0.04814
1328.89061,0.04889
1326.96188,0.05006
1325.03316,0.05180
1323.10443,0.05438
1321.17571,0.05836
1319.24699,0.06446
1317.31826,0.07306
1315.38954,0.08401
1313.46082,0.09696
1311.53209,0.11106
1309.60337,0.12583
1307.67464,0.14340
1305.74592,0.16895
1303.81720,0.20484
1301.88847,0.23994
1299.95975,0.25629
1298.03103,0.25676
1296.10230,0.25734
1294.17358,0.25901
1292.24486,0.25347
1290.31613,0.23940
1288.38741,0.22031
1286.45868,0.19886
1284.52996,0.17737
1282.60124,0.15791
1280.67251,0.14170
1278.74379,0.12930
1276.81507,0.12072
1274.88634,0.11561
1272.95762,0.11341
1271.02890,0.11352
1269.10017,0.11544
1267.17145,0.11894
1265.24272,0.12393
1263.31400,0.13025
1261.38528,0.13771
1259.45655,0.14634
1257.52783,0.15620
1255.59911,0.16714
1253.67038,0.17869
1251.74166,0.19037
1249.81294,0.20190
1247.88421,0.21305
1245.95549,0.22365
1244.02676,0.23357
1242.09804,0.24274
1240.16932,0.25113
1238.24059,0.25885
1236.31187,0.26611
1234.38315,0.27313
1232.45442,0.28002
1230.52570,0.28677
1228.59697,0.29348
1226.66825,0.30027
1224.73953,0.30699
1222.81080,0.31324
1220.88208,0.31917
1218.95336,0.32565
1217.02463,0.33287
1215.09591,0.33998
1213.16719,0.34656
1211.23846,0.35313
1209.30974,0.36012
1207.38101,0.36785
1205.45229,0.37692
1203.52357,0.38818
1201.59484,0.40364
1199.66612,0.42662
1197.73740,0.45991
1195.80867,0.50271
1193.87995,0.54780
1191.95123,0.57860
1190.02250,0.58511
1188.09378,0.58263
1186.16505,0.58641
1184.23633,0.58876
1182.30761,0.57665
1180.37888,0.55367
1178.45016,0.52879
1176.52144,0.50574
1174.59271,0.48499
1172.66399,0.46598
1170.73526,0.44852
1168.80654,0.43305
1166.87782,0.41993
1164.94909,0.40912
1163.02037,0.40088
1161.09165,0.39523
1159.16292,0.39133
1157.23420,0.38868
1155.30548,0.38735
1153.37675,0.38710
1151.44803,0.38753
1149.51930,0.38840
1147.59058,0.38948
1145.66186,0.39070
1143.73313,0.39236
1141.80441,0.39436
1139.87569,0.39619
1137.94696,0.39791
1136.01824,0.40008
1134.08952,0.40282
1132.16079,0.40588
1130.23207,0.40927
1128.30334,0.41328
1126.37462,0.41816
1124.44590,0.42413
1122.51717,0.43177
1120.58845,0.44188
1118.65973,0.45451
1116.73100,0.46867
1114.80228,0.48242
1112.87355,0.49298
1110.94483,0.49972
1109.01611,0.50798
1107.08738,0.52344
1105.15866,0.53948
1103.22994,0.54465
1101.30121,0.54358
1099.37249,0.54558
1097.44377,0.54939
1095.51504,0.55032
1093.58632,0.54765
1091.65759,0.54271
1089.72887,0.53675
1087.80015,0.53137
1085.87142,0.52713
1083.94270,0.52322
1082.01398,0.51960
1080.08525,0.51629
1078.15653,0.51270
1076.22781,0.50880
1074.29908,0.50476
1072.37036,0.50063
1070.44163,0.49649
1068.51291,0.49207
1066.58419,0.48733
1064.65546,0.48238
1062.72674,0.47690
1060.79802,0.47072
1058.86929,0.46378
1056.94057,0.45645
1055.01184,0.44915
1053.08312,0.44147
1051.15440,0.43353
1049.22567,0.42634
1047.29695,0.41956
1045.36823,0.41219
1043.43950,0.40448
1041.51078,0.39715
1039.58206,0.38997
1037.65333,0.38252
1035.72461,0.37503
1033.79588,0.36800
1031.86716,0.36152
1029.93844,0.35518
1028.00971,0.34871
1026.08099,0.34225
1024.15227,0.33595
1022.22354,0.32991
1020.29482,0.32443
1018.36610,0.31946
1016.43737,0.31454
1014.50865,0.30953
1012.57992,0.30464
1010.65120,0.30007
1008.72248,0.29595
1006.79375,0.29222
1004.86503,0.28865
1002.93631,0.28510
1001.00758,0.28186
999.07886,0.27919
997.15013,0.27722
995.22141,0.27625
993.29269,0.27640
991.36396,0.27718
989.43524,0.27801
987.50652,0.27854
985.57779,0.27865
983.64907,0.27859
981.72035,0.27878
979.79162,0.27972
977.86290,0.28199
975.93417,0.28544
974.00545,0.28809
972.07673,0.28737
970.14800,0.28346
968.21928,0.27873
966.29056,0.27457
964.36183,0.27104
962.43311,0.26789
960.50439,0.26477
958.57566,0.26140
956.64694,0.25782
954.71821,0.25403
952.78949,0.25011
950.86077,0.24636
948.93204,0.24310
947.00332,0.24029
945.07460,0.23764
943.14587,0.23509
941.21715,0.23266
939.28842,0.23012
937.35970,0.22744
935.43098,0.22466
933.50225,0.22172
931.57353,0.21877
929.64481,0.21590
927.71608,0.21286
925.78736,0.20955
923.85864,0.20620
921.92991,0.20292
920.00119,0.19958
918.07246,0.19599
916.14374,0.19223
914.21502,0.18847
912.28629,0.18461
910.35757,0.18047
908.42885,0.17621
906.50012,0.17225
904.57140,0.16881
902.64268,0.16553
900.71395,0.16198
898.78523,0.15821
896.85650,0.15442
894.92778,0.15062
892.99906,0.14697
891.07033,0.14379
889.14161,0.14109
887.21289,0.13830
885.28416,0.13518
883.35544,0.13210
881.42671,0.12919
879.49799,0.12638
877.56927,0.12375
875.64054,0.12121
873.71182,0.11890
871.78310,0.11716
869.85437,0.11577
867.92565,0.11418
865.99693,0.11245
864.06820,0.11091
862.13948,0.10970
860.21075,0.10896
858.28203,0.10887
856.35331,0.10935
854.42458,0.10986
852.49586,0.10986
850.56714,0.10944
848.63841,0.10919
846.70969,0.11002
844.78097,0.11232
842.85224,0.11474
840.92352,0.11583
838.99479,0.11633
837.06607,0.11772
835.13735,0.12001
833.20862,0.12230
831.27990,0.12443
829.35118,0.12658
827.42245,0.12865
825.49373,0.13095
823.56501,0.13382
821.63628,0.13665
819.70756,0.13908
817.77883,0.14177
815.85011,0.14489
813.92139,0.14771
811.99266,0.15013
810.06394,0.15257
808.13522,0.15514
806.20649,0.15784
804.27777,0.16036
802.34904,0.16224
800.42032,0.16340
798.49160,0.16406
796.56287,0.16438
794.63415,0.16442
792.70543,0.16389
790.77670,0.16246
788.84798,0.16038
786.91926,0.15820
784.99053,0.15605
783.06181,0.15371
781.13308,0.15092
779.20436,0.14751
777.27564,0.14379
775.34691,0.14014
773.41819,0.13665
771.48947,0.13373
769.56074,0.13174
767.63202,0.13054
765.70330,0.12961
763.77457,0.12852
761.84585,0.12751
759.91712,0.12714
757.98840,0.12725
756.05968,0.12719
754.13095,0.12687
752.20223,0.12661
750.27351,0.12642
748.34478,0.12628
746.41606,0.12627
744.48733,0.12628
742.55861,0.12622
740.62989,0.12618
738.70116,0.12638
736.77244,0.12680
734.84372,0.12722
732.91499,0.12770
730.98627,0.12807
729.05755,0.12790
727.12882,0.12745
725.20010,0.12743
723.27137,0.12802
721.34265,0.12879
719.41393,0.12921
717.48520,0.12934
715.55648,0.12956
713.62776,0.13006
711.69903,0.13077
709.77031,0.13145
707.84159,0.13224
705.91286,0.13363
703.98414,0.13529
702.05541,0.13655
700.12669,0.13740
698.19797,0.13827
696.26924,0.13941
694.34052,0.14048
692.41180,0.14094
690.48307,0.14121
688.55435,0.14212
686.62562,0.14391
684.69690,0.14654
682.76818,0.15001
680.83945,0.15397
678.91073,0.15768
676.98201,0.16060
675.05328,0.16242
673.12456,0.16285
671.19584,0.16303
669.26711,0.16567
667.33839,0.16984
665.40966,0.17049
663.48094,0.16783
661.55222,0.16558
659.62349,0.16504
657.69477,0.16529
655.76605,0.16546
653.83732,0.16503
651.90860,0.16368
649.97988,0.16198
648.05115,0.16110
646.12243,0.16159
644.19370,0.16291
642.26498,0.16437
640.33626,0.16585
638.40753,0.16728
636.47881,0.16834
634.55009,0.16893
632.62136,0.16950
630.69264,0.17051
628.76391,0.17189
626.83519,0.17311
624.90647,0.17399
622.97774,0.17499
621.04902,0.17629
619.12030,0.17764
617.19157,0.17875
615.26285,0.17966
613.33413,0.18069
611.40540,0.18153
609.47668,0.18213
607.54795,0.18345
605.61923,0.18569
603.69051,0.18792
601.76178,0.18978
599.83306,0.19182
597.90434,0.19389
595.97561,0.19525
594.04689,0.19602
592.11817,0.19720
590.18944,0.19917
588.26072,0.20081
586.33199,0.20113
584.40327,0.20073
582.47455,0.20106
580.54582,0.20317
578.61710,0.20596
576.68838,0.20726
574.75965,0.20709
572.83093,0.20681
570.90220,0.20696
568.97348,0.20760
567.04476,0.20831
565.11603,0.20882
563.18731,0.20956
561.25859,0.21061
559.32986,0.21168
557.40114,0.21271
555.47242,0.21379
553.54369,0.21476
551.61497,0.21528
549.68624,0.21536
547.75752,0.21550
545.82880,0.21610
543.90007,0.21704
541.97135,0.21824
540.04263,0.21924
538.11390,0.21896
536.18518,0.21735
534.25646,0.21542
532.32773,0.21370
530.39901,0.21198
528.47028,0.21035
526.54156,0.20982
524.61284,0.21089
522.68411,0.21228
520.75539,0.21286
518.82667,0.21315
516.89794,0.21412
514.96922,0.21566
513.04049,0.21688
511.11177,0.21833
509.18305,0.22152
507.25432,0.22542
505.32560,0.22825
503.39688,0.23129
501.46815,0.23646
499.53943,0.24338
497.61071,0.25124
495.68198,0.25915
493.75326,0.26520
491.82453,0.26941
489.89581,0.27480
487.96709,0.28275
486.03836,0.29194
484.10964,0.30131
482.18092,0.31002
480.25219,0.31734
478.32347,0.32364
476.39475,0.33008
474.46602,0.33684
472.53730,0.34230
470.60857,0.34557
468.67985,0.34810
466.75113,0.35045
464.82240,0.35217
462.89368,0.35417
460.96496,0.35648
459.03623,0.35495
457.10751,0.34595
455.17878,0.33322
453.25006,0.32214
451.32134,0.31460
449.39261,0.31022
447.46389,0.30691
445.53517,0.30339
443.60644,0.29980
441.67772,0.29582
439.74900,0.29114
437.82027,0.28583
435.89155,0.27977
433.96282,0.27259
432.03410,0.26543
430.10538,0.26122
428.17665,0.25969
426.24793,0.25599
424.31921,0.24794
422.39048,0.23838
420.46176,0.22947
418.53304,0.22212
416.60431,0.21716
414.67559,0.21314
412.74686,0.20887
410.81814,0.20579
408.88942,0.20500
406.96069,0.20311
405.03197,0.19684
403.10325,0.19078
401.17452,0.19127
399.24580,0.19302
397.31708,0.18296
395.38835,0.16408
393.45963,0.15102
391.53090,0.14343
389.60218,0.14129
387.67346,0.14830
385.74473,0.15130
383.81601,0.14131
381.88729,0.13894
379.95856,0.14668
378.02984,0.14856
376.10111,0.15611
374.17239,0.17569
372.24367,0.15937
370.31494,0.08683
368.38622,0.00000
