3996.31543,0.00000
3994.38671,0.00002
3992.45799,0.00014
3990.52926,0.00027
3988.60054,0.00025
3986.67182,0.00014
3984.74309,0.00008
3982.81437,0.00011
3980.88564,0.00022
3978.95692,0.00038
3977.02820,0.00058
3975.09947,0.00077
3973.17075,0.00080
3971.24203,0.00062
3969.31330,0.00041
3967.38458,0.00031
3965.45586,0.00032
3963.52713,0.00043
3961.59841,0.00055
3959.66968,0.00059
3957.74096,0.00066
3955.81224,0.00084
3953.88351,0.00094
3951.95479,0.00088
3950.02607,0.00079
3948.09734,0.00068
3946.16862,0.00045
3944.23990,0.00021
3942.31117,0.00012
3940.38245,0.00022
3938.45372,0.00043
3936.52500,0.00059
3934.59628,0.00067
3932.66755,0.00078
3930.73883,0.00091
3928.81011,0.00094
3926.88138,0.00087
3924.95266,0.00077
3923.02393,0.00066
3921.09521,0.00061
3919.16649,0.00064
3917.23776,0.00057
3915.30904,0.00032
3913.38032,0.00006
3911.45159,0.00000
3909.52287,0.00014
3907.59415,0.00041
3905.66542,0.00073
3903.73670,0.00099
3901.80797,0.00099
3899.87925,0.00066
3897.95053,0.00020
3896.02180,0.00007
3894.09308,0.00035
3892.16436,0.00068
3890.23563,0.00069
3888.30691,0.00050
3886.37819,0.00030
3884.44946,0.00023
3882.52074,0.00028
3880.59201,0.00019
3878.66329,0.00000
3876.73457,0.00005
3874.80584,0.00039
3872.87712,0.00072
3870.94840,0.00078
3869.01967,0.00053
3867.09095,0.00020
3865.16222,0.00001
3863.23350,0.00002
3861.30478,0.00008
3859.37605,0.00002
3857.44733,-0.00002
3855.51861,0.00015
3853.58988,0.00029
3851.66116,0.00007
3849.73244,-0.00025
3847.80371,-0.00033
3845.87499,-0.00020
3843.94626,-0.00002
3842.01754,0.00010
3840.08882,0.00006
3838.16009,-0.00010
3836.23137,-0.00014
3834.30265,-0.00001
3832.37392,0.00006
3830.44520,0.00001
3828.51648,0.00000
3826.58775,0.00009
3824.65903,0.00031
3822.73030,0.00066
3820.80158,0.00097
3818.87286,0.00107
3816.94413,0.00097
3815.01541,0.00063
3813.08669,0.00030
3811.15796,0.00028
3809.22924,0.00053
3807.30052,0.00078
3805.37179,0.00097
3803.44307,0.00122
3801.51434,0.00142
3799.58562,0.00141
3797.65690,0.00135
3795.72817,0.00139
3793.79945,0.00154
3791.87073,0.00176
3789.94200,0.00202
3788.01328,0.00222
3786.08455,0.00226
3784.15583,0.00230
3782.22711,0.00257
3780.29838,0.00300
3778.36966,0.00335
3776.44094,0.00355
3774.51221,0.00372
3772.58349,0.00401
3770.65477,0.00442
3768.72604,0.00482
3766.79732,0.00504
3764.86859,0.00523
3762.93987,0.00566
3761.01115,0.00627
3759.08242,0.00677
3757.15370,0.00709
3755.22498,0.00752
3753.29625,0.00829
3751.36753,0.00934
3749.43881,0.01033
3747.51008,0.01114
3745.58136,0.01201
3743.65263,0.01293
3741.72391,0.01370
3739.79519,0.01437
3737.86646,0.01518
3735.93774,0.01640
3734.00902,0.01804
3732.08029,0.01972
3730.15157,0.02119
3728.22284,0.02261
3726.29412,0.02419
3724.36540,0.02599
3722.43667,0.02809
3720.50795,0.03048
3718.57923,0.03295
3716.65050,0.03532
3714.72178,0.03775
3712.79306,0.04066
3710.86433,0.04407
3708.93561,0.04742
3707.00688,0.05042
3705.07816,0.05335
3703.14944,0.05673
3701.22071,0.06060
3699.29199,0.06436
3697.36327,0.06765
3695.43454,0.07067
3693.50582,0.07374
3691.57710,0.07737
3689.64837,0.08179
3687.71965,0.08623
3685.79092,0.08995
3683.86220,0.09324
3681.93348,0.09665
3680.00475,0.10039
3678.07603,0.10463
3676.14731,0.10972
3674.21858,0.11491
3672.28986,0.11907
3670.36113,0.12301
3668.43241,0.12720
3666.50369,0.13085
3664.57496,0.13401
3662.64624,0.13727
3660.71752,0.14074
3658.78879,0.14424
3656.86007,0.14773
3654.93135,0.15107
3653.00262,0.15399
3651.07390,0.15692
3649.14517,0.16036
3647.21645,0.16380
3645.28773,0.16664
3643.35900,0.16911
3641.43028,0.17156
3639.50156,0.17399
3637.57283,0.17637
3635.64411,0.17869
3633.71539,0.18091
3631.78666,0.18307
3629.85794,0.18547
3627.92921,0.18805
3626.00049,0.19022
3624.07177,0.19203
3622.14304,0.19388
3620.21432,0.19576
3618.28560,0.19733
3616.35687,0.19851
3614.42815,0.19968
3612.49942,0.20106
3610.57070,0.20257
3608.64198,0.20418
3606.71325,0.20581
3604.78453,0.20718
3602.85581,0.20825
3600.92708,0.20932
3598.99836,0.21076
3597.06964,0.21255
3595.14091,0.21429
3593.21219,0.21570
3591.28346,0.21689
3589.35474,0.21811
3587.42602,0.21941
3585.49729,0.22079
3583.56857,0.22228
3581.63985,0.22377
3579.71112,0.22500
3577.78240,0.22591
3575.85368,0.22686
3573.92495,0.22813
3571.99623,0.22952
3570.06750,0.23086
3568.13878,0.23235
3566.21006,0.23392
3564.28133,0.23513
3562.35261,0.23601
3560.42389,0.23692
3558.49516,0.23792
3556.56644,0.23893
3554.63771,0.23997
3552.70899,0.24112
3550.78027,0.24228
3548.85154,0.24329
3546.92282,0.24424
3544.99410,0.24534
3543.06537,0.24659
3541.13665,0.24773
3539.20793,0.24866
3537.27920,0.24950
3535.35048,0.25037
3533.42175,0.25131
3531.49303,0.25234
3529.56431,0.25338
3527.63558,0.25437
3525.70686,0.25533
3523.77814,0.25618
3521.84941,0.25700
3519.92069,0.25791
3517.99197,0.25884
3516.06324,0.25969
3514.13452,0.26046
3512.20579,0.26120
3510.27707,0.26199
3508.34835,0.26286
3506.41962,0.26360
3504.49090,0.26430
3502.56218,0.26524
3500.63345,0.26633
3498.70473,0.26731
3496.77600,0.26811
3494.84728,0.26884
3492.91856,0.26951
3490.98983,0.27010
3489.06111,0.27076
3487.13239,0.27155
3485.20366,0.27230
3483.27494,0.27288
3481.34622,0.27352
3479.41749,0.27429
3477.48877,0.27488
3475.56004,0.27512
3473.63132,0.27535
3471.70260,0.27585
3469.77387,0.27647
3467.84515,0.27696
3465.91643,0.27744
3463.98770,0.27813
3462.05898,0.27890
3460.13026,0.27953
3458.20153,0.27998
3456.27281,0.28036
3454.34408,0.28067
3452.41536,0.28098
3450.48664,0.28132
3448.55791,0.28163
3446.62919,0.28199
3444.70047,0.28261
3442.77174,0.28322
3440.84302,0.28340
3438.91429,0.28336
3436.98557,0.28357
3435.05685,0.28401
3433.12812,0.28446
3431.19940,0.28481
3429.27068,0.28504
3427.34195,0.28516
3425.41323,0.28531
3423.48451,0.28576
3421.55578,0.28643
3419.62706,0.28687
3417.69833,0.28693
3415.76961,0.28694
3413.84089,0.28712
3411.91216,0.28732
3409.98344,0.28734
3408.05472,0.28739
3406.12599,0.28765
3404.19727,0.28785
3402.26855,0.28771
3400.33982,0.28752
3398.41110,0.28761
3396.48237,0.28778
3394.55365,0.28775
3392.62493,0.28764
3390.69620,0.28760
3388.76748,0.28754
3386.83876,0.28747
3384.91003,0.28749
3382.98131,0.28748
3381.05259,0.28733
3379.12386,0.28708
3377.19514,0.28684
3375.26641,0.28672
3373.33769,0.28667
3371.40897,0.28654
3369.48024,0.28631
3367.55152,0.28606
3365.62280,0.28580
3363.69407,0.28554
3361.76535,0.28536
3359.83662,0.28526
3357.90790,0.28511
3355.97918,0.28478
3354.05045,0.28443
3352.12173,0.28422
3350.19301,0.28412
3348.26428,0.28406
3346.33556,0.28386
3344.40684,0.28344
3342.47811,0.28291
3340.54939,0.28243
3338.62066,0.28202
3336.69194,0.28161
3334.76322,0.28126
3332.83449,0.28113
3330.90577,0.28109
3328.97705,0.28088
3327.04832,0.28048
3325.11960,0.28010
3323.19088,0.27984
3321.26215,0.27970
3319.33343,0.27949
3317.40470,0.27915
3315.47598,0.27899
3313.54726,0.27905
3311.61853,0.27888
3309.68981,0.27839
3307.76109,0.27784
3305.83236,0.27739
3303.90364,0.27707
3301.97491,0.27685
3300.04619,0.27655
3298.11747,0.27608
3296.18874,0.27556
3294.26002,0.27517
3292.33130,0.27501
3290.40257,0.27493
3288.47385,0.27463
3286.54513,0.27408
3284.61640,0.27359
3282.68768,0.27322
3280.75895,0.27283
3278.83023,0.27245
3276.90151,0.27211
3274.97278,0.27178
3273.04406,0.27148
3271.11534,0.27116
3269.18661,0.27071
3267.25789,0.27018
3265.32917,0.26967
3263.40044,0.26926
3261.47172,0.26893
3259.54299,0.26855
3257.61427,0.26809
3255.68555,0.26768
3253.75682,0.26724
3251.82810,0.26669
3249.89938,0.26620
3247.97065,0.26579
3246.04193,0.26533
3244.11320,0.26486
3242.18448,0.26445
3240.25576,0.26407
3238.32703,0.26347
3236.39831,0.26262
3234.46959,0.26195
3232.54086,0.26160
3230.61214,0.26120
3228.68342,0.26063
3226.75469,0.26005
3224.82597,0.25948
3222.89724,0.25888
3220.96852,0.25825
3219.03980,0.25750
3217.11107,0.25662
3215.18235,0.25584
3213.25363,0.25525
3211.32490,0.25466
3209.39618,0.25396
3207.46746,0.25326
3205.53873,0.25256
3203.61001,0.25182
3201.68128,0.25112
3199.75256,0.25052
3197.82384,0.24985
3195.89511,0.24898
3193.96639,0.24815
3192.03767,0.24756
3190.10894,0.24708
3188.18022,0.24637
3186.25149,0.24544
3184.32277,0.24450
3182.39405,0.24367
3180.46532,0.24291
3178.53660,0.24212
3176.60788,0.24113
3174.67915,0.23998
3172.75043,0.23893
3170.82171,0.23817
3168.89298,0.23744
3166.96426,0.23649
3165.03553,0.23556
3163.10681,0.23484
3161.17809,0.23423
3159.24936,0.23354
3157.32064,0.23264
3155.39192,0.23171
3153.46319,0.23096
3151.53447,0.23027
3149.60575,0.22947
3147.67702,0.22856
3145.74830,0.22764
3143.81957,0.22665
3141.89085,0.22561
3139.96213,0.22471
3138.03340,0.22398
3136.10468,0.22327
3134.17596,0.22243
3132.24723,0.22152
3130.31851,0.22062
3128.38978,0.21968
3126.46106,0.21871
3124.53234,0.21773
3122.60361,0.21676
3120.67489,0.21592
3118.74617,0.21532
3116.81744,0.21476
3114.88872,0.21399
3112.96000,0.21299
3111.03127,0.21197
3109.10255,0.21103
3107.17382,0.21009
3105.24510,0.20913
3103.31638,0.20820
3101.38765,0.20717
3099.45893,0.20606
3097.53021,0.20504
3095.60148,0.20416
3093.67276,0.20330
3091.74404,0.20230
3089.81531,0.20118
3087.88659,0.20007
3085.95786,0.19908
3084.02914,0.19821
3082.10042,0.19729
3080.17169,0.19622
3078.24297,0.19520
3076.31425,0.19429
3074.38552,0.19334
3072.45680,0.19227
3070.52807,0.19120
3068.59935,0.19018
3066.67063,0.18913
3064.74190,0.18807
3062.81318,0.18712
3060.88446,0.18620
3058.95573,0.18514
3057.02701,0.18395
3055.09829,0.18283
3053.16956,0.18187
3051.24084,0.18101
3049.31211,0.18017
3047.38339,0.17932
3045.45467,0.17837
3043.52594,0.17734
3041.59722,0.17630
3039.66850,0.17535
3037.73977,0.17445
3035.81105,0.17350
3033.88233,0.17240
3031.95360,0.17132
3030.02488,0.17044
3028.09615,0.16958
3026.16743,0.16858
3024.23871,0.16766
3022.30998,0.16695
3020.38126,0.16625
3018.45254,0.16542
3016.52381,0.16453
3014.59509,0.16370
3012.66636,0.16293
3010.73764,0.16216
3008.80892,0.16134
3006.88019,0.16045
3004.95147,0.15973
3003.02275,0.15923
3001.09402,0.15867
2999.16530,0.15800
2997.23658,0.15738
2995.30785,0.15680
2993.37913,0.15621
2991.45040,0.15563
2989.52168,0.15514
2987.59296,0.15478
2985.66423,0.15449
2983.73551,0.15416
2981.80679,0.15381
2979.87806,0.15361
2977.94934,0.15359
2976.02062,0.15349
2974.09189,0.15321
2972.16317,0.15288
2970.23444,0.15265
2968.30572,0.15267
2966.37700,0.15282
2964.44827,0.15281
2962.51955,0.15261
2960.59083,0.15232
2958.66210,0.15206
2956.73338,0.15185
2954.80466,0.15160
2952.87593,0.15128
2950.94721,0.15091
2949.01848,0.15062
2947.08976,0.15051
2945.16104,0.15051
2943.23231,0.15069
2941.30359,0.15105
2939.37487,0.15137
2937.44614,0.15157
2935.51742,0.15180
2933.58869,0.15206
2931.65997,0.15223
2929.73125,0.15223
2927.80252,0.15200
2925.87380,0.15141
2923.94508,0.15023
2922.01635,0.14837
2920.08763,0.14613
2918.15891,0.14387
2916.23018,0.14180
2914.30146,0.13996
2912.37273,0.13838
2910.44401,0.13701
2908.51529,0.13570
2906.58656,0.13426
2904.65784,0.13266
2902.72912,0.13115
2900.80039,0.12987
2898.87167,0.12866
2896.94295,0.12745
2895.01422,0.12631
2893.08550,0.12515
2891.15677,0.12399
2889.22805,0.12293
2887.29933,0.12196
2885.37060,0.12098
2883.44188,0.11993
2881.51316,0.11892
2879.58443,0.11817
2877.65571,0.11760
2875.72698,0.11704
2873.79826,0.11643
2871.86954,0.11580
2869.94081,0.11518
2868.01209,0.11455
2866.08337,0.11394
2864.15464,0.11341
2862.22592,0.11306
2860.29720,0.11292
2858.36847,0.11288
2856.43975,0.11276
2854.51102,0.11229
2852.58230,0.11113
2850.65358,0.10927
2848.72485,0.10713
2846.79613,0.10501
2844.86741,0.10290
2842.93868,0.10080
2841.00996,0.09882
2839.08124,0.09700
2837.15251,0.09538
2835.22379,0.09399
2833.29506,0.09285
2831.36634,0.09180
2829.43762,0.09066
2827.50889,0.08943
2825.58017,0.08828
2823.65145,0.08734
2821.72272,0.08650
2819.79400,0.08562
2817.86527,0.08475
2815.93655,0.08396
2814.00783,0.08323
2812.07910,0.08247
2810.15038,0.08163
2808.22166,0.08072
2806.29293,0.07985
2804.36421,0.07912
2802.43549,0.07853
2800.50676,0.07794
2798.57804,0.07722
2796.64931,0.07643
2794.72059,0.07571
2792.79187,0.07507
2790.86314,0.07438
2788.93442,0.07359
2787.00570,0.07287
2785.07697,0.07224
2783.14825,0.07159
2781.21953,0.07089
2779.29080,0.07020
2777.36208,0.06950
2775.43335,0.06883
2773.50463,0.06820
2771.57591,0.06759
2769.64718,0.06702
2767.71846,0.06643
2765.78974,0.06581
2763.86101,0.06526
2761.93229,0.06474
2760.00356,0.06409
2758.07484,0.06339
2756.14612,0.06279
2754.21739,0.06228
2752.28867,0.06181
2750.35995,0.06128
2748.43122,0.06058
2746.50250,0.05985
2744.57378,0.05926
2742.64505,0.05877
2740.71633,0.05823
2738.78760,0.05763
2736.85888,0.05708
2734.93016,0.05661
2733.00143,0.05612
2731.07271,0.05555
2729.14399,0.05494
2727.21526,0.05439
2725.28654,0.05386
2723.35782,0.05331
2721.42909,0.05269
2719.50037,0.05205
2717.57164,0.05148
2715.64292,0.05103
2713.71420,0.05058
2711.78547,0.04999
2709.85675,0.04939
2707.92803,0.04891
2705.99930,0.04848
2704.07058,0.04800
2702.14185,0.04749
2700.21313,0.04696
2698.28441,0.04644
2696.35568,0.04598
2694.42696,0.04552
2692.49824,0.04503
2690.56951,0.04461
2688.64079,0.04425
2686.71207,0.04379
2684.78334,0.04324
2682.85462,0.04270
2680.92589,0.04219
2678.99717,0.04169
2677.06845,0.04122
2675.13972,0.04078
2673.21100,0.04033
2671.28228,0.03982
2669.35355,0.03929
2667.42483,0.03883
2665.49611,0.03847
2663.56738,0.03813
2661.63866,0.03775
2659.70993,0.03726
2657.78121,0.03671
2655.85249,0.03624
2653.92376,0.03590
2651.99504,0.03559
2650.06632,0.03520
2648.13759,0.03477
2646.20887,0.03437
2644.28014,0.03400
2642.35142,0.03360
2640.42270,0.03316
2638.49397,0.03271
2636.56525,0.03231
2634.63653,0.03200
2632.70780,0.03169
2630.77908,0.03129
2628.85036,0.03087
2626.92163,0.03049
2624.99291,0.03016
2623.06418,0.02989
2621.13546,0.02958
2619.20674,0.02917
2617.27801,0.02868
2615.34929,0.02823
2613.42057,0.02791
2611.49184,0.02769
2609.56312,0.02745
2607.63440,0.02717
2605.70567,0.02684
2603.77695,0.02650
2601.84822,0.02618
2599.91950,0.02591
2597.99078,0.02564
2596.06205,0.02531
2594.13333,0.02490
2592.20461,0.02446
2590.27588,0.02405
2588.34716,0.02371
2586.41843,0.02344
2584.48971,0.02318
2582.56099,0.02292
2580.63226,0.02268
2578.70354,0.02244
2576.77482,0.02219
2574.84609,0.02192
2572.91737,0.02164
2570.98865,0.02133
2569.05992,0.02103
2567.13120,0.02083
2565.20247,0.02072
2563.27375,0.02053
2561.34503,0.02024
2559.41630,0.01994
2557.48758,0.01968
2555.55886,0.01943
2553.63013,0.01921
2551.70141,0.01906
2549.77269,0.01889
2547.84396,0.01870
2545.91524,0.01852
2543.98651,0.01831
2542.05779,0.01806
2540.12907,0.01784
2538.20034,0.01761
2536.27162,0.01734
2534.34290,0.01710
2532.41417,0.01695
2530.48545,0.01682
2528.55673,0.01663
2526.62800,0.01637
2524.69928,0.01616
2522.77055,0.01599
2520.84183,0.01579
2518.91311,0.01557
2516.98438,0.01540
2515.05566,0.01523
2513.12694,0.01493
2511.19821,0.01462
2509.26949,0.01444
2507.34076,0.01438
2505.41204,0.01431
2503.48332,0.01413
2501.55459,0.01388
2499.62587,0.01369
2497.69715,0.01350
2495.76842,0.01325
2493.83970,0.01297
2491.91098,0.01276
2489.98225,0.01260
2488.05353,0.01242
2486.12480,0.01219
2484.19608,0.01196
2482.26736,0.01172
2480.33863,0.01152
2478.40991,0.01142
2476.48119,0.01136
2474.55246,0.01126
2472.62374,0.01110
2470.69502,0.01090
2468.76629,0.01069
2466.83757,0.01048
2464.90884,0.01033
2462.98012,0.01018
2461.05140,0.00999
2459.12267,0.00980
2457.19395,0.00962
2455.26523,0.00943
2453.33650,0.00921
2451.40778,0.00904
2449.47905,0.00895
2447.55033,0.00889
2445.62161,0.00877
2443.69288,0.00859
2441.76416,0.00839
2439.83544,0.00823
2437.90671,0.00811
2435.97799,0.00795
2434.04927,0.00777
2432.12054,0.00758
2430.19182,0.00739
2428.26309,0.00721
2426.33437,0.00707
2424.40565,0.00691
2422.47692,0.00676
2420.54820,0.00661
2418.61948,0.00644
2416.69075,0.00631
2414.76203,0.00625
2412.83331,0.00622
2410.90458,0.00612
2408.97586,0.00595
2407.04713,0.00580
2405.11841,0.00567
2403.18969,0.00558
2401.26096,0.00555
2399.33224,0.00542
2397.40352,0.00525
2395.47479,0.00513
2393.54607,0.00507
2391.61734,0.00495
2389.68862,0.00479
2387.75990,0.00467
2385.83117,0.00464
2383.90245,0.00466
2381.97373,0.00473
2380.04500,0.00478
2378.11628,0.00472
2376.18756,0.00453
2374.25883,0.00434
2372.33011,0.00434
2370.40138,0.00447
2368.47266,0.00460
2366.54394,0.00466
2364.61521,0.00459
2362.68649,0.00436
2360.75777,0.00414
2358.82904,0.00397
2356.90032,0.00376
2354.97160,0.00358
2353.04287,0.00371
2351.11415,0.00418
2349.18542,0.00447
2347.25670,0.00416
2345.32798,0.00365
2343.39925,0.00350
2341.47053,0.00359
2339.54181,0.00360
2337.61308,0.00353
2335.68436,0.00341
2333.75563,0.00324
2331.82691,0.00306
2329.89819,0.00293
2327.96946,0.00286
2326.04074,0.00280
2324.11202,0.00278
2322.18329,0.00275
2320.25457,0.00267
2318.32585,0.00254
2316.39712,0.00240
2314.46840,0.00229
2312.53967,0.00223
2310.61095,0.00216
2308.68223,0.00204
2306.75350,0.00195
2304.82478,0.00188
2302.89606,0.00181
2300.96733,0.00171
2299.03861,0.00166
2297.10989,0.00164
2295.18116,0.00160
2293.25244,0.00149
2291.32371,0.00140
2289.39499,0.00137
2287.46627,0.00132
2285.53754,0.00122
2283.60882,0.00116
2281.68010,0.00114
2279.75137,0.00116
2277.82265,0.00121
2275.89392,0.00124
2273.96520,0.00119
2272.03648,0.00110
2270.10775,0.00106
2268.17903,0.00106
2266.25031,0.00104
2264.32158,0.00101
2262.39286,0.00095
2260.46414,0.00088
2258.53541,0.00080
2256.60669,0.00073
2254.67796,0.00072
2252.74924,0.00079
2250.82052,0.00080
2248.89179,0.00069
2246.96307,0.00061
2245.03435,0.00059
2243.10562,0.00056
2241.17690,0.00055
2239.24818,0.00060
2237.31945,0.00063
2235.39073,0.00056
2233.46200,0.00043
2231.53328,0.00033
2229.60456,0.00030
2227.67583,0.00029
2225.74711,0.00028
2223.81839,0.00030
2221.88966,0.00033
2219.96094,0.00035
2218.03221,0.00040
2216.10349,0.00048
2214.17477,0.00046
2212.24604,0.00032
2210.31732,0.00021
2208.38860,0.00018
2206.45987,0.00016
2204.53115,0.00012
2202.60243,0.00010
2200.67370,0.00010
2198.74498,0.00008
2196.81625,0.00011
2194.88753,0.00016
2192.95881,0.00017
2191.03008,0.00020
2189.10136,0.00027
2187.17264,0.00034
2185.24391,0.00037
2183.31519,0.00034
2181.38647,0.00030
2179.45774,0.00027
2177.52902,0.00024
2175.60029,0.00024
2173.67157,0.00027
2171.74285,0.00029
2169.81412,0.00027
2167.88540,0.00024
2165.95668,0.00022
2164.02795,0.00021
2162.09923,0.00017
2160.17050,0.00012
2158.24178,0.00013
2156.31306,0.00020
2154.38433,0.00026
2152.45561,0.00030
2150.52689,0.00035
2148.59816,0.00037
2146.66944,0.00038
2144.74072,0.00042
2142.81199,0.00045
2140.88327,0.00045
2138.95454,0.00040
2137.02582,0.00036
2135.09710,0.00035
2133.16837,0.00032
2131.23965,0.00028
2129.31093,0.00023
2127.38220,0.00022
2125.45348,0.00025
2123.52476,0.00029
2121.59603,0.00034
2119.66731,0.00037
2117.73858,0.00035
2115.80986,0.00031
2113.88114,0.00032
2111.95241,0.00035
2110.02369,0.00034
2108.09497,0.00027
2106.16624,0.00026
2104.23752,0.00030
2102.30880,0.00024
2100.38007,0.00010
2098.45135,0.00001
2096.52262,-0.00001
2094.59390,0.00000
2092.66518,-0.00003
2090.73645,-0.00004
2088.80773,-0.00006
2086.87901,-0.00005
2084.95028,-0.00003
2083.02156,-0.00007
2081.09283,-0.00021
2079.16411,-0.00037
2077.23539,-0.00043
2075.30666,-0.00044
2073.37794,-0.00044
2071.44922,-0.00039
2069.52049,-0.00035
2067.59177,-0.00034
2065.66305,-0.00035
2063.73432,-0.00032
2061.80560,-0.00027
2059.87687,-0.00021
2057.94815,-0.00015
2056.01943,-0.00010
2054.09070,-0.00004
2052.16198,0.00004
2050.23326,0.00018
2048.30453,0.00028
2046.37581,0.00032
2044.44709,0.00044
2042.51836,0.00068
2040.58964,0.00090
2038.66091,0.00103
2036.73219,0.00118
2034.80347,0.00135
2032.87474,0.00150
2030.94602,0.00166
2029.01730,0.00189
2027.08857,0.00214
2025.15985,0.00234
2023.23112,0.00246
2021.30240,0.00252
2019.37368,0.00262
2017.44495,0.00274
2015.51623,0.00286
2013.58751,0.00299
2011.65878,0.00314
2009.73006,0.00327
2007.80134,0.00341
2005.87261,0.00353
2003.94389,0.00356
2002.01516,0.00357
2000.08644,0.00359
1998.15772,0.00363
1996.22899,0.00370
1994.30027,0.00378
1992.37155,0.00380
1990.44282,0.00376
1988.51410,0.00372
1986.58538,0.00359
1984.65665,0.00340
1982.72793,0.00330
1980.79920,0.00326
1978.87048,0.00319
1976.94176,0.00305
1975.01303,0.00290
1973.08431,0.00279
1971.15559,0.00268
1969.22686,0.00256
1967.29814,0.00237
1965.36941,0.00214
1963.44069,0.00197
1961.51197,0.00188
1959.58324,0.00177
1957.65452,0.00156
1955.72580,0.00132
1953.79707,0.00115
1951.86835,0.00104
1949.93963,0.00094
1948.01090,0.00083
1946.08218,0.00071
1944.15345,0.00060
1942.22473,0.00047
1940.29601,0.00031
1938.36728,0.00015
1936.43856,0.00001
1934.50984,-0.00010
1932.58111,-0.00020
1930.65239,-0.00022
1928.72367,-0.00014
1926.79494,0.00000
1924.86622,0.00009
1922.93749,0.00012
1921.00877,0.00018
1919.08005,0.00036
1917.15132,0.00064
1915.22260,0.00093
1913.29388,0.00123
1911.36515,0.00156
1909.43643,0.00193
1907.50770,0.00235
1905.57898,0.00277
1903.65026,0.00316
1901.72153,0.00355
1899.79281,0.00403
1897.86409,0.00459
1895.93536,0.00509
1894.00664,0.00548
1892.07792,0.00581
1890.14919,0.00621
1888.22047,0.00668
1886.29174,0.00710
1884.36302,0.00743
1882.43430,0.00769
1880.50557,0.00793
1878.57685,0.00811
1876.64813,0.00823
1874.71940,0.00832
1872.79068,0.00840
1870.86196,0.00839
1868.93323,0.00819
1867.00451,0.00788
1865.07578,0.00756
1863.14706,0.00719
1861.21834,0.00678
1859.28961,0.00636
1857.36089,0.00591
1855.43217,0.00537
1853.50344,0.00478
1851.57472,0.00424
1849.64599,0.00380
1847.71727,0.00344
1845.78855,0.00308
1843.85982,0.00264
1841.93110,0.00214
1840.00238,0.00166
1838.07365,0.00126
1836.14493,0.00095
1834.21621,0.00077
1832.28748,0.00068
1830.35876,0.00056
1828.43003,0.00035
1826.50131,0.00015
1824.57259,0.00001
1822.64386,-0.00005
1820.71514,-0.00004
1818.78642,-0.00003
1816.85769,-0.00004
1814.92897,0.00000
1813.00025,-0.00004
1811.07152,0.00001
1809.14280,0.00010
1807.21407,0.00019
1805.28535,0.00033
1803.35663,0.00059
1801.42790,0.00096
1799.49918,0.00138
1797.57046,0.00180
1795.64173,0.00225
1793.71301,0.00280
1791.78428,0.00350
1789.85556,0.00427
1787.92684,0.00503
1785.99811,0.00577
1784.06939,0.00653
1782.14067,0.00736
1780.21194,0.00827
1778.28322,0.00910
1776.35450,0.00980
1774.42577,0.01059
1772.49705,0.01168
1770.56832,0.01292
1768.63960,0.01401
1766.71088,0.01490
1764.78215,0.01570
1762.85343,0.01654
1760.92471,0.01749
1758.99598,0.01848
1757.06726,0.01952
1755.13854,0.02061
1753.20981,0.02171
1751.28109,0.02297
1749.35236,0.02431
1747.42364,0.02562
1745.49492,0.02698
1743.56619,0.02849
1741.63747,0.03018
1739.70875,0.03200
1737.78002,0.03378
1735.85130,0.03571
1733.92257,0.03826
1731.99385,0.04100
1730.06513,0.04340
1728.13640,0.04565
1726.20768,0.04793
1724.27896,0.05019
1722.35023,0.05227
1720.42151,0.05411
1718.49279,0.05605
1716.56406,0.05840
1714.63534,0.06087
1712.70661,0.06314
1710.77789,0.06527
1708.84917,0.06745
1706.92044,0.06989
1704.99172,0.07244
1703.06300,0.07473
1701.13427,0.07723
1699.20555,0.08039
1697.27683,0.08372
1695.34810,0.08697
1693.41938,0.08990
1691.49065,0.09250
1689.56193,0.09510
1687.63321,0.09774
1685.70448,0.10086
1683.77576,0.10491
1681.84704,0.10872
1679.91831,0.11153
1677.98959,0.11397
1676.06087,0.11665
1674.13214,0.11945
1672.20342,0.12203
1670.27469,0.12471
1668.34597,0.12751
1666.41725,0.12980
1664.48852,0.13181
1662.55980,0.13406
1660.63108,0.13621
1658.70235,0.13774
1656.77363,0.13880
1654.84490,0.13997
1652.91618,0.14164
1650.98746,0.14305
1649.05873,0.14382
1647.13001,0.14460
1645.20129,0.14566
1643.27256,0.14655
1641.34384,0.14707
1639.41512,0.14737
1637.48639,0.14755
1635.55767,0.14756
1633.62894,0.14729
1631.70022,0.14680
1629.77150,0.14602
1627.84277,0.14489
1625.91405,0.14351
1623.98533,0.14186
1622.05660,0.13991
1620.12788,0.13786
1618.19916,0.13553
1616.27043,0.13269
1614.34171,0.12993
1612.41298,0.12750
1610.48426,0.12495
1608.55554,0.12213
1606.62681,0.11927
1604.69809,0.11652
1602.76937,0.11385
1600.84064,0.11128
1598.91192,0.10881
1596.98319,0.10640
1595.05447,0.10407
1593.12575,0.10188
1591.19702,0.09980
1589.26830,0.09775
1587.33958,0.09576
1585.41085,0.09382
1583.48213,0.09192
1581.55341,0.09011
1579.62468,0.08848
1577.69596,0.08677
1575.76723,0.08491
1573.83851,0.08345
1571.90979,0.08248
1569.98106,0.08154
1568.05234,0.08048
1566.12362,0.07942
1564.19489,0.07840
1562.26617,0.07743
1560.33745,0.07643
1558.40872,0.07528
1556.48000,0.07425
1554.55127,0.07333
1552.62255,0.07235
1550.69383,0.07127
1548.76510,0.07013
1546.83638,0.06904
1544.90766,0.06786
1542.97893,0.06629
1541.05021,0.06424
1539.12148,0.06221
1537.19276,0.06095
1535.26404,0.05993
1533.33531,0.05837
1531.40659,0.05649
1529.47787,0.05482
1527.54914,0.05317
1525.62042,0.05133
1523.69170,0.04940
1521.76297,0.04734
1519.83425,0.04527
1517.90552,0.04335
1515.97680,0.04148
1514.04808,0.03970
1512.11935,0.03805
1510.19063,0.03633
1508.26191,0.03398
1506.33318,0.03080
1504.40446,0.02807
1502.47574,0.02617
1500.54701,0.02440
1498.61829,0.02242
1496.68956,0.02045
1494.76084,0.01889
1492.83212,0.01774
1490.90339,0.01676
1488.97467,0.01592
1487.04595,0.01547
1485.11722,0.01542
1483.18850,0.01566
1481.25977,0.01613
1479.33105,0.01687
1477.40233,0.01791
1475.47360,0.01940
1473.54488,0.02146
1471.61616,0.02383
1469.68743,0.02592
1467.75871,0.02764
1465.82999,0.02924
1463.90126,0.03071
1461.97254,0.03187
1460.04381,0.03281
1458.11509,0.03372
1456.18637,0.03450
1454.25764,0.03499
1452.32892,0.03531
1450.40020,0.03559
1448.47147,0.03588
1446.54275,0.03613
1444.61403,0.03635
1442.68530,0.03661
1440.75658,0.03694
1438.82785,0.03728
1436.89913,0.03759
1434.97041,0.03791
1433.04168,0.03827
1431.11296,0.03871
1429.18424,0.03927
1427.25551,0.03988
1425.32679,0.04047
1423.39806,0.04100
1421.46934,0.04150
1419.54062,0.04219
1417.61189,0.04313
1415.68317,0.04397
1413.75445,0.04461
1411.82572,0.04525
1409.89700,0.04598
1407.96828,0.04676
1406.03955,0.04748
1404.11083,0.04798
1402.18210,0.04803
1400.25338,0.04750
1398.32466,0.04640
1396.39593,0.04489
1394.46721,0.04315
1392.53849,0.04145
1390.60976,0.03997
1388.68104,0.03867
1386.75232,0.03753
1384.82359,0.03661
1382.89487,0.03574
1380.96614,0.03466
1379.03742,0.03338
1377.10870,0.03203
1375.17997,0.03069
1373.25125,0.02937
1371.32253,0.02814
1369.39380,0.02699
1367.46508,0.02589
1365.53635,0.02482
1363.60763,0.02372
1361.67891,0.02263
1359.75018,0.02174
1357.82146,0.02103
1355.89274,0.02032
1353.96401,0.01952
1352.03529,0.01871
1350.10657,0.01801
1348.17784,0.01749
1346.24912,0.01714
1344.32039,0.01689
1342.39167,0.01662
1340.46295,0.01628
1338.53422,0.01588
1336.60550,0.01549
1334.67678,0.01516
1332.74805,0.01489
1330.81933,0.01472
1328.89061,0.01464
1326.96188,0.01461
1325.03316,0.01458
1323.10443,0.01459
1321.17571,0.01468
1319.24699,0.01487
1317.31826,0.01512
1315.38954,0.01537
1313.46082,0.01559
1311.53209,0.01581
1309.60337,0.01603
1307.67464,0.01628
1305.74592,0.01663
1303.81720,0.01710
1301.88847,0.01775
1299.95975,0.01864
1298.03103,0.01974
1296.10230,0.02098
1294.17358,0.02231
1292.24486,0.02380
1290.31613,0.02557
1288.38741,0.02760
1286.45868,0.02975
1284.52996,0.03198
1282.60124,0.03447
1280.67251,0.03734
1278.74379,0.04055
1276.81507,0.04412
1274.88634,0.04813
1272.95762,0.05261
1271.02890,0.05753
1269.10017,0.06295
1267.17145,0.06907
1265.24272,0.07601
1263.31400,0.08386
1261.38528,0.09269
1259.45655,0.10246
1257.52783,0.11295
1255.59911,0.12401
1253.67038,0.13557
1251.74166,0.14731
1249.81294,0.15866
1247.88421,0.16928
1245.95549,0.17910
1244.02676,0.18816
1242.09804,0.19648
1240.16932,0.20408
1238.24059,0.21088
1236.31187,0.21692
1234.38315,0.22253
1232.45442,0.22785
1230.52570,0.23265
1228.59697,0.23691
1226.66825,0.24089
1224.73953,0.24452
1222.81080,0.24759
1220.88208,0.25037
1218.95336,0.25318
1217.02463,0.25576
1215.09591,0.25801
1213.16719,0.26043
1211.23846,0.26320
1209.30974,0.26583
1207.38101,0.26797
1205.45229,0.26995
1203.52357,0.27201
1201.59484,0.27409
1199.66612,0.27603
1197.73740,0.27774
1195.80867,0.27936
1193.87995,0.28116
1191.95123,0.28317
1190.02250,0.28523
1188.09378,0.28719
1186.16505,0.28894
1184.23633,0.29053
1182.30761,0.29222
1180.37888,0.29420
1178.45016,0.29632
1176.52144,0.29839
1174.59271,0.30049
1172.66399,0.30259
1170.73526,0.30466
1168.80654,0.30676
1166.87782,0.30899
1164.94909,0.31116
1163.02037,0.31280
1161.09165,0.31401
1159.16292,0.31547
1157.23420,0.31729
1155.30548,0.31915
1153.37675,0.32101
1151.44803,0.32286
1149.51930,0.32468
1147.59058,0.32665
1145.66186,0.32857
1143.73313,0.33013
1141.80441,0.33180
1139.87569,0.33407
1137.94696,0.33648
1136.01824,0.33862
1134.08952,0.34083
1132.16079,0.34358
1130.23207,0.34693
1128.30334,0.35045
1126.37462,0.35374
1124.44590,0.35703
1122.51717,0.36091
1120.58845,0.36551
1118.65973,0.37044
1116.73100,0.37549
1114.80228,0.38063
1112.87355,0.38633
1110.94483,0.39330
1109.01611,0.40103
1107.08738,0.40802
1105.15866,0.41379
1103.22994,0.41908
1101.30121,0.42381
1099.37249,0.42725
1097.44377,0.42982
1095.51504,0.43228
1093.58632,0.43425
1091.65759,0.43507
1089.72887,0.43477
1087.80015,0.43375
1085.87142,0.43246
1083.94270,0.43094
1082.01398,0.42936
1080.08525,0.42792
1078.15653,0.42576
1076.22781,0.42197
1074.29908,0.41731
1072.37036,0.41323
1070.44163,0.40958
1068.51291,0.40511
1066.58419,0.39985
1064.65546,0.39473
1062.72674,0.38983
1060.79802,0.38458
1058.86929,0.37884
1056.94057,0.37246
1055.01184,0.36535
1053.08312,0.35792
1051.15440,0.35069
1049.22567,0.34376
1047.29695,0.33681
1045.36823,0.32968
1043.43950,0.32244
1041.51078,0.31503
1039.58206,0.30751
1037.65333,0.30014
1035.72461,0.29273
1033.79588,0.28485
1031.86716,0.27690
1029.93844,0.26946
1028.00971,0.26239
1026.08099,0.25535
1024.15227,0.24849
1022.22354,0.24219
1020.29482,0.23635
1018.36610,0.23075
1016.43737,0.22531
1014.50865,0.21988
1012.57992,0.21458
1010.65120,0.20968
1008.72248,0.20505
1006.79375,0.20043
1004.86503,0.19570
1002.93631,0.19108
1001.00758,0.18694
999.07886,0.18328
997.15013,0.17981
995.22141,0.17641
993.29269,0.17311
991.36396,0.16985
989.43524,0.16652
987.50652,0.16344
985.57779,0.16098
983.64907,0.15892
981.72035,0.15684
979.79162,0.15487
977.86290,0.15330
975.93417,0.15204
974.00545,0.15105
972.07673,0.15044
970.14800,0.15015
968.21928,0.14989
966.29056,0.14946
964.36183,0.14904
962.43311,0.14890
960.50439,0.14888
958.57566,0.14862
956.64694,0.14810
954.71821,0.14741
952.78949,0.14663
950.86077,0.14581
948.93204,0.14459
947.00332,0.14289
945.07460,0.14123
943.14587,0.13966
941.21715,0.13801
939.28842,0.13620
937.35970,0.13398
935.43098,0.13124
933.50225,0.12838
931.57353,0.12564
929.64481,0.12279
927.71608,0.11993
925.78736,0.11719
923.85864,0.11409
921.92991,0.11055
920.00119,0.10711
918.07246,0.10381
916.14374,0.10030
914.21502,0.09663
912.28629,0.09306
910.35757,0.08962
908.42885,0.08605
906.50012,0.08207
904.57140,0.07800
902.64268,0.07444
900.71395,0.07127
898.78523,0.06792
896.85650,0.06445
894.92778,0.06123
892.99906,0.05823
891.07033,0.05520
889.14161,0.05217
887.21289,0.04932
885.28416,0.04656
883.35544,0.04379
881.42671,0.04128
879.49799,0.03902
877.56927,0.03652
875.64054,0.03363
873.71182,0.03102
871.78310,0.02908
869.85437,0.02742
867.92565,0.02575
865.99693,0.02423
864.06820,0.02284
862.13948,0.02145
860.21075,0.02015
858.28203,0.01908
856.35331,0.01790
854.42458,0.01645
852.49586,0.01535
850.56714,0.01525
848.63841,0.01583
846.70969,0.01670
844.78097,0.01791
842.85224,0.01940
840.92352,0.02151
838.99479,0.02437
837.06607,0.02738
835.13735,0.03049
833.20862,0.03422
831.27990,0.03822
829.35118,0.04183
827.42245,0.04530
825.49373,0.04902
823.56501,0.05272
821.63628,0.05613
819.70756,0.05915
817.77883,0.06198
815.85011,0.06488
813.92139,0.06777
811.99266,0.07040
810.06394,0.07267
808.13522,0.07483
806.20649,0.07722
804.27777,0.07966
802.34904,0.08157
800.42032,0.08245
798.49160,0.08247
796.56287,0.08214
794.63415,0.08153
792.70543,0.08028
790.77670,0.07811
788.84798,0.07518
786.91926,0.07238
784.99053,0.07000
783.06181,0.06714
781.13308,0.06346
779.20436,0.05953
777.27564,0.05562
775.34691,0.05164
773.41819,0.04754
771.48947,0.04359
769.56074,0.04039
767.63202,0.03827
765.70330,0.03708
763.77457,0.03648
761.84585,0.03603
759.91712,0.03520
757.98840,0.03403
756.05968,0.03321
754.13095,0.03298
752.20223,0.03287
750.27351,0.03272
748.34478,0.03257
746.41606,0.03222
744.48733,0.03188
742.55861,0.03193
740.62989,0.03219
738.70116,0.03213
736.77244,0.03181
734.84372,0.03185
732.91499,0.03218
730.98627,0.03239
729.05755,0.03260
727.12882,0.03273
725.20010,0.03265
723.27137,0.03278
721.34265,0.03323
719.41393,0.03358
717.48520,0.03364
715.55648,0.03380
713.62776,0.03438
711.69903,0.03513
709.77031,0.03572
707.84159,0.03620
705.91286,0.03676
703.98414,0.03743
702.05541,0.03803
700.12669,0.03860
698.19797,0.03967
696.26924,0.04127
694.34052,0.04255
692.41180,0.04285
690.48307,0.04255
688.55435,0.04235
686.62562,0.04244
684.69690,0.04278
682.76818,0.04333
680.83945,0.04360
678.91073,0.04331
676.98201,0.04316
675.05328,0.04357
673.12456,0.04393
671.19584,0.04357
669.26711,0.04307
667.33839,0.04439
665.40966,0.04677
663.48094,0.04777
661.55222,0.04779
659.62349,0.04823
657.69477,0.04904
655.76605,0.04962
653.83732,0.05020
651.90860,0.05125
649.97988,0.05261
648.05115,0.05395
646.12243,0.05514
644.19370,0.05623
642.26498,0.05735
640.33626,0.05850
638.40753,0.05940
636.47881,0.05989
634.55009,0.06017
632.62136,0.06054
630.69264,0.06122
628.76391,0.06254
626.83519,0.06457
624.90647,0.06603
622.97774,0.06624
621.04902,0.06634
619.12030,0.06735
617.19157,0.06918
615.26285,0.07146
613.33413,0.07337
611.40540,0.07425
609.47668,0.07483
607.54795,0.07601
605.61923,0.07764
603.69051,0.07932
601.76178,0.08071
599.83306,0.08140
597.90434,0.08183
595.97561,0.08268
594.04689,0.08365
592.11817,0.08483
590.18944,0.08648
588.26072,0.08798
586.33199,0.08902
584.40327,0.09006
582.47455,0.09139
580.54582,0.09305
578.61710,0.09469
576.68838,0.09584
574.75965,0.09638
572.83093,0.09655
570.90220,0.09668
568.97348,0.09686
567.04476,0.09703
565.11603,0.09699
563.18731,0.09670
561.25859,0.09691
559.32986,0.09811
557.40114,0.09962
555.47242,0.10069
553.54369,0.10077
551.61497,0.09963
549.68624,0.09837
547.75752,0.09859
545.82880,0.10009
543.90007,0.10150
541.97135,0.10237
540.04263,0.10302
538.11390,0.10321
536.18518,0.10221
534.25646,0.10064
532.32773,0.10017
530.39901,0.10104
528.47028,0.10168
526.54156,0.10129
524.61284,0.10117
522.68411,0.10206
520.75539,0.10301
518.82667,0.10386
516.89794,0.10546
514.96922,0.10729
513.04049,0.10868
511.11177,0.11073
509.18305,0.11400
507.25432,0.11781
505.32560,0.12216
503.39688,0.12749
501.46815,0.13344
499.53943,0.13943
497.61071,0.14641
495.68198,0.15530
493.75326,0.16446
491.82453,0.17241
489.89581,0.18035
487.96709,0.18842
486.03836,0.19507
484.10964,0.20150
482.18092,0.20975
480.25219,0.21851
478.32347,0.22648
476.39475,0.23446
474.46602,0.24135
472.53730,0.24430
470.60857,0.24476
468.67985,0.24754
466.75113,0.25226
464.82240,0.25363
462.89368,0.24980
460.96496,0.24367
459.03623,0.23692
457.10751,0.22999
455.17878,0.22525
453.25006,0.22285
451.32134,0.21965
449.39261,0.21455
447.46389,0.20921
445.53517,0.20418
443.60644,0.19844
441.67772,0.19082
439.74900,0.18157
437.82027,0.17397
435.89155,0.16988
433.96282,0.16601
432.03410,0.15928
430.10538,0.14971
428.17665,0.13827
426.24793,0.12764
424.31921,0.12122
422.39048,0.11981
420.46176,0.12106
418.53304,0.11990
416.60431,0.11225
414.67559,0.10115
412.74686,0.09258
410.81814,0.08862
408.88942,0.08618
406.96069,0.08285
405.03197,0.07986
403.10325,0.07845
401.17452,0.07704
399.24580,0.07166
397.31708,0.06026
395.38835,0.05030
393.45963,0.05177
391.53090,0.06233
389.60218,0.07311
387.67346,0.07563
385.74473,0.06448
383.81601,0.05008
381.88729,0.04809
379.95856,0.05526
378.02984,0.06154
376.10111,0.05697
374.17239,0.03492
372.24367,0.00973
370.31494,0.00000
368.38622,0.00000
