3996.31543,0.00000
3994.38671,0.00008
3992.45799,0.00028
3990.52926,0.00047
3988.60054,0.00038
3986.67182,0.00012
3984.74309,-0.00003
3982.81437,0.00002
3980.88564,0.00020
3978.95692,0.00041
3977.02820,0.00063
3975.09947,0.00083
3973.17075,0.00099
3971.24203,0.00105
3969.31330,0.00093
3967.38458,0.00067
3965.45586,0.00047
3963.52713,0.00045
3961.59841,0.00053
3959.66968,0.00057
3957.74096,0.00046
3955.81224,0.00026
3953.88351,0.00015
3951.95479,0.00022
3950.02607,0.00042
3948.09734,0.00068
3946.16862,0.00088
3944.23990,0.00093
3942.31117,0.00077
3940.38245,0.00055
3938.45372,0.00047
3936.52500,0.00061
3934.59628,0.00080
3932.66755,0.00093
3930.73883,0.00100
3928.81011,0.00106
3926.88138,0.00112
3924.95266,0.00111
3923.02393,0.00099
3921.09521,0.00081
3919.16649,0.00063
3917.23776,0.00049
3915.30904,0.00038
3913.38032,0.00023
3911.45159,0.00014
3909.52287,0.00022
3907.59415,0.00044
3905.66542,0.00071
3903.73670,0.00092
3901.80797,0.00105
3899.87925,0.00097
3897.95053,0.00078
3896.02180,0.00073
3894.09308,0.00084
3892.16436,0.00088
3890.23563,0.00075
3888.30691,0.00053
3886.37819,0.00030
3884.44946,0.00009
3882.52074,0.00000
3880.59201,0.00009
3878.66329,0.00024
3876.73457,0.00027
3874.80584,0.00029
3872.87712,0.00046
3870.94840,0.00059
3869.01967,0.00048
3867.09095,0.00036
3865.16222,0.00033
3863.23350,0.00020
3861.30478,-0.00003
3859.37605,-0.00011
3857.44733,0.00014
3855.51861,0.00060
3853.58988,0.00087
3851.66116,0.00057
3849.73244,-0.00000
3847.80371,-0.00034
3845.87499,-0.00034
3843.94626,-0.00010
3842.01754,0.00019
3840.08882,0.00036
3838.16009,0.00029
3836.23137,0.00012
3834.30265,0.00002
3832.37392,-0.00005
3830.44520,-0.00006
3828.51648,0.00000
3826.58775,0.00014
3824.65903,0.00038
3822.73030,0.00072
3820.80158,0.00103
3818.87286,0.00115
3816.94413,0.00104
3815.01541,0.00069
3813.08669,0.00038
3811.15796,0.00034
3809.22924,0.00051
3807.30052,0.00075
3805.37179,0.00101
3803.44307,0.00125
3801.51434,0.00142
3799.58562,0.00145
3797.65690,0.00152
3795.72817,0.00169
3793.79945,0.00185
3791.87073,0.00193
3789.94200,0.00200
3788.01328,0.00210
3786.08455,0.00222
3784.15583,0.00242
3782.22711,0.00276
3780.29838,0.00311
3778.36966,0.00330
3776.44094,0.00344
3774.51221,0.00370
3772.58349,0.00403
3770.65477,0.00430
3768.72604,0.00455
3766.79732,0.00494
3764.86859,0.00549
3762.93987,0.00612
3761.01115,0.00684
3759.08242,0.00767
3757.15370,0.00837
3755.22498,0.00881
3753.29625,0.00931
3751.36753,0.01021
3749.43881,0.01135
3747.51008,0.01222
3745.58136,0.01285
3743.65263,0.01373
3741.72391,0.01489
3739.79519,0.01600
3737.86646,0.01708
3735.93774,0.01839
3734.00902,0.02000
3732.08029,0.02170
3730.15157,0.02319
3728.22284,0.02456
3726.29412,0.02621
3724.36540,0.02834
3722.43667,0.03082
3720.50795,0.03351
3718.57923,0.03627
3716.65050,0.03898
3714.72178,0.04178
3712.79306,0.04508
3710.86433,0.04889
3708.93561,0.05255
3707.00688,0.05581
3705.07816,0.05911
3703.14944,0.06294
3701.22071,0.06723
3699.29199,0.07138
3697.36327,0.07519
3695.43454,0.07889
3693.50582,0.08262
3691.57710,0.08669
3689.64837,0.09145
3687.71965,0.09632
3685.79092,0.10057
3683.86220,0.10445
3681.93348,0.10854
3680.00475,0.11294
3678.07603,0.11778
3676.14731,0.12359
3674.21858,0.12964
3672.28986,0.13460
3670.36113,0.13947
3668.43241,0.14478
3666.50369,0.14952
3664.57496,0.15375
3662.64624,0.15803
3660.71752,0.16226
3658.78879,0.16646
3656.86007,0.17086
3654.93135,0.17505
3653.00262,0.17856
3651.07390,0.18235
3649.14517,0.18718
3647.21645,0.19180
3645.28773,0.19516
3643.35900,0.19788
3641.43028,0.20077
3639.50156,0.20389
3637.57283,0.20703
3635.64411,0.21008
3633.71539,0.21294
3631.78666,0.21569
3629.85794,0.21898
3627.92921,0.22280
3626.00049,0.22586
3624.07177,0.22803
3622.14304,0.23017
3620.21432,0.23266
3618.28560,0.23517
3616.35687,0.23713
3614.42815,0.23863
3612.49942,0.24006
3610.57070,0.24170
3608.64198,0.24386
3606.71325,0.24636
3604.78453,0.24858
3602.85581,0.25045
3600.92708,0.25233
3598.99836,0.25417
3597.06964,0.25579
3595.14091,0.25748
3593.21219,0.25940
3591.28346,0.26122
3589.35474,0.26297
3587.42602,0.26500
3585.49729,0.26699
3583.56857,0.26857
3581.63985,0.27001
3579.71112,0.27157
3577.78240,0.27318
3575.85368,0.27482
3573.92495,0.27651
3571.99623,0.27805
3570.06750,0.27940
3568.13878,0.28088
3566.21006,0.28263
3564.28133,0.28429
3562.35261,0.28571
3560.42389,0.28710
3558.49516,0.28832
3556.56644,0.28924
3554.63771,0.29011
3552.70899,0.29109
3550.78027,0.29218
3548.85154,0.29358
3546.92282,0.29541
3544.99410,0.29725
3543.06537,0.29860
3541.13665,0.29959
3539.20793,0.30065
3537.27920,0.30191
3535.35048,0.30325
3533.42175,0.30449
3531.49303,0.30560
3529.56431,0.30663
3527.63558,0.30755
3525.70686,0.30848
3523.77814,0.30956
3521.84941,0.31069
3519.92069,0.31176
3517.99197,0.31290
3516.06324,0.31407
3514.13452,0.31506
3512.20579,0.31577
3510.27707,0.31649
3508.34835,0.31755
3506.41962,0.31892
3504.49090,0.32020
3502.56218,0.32106
3500.63345,0.32159
3498.70473,0.32220
3496.77600,0.32314
3494.84728,0.32436
3492.91856,0.32560
3490.98983,0.32660
3489.06111,0.32727
3487.13239,0.32776
3485.20366,0.32834
3483.27494,0.32907
3481.34622,0.32986
3479.41749,0.33052
3477.48877,0.33099
3475.56004,0.33155
3473.63132,0.33259
3471.70260,0.33390
3469.77387,0.33488
3467.84515,0.33534
3465.91643,0.33555
3463.98770,0.33588
3462.05898,0.33639
3460.13026,0.33690
3458.20153,0.33750
3456.27281,0.33833
3454.34408,0.33915
3452.41536,0.33966
3450.48664,0.33996
3448.55791,0.34038
3446.62919,0.34100
3444.70047,0.34173
3442.77174,0.34239
3440.84302,0.34266
3438.91429,0.34269
3436.98557,0.34304
3435.05685,0.34361
3433.12812,0.34396
3431.19940,0.34416
3429.27068,0.34445
3427.34195,0.34476
3425.41323,0.34497
3423.48451,0.34523
3421.55578,0.34555
3419.62706,0.34559
3417.69833,0.34553
3415.76961,0.34586
3413.84089,0.34635
3411.91216,0.34656
3409.98344,0.34664
3408.05472,0.34680
3406.12599,0.34702
3404.19727,0.34707
3402.26855,0.34696
3400.33982,0.34695
3398.41110,0.34701
3396.48237,0.34702
3394.55365,0.34699
3392.62493,0.34695
3390.69620,0.34683
3388.76748,0.34662
3386.83876,0.34636
3384.91003,0.34601
3382.98131,0.34581
3381.05259,0.34586
3379.12386,0.34588
3377.19514,0.34574
3375.26641,0.34568
3373.33769,0.34573
3371.40897,0.34555
3369.48024,0.34512
3367.55152,0.34464
3365.62280,0.34417
3363.69407,0.34375
3361.76535,0.34356
3359.83662,0.34349
3357.90790,0.34332
3355.97918,0.34317
3354.05045,0.34295
3352.12173,0.34253
3350.19301,0.34210
3348.26428,0.34166
3346.33556,0.34115
3344.40684,0.34074
3342.47811,0.34045
3340.54939,0.34020
3338.62066,0.34000
3336.69194,0.33967
3334.76322,0.33907
3332.83449,0.33849
3330.90577,0.33804
3328.97705,0.33755
3327.04832,0.33699
3325.11960,0.33663
3323.19088,0.33651
3321.26215,0.33630
3319.33343,0.33583
3317.40470,0.33543
3315.47598,0.33520
3313.54726,0.33473
3311.61853,0.33399
3309.68981,0.33344
3307.76109,0.33309
3305.83236,0.33269
3303.90364,0.33231
3301.97491,0.33192
3300.04619,0.33149
3298.11747,0.33121
3296.18874,0.33108
3294.26002,0.33077
3292.33130,0.33030
3290.40257,0.32990
3288.47385,0.32958
3286.54513,0.32930
3284.61640,0.32909
3282.68768,0.32886
3280.75895,0.32835
3278.83023,0.32760
3276.90151,0.32704
3274.97278,0.32684
3273.04406,0.32659
3271.11534,0.32594
3269.18661,0.32507
3267.25789,0.32449
3265.32917,0.32417
3263.40044,0.32367
3261.47172,0.32290
3259.54299,0.32223
3257.61427,0.32179
3255.68555,0.32135
3253.75682,0.32077
3251.82810,0.32013
3249.89938,0.31944
3247.97065,0.31878
3246.04193,0.31824
3244.11320,0.31783
3242.18448,0.31732
3240.25576,0.31650
3238.32703,0.31561
3236.39831,0.31495
3234.46959,0.31447
3232.54086,0.31397
3230.61214,0.31327
3228.68342,0.31238
3226.75469,0.31149
3224.82597,0.31082
3222.89724,0.31030
3220.96852,0.30955
3219.03980,0.30847
3217.11107,0.30749
3215.18235,0.30682
3213.25363,0.30624
3211.32490,0.30557
3209.39618,0.30491
3207.46746,0.30427
3205.53873,0.30356
3203.61001,0.30278
3201.68128,0.30193
3199.75256,0.30100
3197.82384,0.30012
3195.89511,0.29923
3193.96639,0.29819
3192.03767,0.29704
3190.10894,0.29595
3188.18022,0.29499
3186.25149,0.29405
3184.32277,0.29306
3182.39405,0.29203
3180.46532,0.29103
3178.53660,0.29006
3176.60788,0.28908
3174.67915,0.28813
3172.75043,0.28719
3170.82171,0.28619
3168.89298,0.28504
3166.96426,0.28381
3165.03553,0.28263
3163.10681,0.28162
3161.17809,0.28080
3159.24936,0.28003
3157.32064,0.27913
3155.39192,0.27803
3153.46319,0.27687
3151.53447,0.27585
3149.60575,0.27490
3147.67702,0.27379
3145.74830,0.27260
3143.81957,0.27147
3141.89085,0.27046
3139.96213,0.26949
3138.03340,0.26843
3136.10468,0.26731
3134.17596,0.26621
3132.24723,0.26509
3130.31851,0.26397
3128.38978,0.26292
3126.46106,0.26193
3124.53234,0.26105
3122.60361,0.26020
3120.67489,0.25918
3118.74617,0.25797
3116.81744,0.25672
3114.88872,0.25551
3112.96000,0.25444
3111.03127,0.25353
3109.10255,0.25257
3107.17382,0.25140
3105.24510,0.25011
3103.31638,0.24889
3101.38765,0.24775
3099.45893,0.24656
3097.53021,0.24527
3095.60148,0.24390
3093.67276,0.24254
3091.74404,0.24129
3089.81531,0.24010
3087.88659,0.23886
3085.95786,0.23756
3084.02914,0.23632
3082.10042,0.23520
3080.17169,0.23410
3078.24297,0.23290
3076.31425,0.23158
3074.38552,0.23028
3072.45680,0.22908
3070.52807,0.22784
3068.59935,0.22644
3066.67063,0.22501
3064.74190,0.22370
3062.81318,0.22245
3060.88446,0.22115
3058.95573,0.21985
3057.02701,0.21865
3055.09829,0.21750
3053.16956,0.21635
3051.24084,0.21521
3049.31211,0.21406
3047.38339,0.21281
3045.45467,0.21146
3043.52594,0.21004
3041.59722,0.20873
3039.66850,0.20762
3037.73977,0.20663
3035.81105,0.20564
3033.88233,0.20460
3031.95360,0.20352
3030.02488,0.20244
3028.09615,0.20131
3026.16743,0.20012
3024.23871,0.19908
3022.30998,0.19816
3020.38126,0.19720
3018.45254,0.19616
3016.52381,0.19511
3014.59509,0.19413
3012.66636,0.19320
3010.73764,0.19227
3008.80892,0.19139
3006.88019,0.19069
3004.95147,0.19007
3003.02275,0.18931
3001.09402,0.18850
2999.16530,0.18781
2997.23658,0.18719
2995.30785,0.18662
2993.37913,0.18611
2991.45040,0.18555
2989.52168,0.18501
2987.59296,0.18466
2985.66423,0.18451
2983.73551,0.18441
2981.80679,0.18439
2979.87806,0.18449
2977.94934,0.18462
2976.02062,0.18474
2974.09189,0.18501
2972.16317,0.18548
2970.23444,0.18599
2968.30572,0.18647
2966.37700,0.18686
2964.44827,0.18706
2962.51955,0.18718
2960.59083,0.18735
2958.66210,0.18730
2956.73338,0.18695
2954.80466,0.18642
2952.87593,0.18575
2950.94721,0.18508
2949.01848,0.18469
2947.08976,0.18471
2945.16104,0.18520
2943.23231,0.18608
2941.30359,0.18708
2939.37487,0.18814
2937.44614,0.18944
2935.51742,0.19095
2933.58869,0.19241
2931.65997,0.19357
2929.73125,0.19443
2927.80252,0.19492
2925.87380,0.19478
2923.94508,0.19386
2922.01635,0.19213
2920.08763,0.18969
2918.15891,0.18671
2916.23018,0.18325
2914.30146,0.17949
2912.37273,0.17587
2910.44401,0.17268
2908.51529,0.16991
2906.58656,0.16740
2904.65784,0.16499
2902.72912,0.16282
2900.80039,0.16097
2898.87167,0.15915
2896.94295,0.15723
2895.01422,0.15541
2893.08550,0.15376
2891.15677,0.15223
2889.22805,0.15078
2887.29933,0.14937
2885.37060,0.14800
2883.44188,0.14678
2881.51316,0.14574
2879.58443,0.14474
2877.65571,0.14389
2875.72698,0.14329
2873.79826,0.14276
2871.86954,0.14201
2869.94081,0.14106
2868.01209,0.14024
2866.08337,0.13979
2864.15464,0.13980
2862.22592,0.14022
2860.29720,0.14084
2858.36847,0.14157
2856.43975,0.14243
2854.51102,0.14304
2852.58230,0.14259
2850.65358,0.14049
2848.72485,0.13680
2846.79613,0.13217
2844.86741,0.12750
2842.93868,0.12346
2841.00996,0.12018
2839.08124,0.11743
2837.15251,0.11499
2835.22379,0.11281
2833.29506,0.11088
2831.36634,0.10917
2829.43762,0.10771
2827.50889,0.10643
2825.58017,0.10521
2823.65145,0.10405
2821.72272,0.10295
2819.79400,0.10187
2817.86527,0.10081
2815.93655,0.09969
2814.00783,0.09853
2812.07910,0.09750
2810.15038,0.09666
2808.22166,0.09582
2806.29293,0.09486
2804.36421,0.09389
2802.43549,0.09298
2800.50676,0.09213
2798.57804,0.09130
2796.64931,0.09045
2794.72059,0.08954
2792.79187,0.08866
2790.86314,0.08791
2788.93442,0.08713
2787.00570,0.08620
2785.07697,0.08529
2783.14825,0.08452
2781.21953,0.08376
2779.29080,0.08298
2777.36208,0.08229
2775.43335,0.08164
2773.50463,0.08088
2771.57591,0.08005
2769.64718,0.07924
2767.71846,0.07840
2765.78974,0.07754
2763.86101,0.07679
2761.93229,0.07615
2760.00356,0.07548
2758.07484,0.07473
2756.14612,0.07398
2754.21739,0.07326
2752.28867,0.07261
2750.35995,0.07203
2748.43122,0.07144
2746.50250,0.07068
2744.57378,0.06977
2742.64505,0.06900
2740.71633,0.06843
2738.78760,0.06780
2736.85888,0.06710
2734.93016,0.06651
2733.00143,0.06598
2731.07271,0.06540
2729.14399,0.06477
2727.21526,0.06410
2725.28654,0.06335
2723.35782,0.06264
2721.42909,0.06208
2719.50037,0.06156
2717.57164,0.06092
2715.64292,0.06016
2713.71420,0.05940
2711.78547,0.05878
2709.85675,0.05827
2707.92803,0.05776
2705.99930,0.05719
2704.07058,0.05649
2702.14185,0.05575
2700.21313,0.05515
2698.28441,0.05471
2696.35568,0.05428
2694.42696,0.05375
2692.49824,0.05313
2690.56951,0.05251
2688.64079,0.05193
2686.71207,0.05139
2684.78334,0.05081
2682.85462,0.05019
2680.92589,0.04966
2678.99717,0.04915
2677.06845,0.04857
2675.13972,0.04800
2673.21100,0.04749
2671.28228,0.04699
2669.35355,0.04645
2667.42483,0.04581
2665.49611,0.04515
2663.56738,0.04465
2661.63866,0.04425
2659.70993,0.04378
2657.78121,0.04329
2655.85249,0.04288
2653.92376,0.04247
2651.99504,0.04199
2650.06632,0.04142
2648.13759,0.04085
2646.20887,0.04033
2644.28014,0.03991
2642.35142,0.03953
2640.42270,0.03905
2638.49397,0.03847
2636.56525,0.03795
2634.63653,0.03747
2632.70780,0.03696
2630.77908,0.03648
2628.85036,0.03610
2626.92163,0.03577
2624.99291,0.03542
2623.06418,0.03496
2621.13546,0.03446
2619.20674,0.03403
2617.27801,0.03363
2615.34929,0.03315
2613.42057,0.03269
2611.49184,0.03233
2609.56312,0.03201
2607.63440,0.03164
2605.70567,0.03124
2603.77695,0.03084
2601.84822,0.03048
2599.91950,0.03016
2597.99078,0.02973
2596.06205,0.02918
2594.13333,0.02871
2592.20461,0.02837
2590.27588,0.02809
2588.34716,0.02777
2586.41843,0.02742
2584.48971,0.02702
2582.56099,0.02663
2580.63226,0.02633
2578.70354,0.02609
2576.77482,0.02586
2574.84609,0.02559
2572.91737,0.02528
2570.98865,0.02491
2569.05992,0.02450
2567.13120,0.02415
2565.20247,0.02387
2563.27375,0.02357
2561.34503,0.02321
2559.41630,0.02294
2557.48758,0.02279
2555.55886,0.02258
2553.63013,0.02230
2551.70141,0.02206
2549.77269,0.02181
2547.84396,0.02147
2545.91524,0.02107
2543.98651,0.02074
2542.05779,0.02050
2540.12907,0.02034
2538.20034,0.02020
2536.27162,0.01999
2534.34290,0.01971
2532.41417,0.01939
2530.48545,0.01913
2528.55673,0.01891
2526.62800,0.01866
2524.69928,0.01844
2522.77055,0.01830
2520.84183,0.01819
2518.91311,0.01805
2516.98438,0.01779
2515.05566,0.01744
2513.12694,0.01714
2511.19821,0.01697
2509.26949,0.01682
2507.34076,0.01658
2505.41204,0.01625
2503.48332,0.01597
2501.55459,0.01575
2499.62587,0.01548
2497.69715,0.01517
2495.76842,0.01495
2493.83970,0.01484
2491.91098,0.01464
2489.98225,0.01433
2488.05353,0.01410
2486.12480,0.01395
2484.19608,0.01372
2482.26736,0.01341
2480.33863,0.01314
2478.40991,0.01295
2476.48119,0.01275
2474.55246,0.01249
2472.62374,0.01227
2470.69502,0.01215
2468.76629,0.01197
2466.83757,0.01167
2464.90884,0.01139
2462.98012,0.01121
2461.05140,0.01102
2459.12267,0.01077
2457.19395,0.01052
2455.26523,0.01031
2453.33650,0.01017
2451.40778,0.01005
2449.47905,0.00984
2447.55033,0.00954
2445.62161,0.00929
2443.69288,0.00911
2441.76416,0.00895
2439.83544,0.00877
2437.90671,0.00857
2435.97799,0.00838
2434.04927,0.00826
2432.12054,0.00811
2430.19182,0.00782
2428.26309,0.00749
2426.33437,0.00731
2424.40565,0.00720
2422.47692,0.00699
2420.54820,0.00679
2418.61948,0.00667
2416.69075,0.00655
2414.76203,0.00638
2412.83331,0.00625
2410.90458,0.00613
2408.97586,0.00601
2407.04713,0.00581
2405.11841,0.00552
2403.18969,0.00529
2401.26096,0.00522
2399.33224,0.00524
2397.40352,0.00518
2395.47479,0.00500
2393.54607,0.00477
2391.61734,0.00458
2389.68862,0.00442
2387.75990,0.00428
2385.83117,0.00419
2383.90245,0.00417
2381.97373,0.00420
2380.04500,0.00424
2378.11628,0.00423
2376.18756,0.00419
2374.25883,0.00424
2372.33011,0.00438
2370.40138,0.00452
2368.47266,0.00458
2366.54394,0.00453
2364.61521,0.00443
2362.68649,0.00440
2360.75777,0.00445
2358.82904,0.00442
2356.90032,0.00428
2354.97160,0.00416
2353.04287,0.00403
2351.11415,0.00379
2349.18542,0.00356
2347.25670,0.00349
2345.32798,0.00352
2343.39925,0.00353
2341.47053,0.00356
2339.54181,0.00361
2337.61308,0.00352
2335.68436,0.00325
2333.75563,0.00298
2331.82691,0.00280
2329.89819,0.00269
2327.96946,0.00264
2326.04074,0.00264
2324.11202,0.00264
2322.18329,0.00260
2320.25457,0.00254
2318.32585,0.00246
2316.39712,0.00234
2314.46840,0.00221
2312.53967,0.00208
2310.61095,0.00197
2308.68223,0.00191
2306.75350,0.00187
2304.82478,0.00179
2302.89606,0.00167
2300.96733,0.00153
2299.03861,0.00139
2297.10989,0.00129
2295.18116,0.00127
2293.25244,0.00129
2291.32371,0.00127
2289.39499,0.00120
2287.46627,0.00112
2285.53754,0.00104
2283.60882,0.00099
2281.68010,0.00095
2279.75137,0.00091
2277.82265,0.00086
2275.89392,0.00084
2273.96520,0.00088
2272.03648,0.00095
2270.10775,0.00099
2268.17903,0.00097
2266.25031,0.00091
2264.32158,0.00080
2262.39286,0.00071
2260.46414,0.00069
2258.53541,0.00069
2256.60669,0.00069
2254.67796,0.00069
2252.74924,0.00071
2250.82052,0.00070
2248.89179,0.00064
2246.96307,0.00055
2245.03435,0.00050
2243.10562,0.00052
2241.17690,0.00049
2239.24818,0.00039
2237.31945,0.00031
2235.39073,0.00029
2233.46200,0.00033
2231.53328,0.00034
2229.60456,0.00029
2227.67583,0.00027
2225.74711,0.00028
2223.81839,0.00026
2221.88966,0.00023
2219.96094,0.00018
2218.03221,0.00009
2216.10349,0.00004
2214.17477,0.00002
2212.24604,0.00004
2210.31732,0.00006
2208.38860,0.00003
2206.45987,0.00000
2204.53115,-0.00003
2202.60243,-0.00006
2200.67370,-0.00004
2198.74498,0.00011
2196.81625,0.00026
2194.88753,0.00022
2192.95881,0.00008
2191.03008,-0.00001
2189.10136,-0.00005
2187.17264,-0.00006
2185.24391,-0.00002
2183.31519,0.00004
2181.38647,0.00008
2179.45774,0.00006
2177.52902,0.00005
2175.60029,0.00009
2173.67157,0.00013
2171.74285,0.00013
2169.81412,0.00008
2167.88540,0.00002
2165.95668,0.00002
2164.02795,0.00011
2162.09923,0.00018
2160.17050,0.00019
2158.24178,0.00021
2156.31306,0.00030
2154.38433,0.00037
2152.45561,0.00034
2150.52689,0.00030
2148.59816,0.00027
2146.66944,0.00022
2144.74072,0.00024
2142.81199,0.00028
2140.88327,0.00028
2138.95454,0.00030
2137.02582,0.00032
2135.09710,0.00028
2133.16837,0.00026
2131.23965,0.00031
2129.31093,0.00037
2127.38220,0.00037
2125.45348,0.00031
2123.52476,0.00026
2121.59603,0.00028
2119.66731,0.00033
2117.73858,0.00032
2115.80986,0.00025
2113.88114,0.00015
2111.95241,0.00009
2110.02369,0.00012
2108.09497,0.00013
2106.16624,0.00009
2104.23752,0.00010
2102.30880,0.00016
2100.38007,0.00021
2098.45135,0.00024
2096.52262,0.00025
2094.59390,0.00022
2092.66518,0.00013
2090.73645,0.00000
2088.80773,-0.00005
2086.87901,0.00002
2084.95028,0.00007
2083.02156,-0.00002
2081.09283,-0.00012
2079.16411,-0.00011
2077.23539,-0.00003
2075.30666,0.00003
2073.37794,0.00005
2071.44922,0.00005
2069.52049,0.00008
2067.59177,0.00012
2065.66305,0.00019
2063.73432,0.00026
2061.80560,0.00031
2059.87687,0.00039
2057.94815,0.00055
2056.01943,0.00075
2054.09070,0.00089
2052.16198,0.00097
2050.23326,0.00109
2048.30453,0.00127
2046.37581,0.00144
2044.44709,0.00158
2042.51836,0.00169
2040.58964,0.00182
2038.66091,0.00201
2036.73219,0.00222
2034.80347,0.00239
2032.87474,0.00256
2030.94602,0.00280
2029.01730,0.00307
2027.08857,0.00331
2025.15985,0.00348
2023.23112,0.00362
2021.30240,0.00379
2019.37368,0.00400
2017.44495,0.00418
2015.51623,0.00429
2013.58751,0.00435
2011.65878,0.00443
2009.73006,0.00451
2007.80134,0.00456
2005.87261,0.00462
2003.94389,0.00470
2002.01516,0.00473
2000.08644,0.00473
1998.15772,0.00475
1996.22899,0.00480
1994.30027,0.00482
1992.37155,0.00478
1990.44282,0.00474
1988.51410,0.00476
1986.58538,0.00474
1984.65665,0.00461
1982.72793,0.00445
1980.79920,0.00429
1978.87048,0.00410
1976.94176,0.00390
1975.01303,0.00378
1973.08431,0.00373
1971.15559,0.00366
1969.22686,0.00355
1967.29814,0.00337
1965.36941,0.00307
1963.44069,0.00270
1961.51197,0.00239
1959.58324,0.00217
1957.65452,0.00198
1955.72580,0.00173
1953.79707,0.00143
1951.86835,0.00118
1949.93963,0.00105
1948.01090,0.00097
1946.08218,0.00084
1944.15345,0.00063
1942.22473,0.00042
1940.29601,0.00028
1938.36728,0.00020
1936.43856,0.00013
1934.50984,0.00007
1932.58111,-0.00000
1930.65239,-0.00008
1928.72367,-0.00009
1926.79494,0.00000
1924.86622,0.00014
1922.93749,0.00029
1921.00877,0.00045
1919.08005,0.00067
1917.15132,0.00094
1915.22260,0.00120
1913.29388,0.00147
1911.36515,0.00183
1909.43643,0.00227
1907.50770,0.00273
1905.57898,0.00320
1903.65026,0.00372
1901.72153,0.00425
1899.79281,0.00476
1897.86409,0.00530
1895.93536,0.00588
1894.00664,0.00647
1892.07792,0.00700
1890.14919,0.00744
1888.22047,0.00782
1886.29174,0.00816
1884.36302,0.00849
1882.43430,0.00881
1880.50557,0.00908
1878.57685,0.00925
1876.64813,0.00933
1874.71940,0.00933
1872.79068,0.00933
1870.86196,0.00939
1868.93323,0.00939
1867.00451,0.00916
1865.07578,0.00869
1863.14706,0.00817
1861.21834,0.00768
1859.28961,0.00716
1857.36089,0.00661
1855.43217,0.00605
1853.50344,0.00546
1851.57472,0.00488
1849.64599,0.00439
1847.71727,0.00399
1845.78855,0.00358
1843.85982,0.00310
1841.93110,0.00257
1840.00238,0.00206
1838.07365,0.00159
1836.14493,0.00117
1834.21621,0.00089
1832.28748,0.00077
1830.35876,0.00074
1828.43003,0.00063
1826.50131,0.00041
1824.57259,0.00017
1822.64386,0.00000
1820.71514,-0.00009
1818.78642,-0.00007
1816.85769,-0.00003
1814.92897,0.00000
1813.00025,-0.00014
1811.07152,-0.00014
1809.14280,-0.00004
1807.21407,0.00005
1805.28535,0.00017
1803.35663,0.00040
1801.42790,0.00075
1799.49918,0.00119
1797.57046,0.00164
1795.64173,0.00215
1793.71301,0.00284
1791.78428,0.00367
1789.85556,0.00437
1787.92684,0.00497
1785.99811,0.00578
1784.06939,0.00682
1782.14067,0.00790
1780.21194,0.00889
1778.28322,0.00981
1776.35450,0.01074
1774.42577,0.01189
1772.49705,0.01326
1770.56832,0.01450
1768.63960,0.01538
1766.71088,0.01609
1764.78215,0.01684
1762.85343,0.01782
1760.92471,0.01900
1758.99598,0.02018
1757.06726,0.02138
1755.13854,0.02262
1753.20981,0.02390
1751.28109,0.02542
1749.35236,0.02721
1747.42364,0.02895
1745.49492,0.03052
1743.56619,0.03217
1741.63747,0.03407
1739.70875,0.03615
1737.78002,0.03815
1735.85130,0.04033
1733.92257,0.04312
1731.99385,0.04584
1730.06513,0.04791
1728.13640,0.04986
1726.20768,0.05199
1724.27896,0.05425
1722.35023,0.05638
1720.42151,0.05845
1718.49279,0.06097
1716.56406,0.06395
1714.63534,0.06652
1712.70661,0.06859
1710.77789,0.07066
1708.84917,0.07301
1706.92044,0.07578
1704.99172,0.07871
1703.06300,0.08142
1701.13427,0.08459
1699.20555,0.08879
1697.27683,0.09315
1695.34810,0.09717
1693.41938,0.10062
1691.49065,0.10374
1689.56193,0.10711
1687.63321,0.11072
1685.70448,0.11505
1683.77576,0.12053
1681.84704,0.12532
1679.91831,0.12872
1677.98959,0.13192
1676.06087,0.13580
1674.13214,0.13997
1672.20342,0.14371
1670.27469,0.14742
1668.34597,0.15110
1666.41725,0.15397
1664.48852,0.15652
1662.55980,0.15950
1660.63108,0.16238
1658.70235,0.16452
1656.77363,0.16620
1654.84490,0.16827
1652.91618,0.17092
1650.98746,0.17272
1649.05873,0.17359
1647.13001,0.17461
1645.20129,0.17571
1643.27256,0.17632
1641.34384,0.17662
1639.41512,0.17689
1637.48639,0.17721
1635.55767,0.17751
1633.62894,0.17744
1631.70022,0.17696
1629.77150,0.17621
1627.84277,0.17514
1625.91405,0.17366
1623.98533,0.17171
1622.05660,0.16941
1620.12788,0.16706
1618.19916,0.16450
1616.27043,0.16138
1614.34171,0.15817
1612.41298,0.15524
1610.48426,0.15231
1608.55554,0.14917
1606.62681,0.14588
1604.69809,0.14254
1602.76937,0.13923
1600.84064,0.13615
1598.91192,0.13337
1596.98319,0.13070
1595.05447,0.12795
1593.12575,0.12514
1591.19702,0.12243
1589.26830,0.11993
1587.33958,0.11764
1585.41085,0.11546
1583.48213,0.11331
1581.55341,0.11125
1579.62468,0.10934
1577.69596,0.10739
1575.76723,0.10528
1573.83851,0.10336
1571.90979,0.10189
1569.98106,0.10059
1568.05234,0.09927
1566.12362,0.09796
1564.19489,0.09678
1562.26617,0.09582
1560.33745,0.09502
1558.40872,0.09421
1556.48000,0.09325
1554.55127,0.09206
1552.62255,0.09063
1550.69383,0.08923
1548.76510,0.08803
1546.83638,0.08695
1544.90766,0.08586
1542.97893,0.08469
1541.05021,0.08306
1539.12148,0.08068
1537.19276,0.07829
1535.26404,0.07619
1533.33531,0.07402
1531.40659,0.07189
1529.47787,0.06997
1527.54914,0.06793
1525.62042,0.06556
1523.69170,0.06314
1521.76297,0.06080
1519.83425,0.05869
1517.90552,0.05682
1515.97680,0.05481
1514.04808,0.05259
1512.11935,0.05043
1510.19063,0.04840
1508.26191,0.04582
1506.33318,0.04197
1504.40446,0.03810
1502.47574,0.03530
1500.54701,0.03307
1498.61829,0.03082
1496.68956,0.02852
1494.76084,0.02653
1492.83212,0.02509
1490.90339,0.02403
1488.97467,0.02311
1487.04595,0.02239
1485.11722,0.02202
1483.18850,0.02211
1481.25977,0.02262
1479.33105,0.02347
1477.40233,0.02475
1475.47360,0.02688
1473.54488,0.03018
1471.61616,0.03400
1469.68743,0.03703
1467.75871,0.03917
1465.82999,0.04097
1463.90126,0.04239
1461.97254,0.04325
1460.04381,0.04398
1458.11509,0.04506
1456.18637,0.04606
1454.25764,0.04633
1452.32892,0.04620
1450.40020,0.04620
1448.47147,0.04641
1446.54275,0.04668
1444.61403,0.04689
1442.68530,0.04707
1440.75658,0.04730
1438.82785,0.04776
1436.89913,0.04851
1434.97041,0.04923
1433.04168,0.04965
1431.11296,0.05008
1429.18424,0.05069
1427.25551,0.05137
1425.32679,0.05210
1423.39806,0.05294
1421.46934,0.05383
1419.54062,0.05487
1417.61189,0.05612
1415.68317,0.05722
1413.75445,0.05812
1411.82572,0.05917
1409.89700,0.06049
1407.96828,0.06191
1406.03955,0.06326
1404.11083,0.06434
1402.18210,0.06479
1400.25338,0.06440
1398.32466,0.06314
1396.39593,0.06104
1394.46721,0.05829
1392.53849,0.05551
1390.60976,0.05323
1388.68104,0.05141
1386.75232,0.04991
1384.82359,0.04854
1382.89487,0.04709
1380.96614,0.04548
1379.03742,0.04383
1377.10870,0.04217
1375.17997,0.04039
1373.25125,0.03850
1371.32253,0.03674
1369.39380,0.03519
1367.46508,0.03373
1365.53635,0.03229
1363.60763,0.03088
1361.67891,0.02949
1359.75018,0.02821
1357.82146,0.02705
1355.89274,0.02598
1353.96401,0.02500
1352.03529,0.02414
1350.10657,0.02338
1348.17784,0.02268
1346.24912,0.02201
1344.32039,0.02138
1342.39167,0.02084
1340.46295,0.02043
1338.53422,0.02014
1336.60550,0.01984
1334.67678,0.01949
1332.74805,0.01916
1330.81933,0.01895
1328.89061,0.01883
1326.96188,0.01874
1325.03316,0.01874
1323.10443,0.01885
1321.17571,0.01899
1319.24699,0.01916
1317.31826,0.01943
1315.38954,0.01980
1313.46082,0.02017
1311.53209,0.02045
1309.60337,0.02069
1307.67464,0.02096
1305.74592,0.02142
1303.81720,0.02223
1301.88847,0.02327
1299.95975,0.02432
1298.03103,0.02536
1296.10230,0.02656
1294.17358,0.02810
1292.24486,0.02998
1290.31613,0.03201
1288.38741,0.03412
1286.45868,0.03642
1284.52996,0.03907
1282.60124,0.04213
1280.67251,0.04554
1278.74379,0.04922
1276.81507,0.05321
1274.88634,0.05756
1272.95762,0.06232
1271.02890,0.06765
1269.10017,0.07364
1267.17145,0.08021
1265.24272,0.08741
1263.31400,0.09551
1261.38528,0.10491
1259.45655,0.11560
1257.52783,0.12711
1255.59911,0.13916
1253.67038,0.15174
1251.74166,0.16461
1249.81294,0.17729
1247.88421,0.18919
1245.95549,0.20007
1244.02676,0.21007
1242.09804,0.21930
1240.16932,0.22775
1238.24059,0.23539
1236.31187,0.24221
1234.38315,0.24844
1232.45442,0.25421
1230.52570,0.25928
1228.59697,0.26371
1226.66825,0.26794
1224.73953,0.27205
1222.81080,0.27568
1220.88208,0.27888
1218.95336,0.28200
1217.02463,0.28503
1215.09591,0.28780
1213.16719,0.29042
1211.23846,0.29310
1209.30974,0.29580
1207.38101,0.29827
1205.45229,0.30056
1203.52357,0.30281
1201.59484,0.30502
1199.66612,0.30724
1197.73740,0.30956
1195.80867,0.31185
1193.87995,0.31407
1191.95123,0.31639
1190.02250,0.31876
1188.09378,0.32091
1186.16505,0.32289
1184.23633,0.32485
1182.30761,0.32694
1180.37888,0.32916
1178.45016,0.33147
1176.52144,0.33379
1174.59271,0.33595
1172.66399,0.33780
1170.73526,0.33958
1168.80654,0.34160
1166.87782,0.34372
1164.94909,0.34576
1163.02037,0.34773
1161.09165,0.34968
1159.16292,0.35188
1157.23420,0.35420
1155.30548,0.35614
1153.37675,0.35777
1151.44803,0.35960
1149.51930,0.36170
1147.59058,0.36371
1145.66186,0.36561
1143.73313,0.36756
1141.80441,0.36936
1139.87569,0.37116
1137.94696,0.37340
1136.01824,0.37598
1134.08952,0.37858
1132.16079,0.38129
1130.23207,0.38451
1128.30334,0.38803
1126.37462,0.39152
1124.44590,0.39528
1122.51717,0.39944
1120.58845,0.40415
1118.65973,0.40957
1116.73100,0.41542
1114.80228,0.42164
1112.87355,0.42850
1110.94483,0.43584
1109.01611,0.44309
1107.08738,0.44968
1105.15866,0.45587
1103.22994,0.46234
1101.30121,0.46840
1099.37249,0.47294
1097.44377,0.47613
1095.51504,0.47879
1093.58632,0.48090
1091.65759,0.48197
1089.72887,0.48240
1087.80015,0.48258
1085.87142,0.48205
1083.94270,0.48061
1082.01398,0.47864
1080.08525,0.47647
1078.15653,0.47425
1076.22781,0.47171
1074.29908,0.46813
1072.37036,0.46367
1070.44163,0.45910
1068.51291,0.45446
1066.58419,0.44964
1064.65546,0.44437
1062.72674,0.43862
1060.79802,0.43274
1058.86929,0.42668
1056.94057,0.42010
1055.01184,0.41322
1053.08312,0.40651
1051.15440,0.39990
1049.22567,0.39265
1047.29695,0.38448
1045.36823,0.37619
1043.43950,0.36811
1041.51078,0.36001
1039.58206,0.35204
1037.65333,0.34414
1035.72461,0.33620
1033.79588,0.32811
1031.86716,0.31982
1029.93844,0.31154
1028.00971,0.30344
1026.08099,0.29565
1024.15227,0.28829
1022.22354,0.28114
1020.29482,0.27403
1018.36610,0.26731
1016.43737,0.26116
1014.50865,0.25522
1012.57992,0.24942
1010.65120,0.24403
1008.72248,0.23893
1006.79375,0.23401
1004.86503,0.22936
1002.93631,0.22461
1001.00758,0.21962
999.07886,0.21483
997.15013,0.21038
995.22141,0.20614
993.29269,0.20209
991.36396,0.19836
989.43524,0.19489
987.50652,0.19156
985.57779,0.18846
983.64907,0.18577
981.72035,0.18353
979.79162,0.18177
977.86290,0.18037
975.93417,0.17906
974.00545,0.17776
972.07673,0.17654
970.14800,0.17543
968.21928,0.17460
966.29056,0.17409
964.36183,0.17358
962.43311,0.17294
960.50439,0.17235
958.57566,0.17186
956.64694,0.17111
954.71821,0.17007
952.78949,0.16920
950.86077,0.16833
948.93204,0.16698
947.00332,0.16535
945.07460,0.16378
943.14587,0.16188
941.21715,0.15923
939.28842,0.15637
937.35970,0.15391
935.43098,0.15169
933.50225,0.14903
931.57353,0.14574
929.64481,0.14240
927.71608,0.13929
925.78736,0.13580
923.85864,0.13181
921.92991,0.12796
920.00119,0.12446
918.07246,0.12082
916.14374,0.11692
914.21502,0.11294
912.28629,0.10884
910.35757,0.10463
908.42885,0.10048
906.50012,0.09636
904.57140,0.09223
902.64268,0.08796
900.71395,0.08385
898.78523,0.08024
896.85650,0.07685
894.92778,0.07325
892.99906,0.06932
891.07033,0.06526
889.14161,0.06148
887.21289,0.05815
885.28416,0.05508
883.35544,0.05202
881.42671,0.04899
879.49799,0.04623
877.56927,0.04357
875.64054,0.04086
873.71182,0.03848
871.78310,0.03627
869.85437,0.03368
867.92565,0.03122
865.99693,0.02951
864.06820,0.02801
862.13948,0.02630
860.21075,0.02465
858.28203,0.02321
856.35331,0.02220
854.42458,0.02182
852.49586,0.02146
850.56714,0.02063
848.63841,0.01979
846.70969,0.01970
844.78097,0.02071
842.85224,0.02266
840.92352,0.02521
838.99479,0.02825
837.06607,0.03166
835.13735,0.03507
833.20862,0.03833
831.27990,0.04175
829.35118,0.04538
827.42245,0.04910
825.49373,0.05285
823.56501,0.05665
821.63628,0.06080
819.70756,0.06470
817.77883,0.06750
815.85011,0.06996
813.92139,0.07301
811.99266,0.07634
810.06394,0.07940
808.13522,0.08228
806.20649,0.08517
804.27777,0.08753
802.34904,0.08896
800.42032,0.08990
798.49160,0.09037
796.56287,0.09014
794.63415,0.08950
792.70543,0.08868
790.77670,0.08743
788.84798,0.08520
786.91926,0.08198
784.99053,0.07861
783.06181,0.07564
781.13308,0.07268
779.20436,0.06906
777.27564,0.06461
775.34691,0.05966
773.41819,0.05481
771.48947,0.05081
769.56074,0.04802
767.63202,0.04607
765.70330,0.04478
763.77457,0.04412
761.84585,0.04351
759.91712,0.04263
757.98840,0.04188
756.05968,0.04149
754.13095,0.04132
752.20223,0.04113
750.27351,0.04095
748.34478,0.04076
746.41606,0.04014
744.48733,0.03926
742.55861,0.03866
740.62989,0.03840
738.70116,0.03845
736.77244,0.03845
734.84372,0.03829
732.91499,0.03837
730.98627,0.03883
729.05755,0.03938
727.12882,0.03988
725.20010,0.04040
723.27137,0.04097
721.34265,0.04153
719.41393,0.04199
717.48520,0.04224
715.55648,0.04239
713.62776,0.04283
711.69903,0.04346
709.77031,0.04404
707.84159,0.04481
705.91286,0.04571
703.98414,0.04649
702.05541,0.04727
700.12669,0.04810
698.19797,0.04891
696.26924,0.05003
694.34052,0.05163
692.41180,0.05286
690.48307,0.05289
688.55435,0.05214
686.62562,0.05161
684.69690,0.05143
682.76818,0.05129
680.83945,0.05138
678.91073,0.05201
676.98201,0.05298
675.05328,0.05376
673.12456,0.05384
671.19584,0.05322
669.26711,0.05239
667.33839,0.05221
665.40966,0.05309
663.48094,0.05426
661.55222,0.05510
659.62349,0.05597
657.69477,0.05718
655.76605,0.05814
653.83732,0.05843
651.90860,0.05868
649.97988,0.05961
648.05115,0.06104
646.12243,0.06231
644.19370,0.06315
642.26498,0.06401
640.33626,0.06534
638.40753,0.06657
636.47881,0.06732
634.55009,0.06849
632.62136,0.07064
630.69264,0.07298
628.76391,0.07465
626.83519,0.07522
624.90647,0.07486
622.97774,0.07508
621.04902,0.07706
619.12030,0.08000
617.19157,0.08225
615.26285,0.08352
613.33413,0.08479
611.40540,0.08609
609.47668,0.08670
607.54795,0.08667
605.61923,0.08654
603.69051,0.08706
601.76178,0.08885
599.83306,0.09162
597.90434,0.09421
595.97561,0.09572
594.04689,0.09615
592.11817,0.09620
590.18944,0.09680
588.26072,0.09822
586.33199,0.10027
584.40327,0.10205
582.47455,0.10270
580.54582,0.10352
578.61710,0.10530
576.68838,0.10671
574.75965,0.10727
572.83093,0.10733
570.90220,0.10699
568.97348,0.10676
567.04476,0.10705
565.11603,0.10759
563.18731,0.10818
561.25859,0.10875
559.32986,0.10899
557.40114,0.10914
555.47242,0.10944
553.54369,0.10948
551.61497,0.10965
549.68624,0.11137
547.75752,0.11459
545.82880,0.11685
543.90007,0.11627
541.97135,0.11371
540.04263,0.11147
538.11390,0.11077
536.18518,0.11100
534.25646,0.11152
532.32773,0.11186
530.39901,0.11148
528.47028,0.11139
526.54156,0.11217
524.61284,0.11257
522.68411,0.11283
520.75539,0.11423
518.82667,0.11561
516.89794,0.11555
514.96922,0.11574
513.04049,0.11778
511.11177,0.12092
509.18305,0.12484
507.25432,0.12970
505.32560,0.13397
503.39688,0.13743
501.46815,0.14317
499.53943,0.15236
497.61071,0.16212
495.68198,0.17010
493.75326,0.17670
491.82453,0.18383
489.89581,0.19266
487.96709,0.20194
486.03836,0.20930
484.10964,0.21434
482.18092,0.21982
480.25219,0.22897
478.32347,0.24097
476.39475,0.25048
474.46602,0.25390
472.53730,0.25546
470.60857,0.26051
468.67985,0.26691
466.75113,0.27051
464.82240,0.27097
462.89368,0.27039
460.96496,0.26922
459.03623,0.26500
457.10751,0.25716
455.17878,0.24953
453.25006,0.24461
451.32134,0.24030
449.39261,0.23515
447.46389,0.23080
445.53517,0.22535
443.60644,0.21454
441.67772,0.20123
439.74900,0.19169
437.82027,0.18625
435.89155,0.18222
433.96282,0.17814
432.03410,0.17312
430.10538,0.16707
428.17665,0.15970
426.24793,0.15040
424.31921,0.14022
422.39048,0.13155
420.46176,0.12648
418.53304,0.12362
416.60431,0.11805
414.67559,0.10872
412.74686,0.09929
410.81814,0.09374
408.88942,0.09180
406.96069,0.09061
405.03197,0.08860
403.10325,0.08647
401.17452,0.08479
399.24580,0.07834
397.31708,0.06787
395.38835,0.07138
393.45963,0.08850
391.53090,0.09766
389.60218,0.09170
387.67346,0.07635
385.74473,0.05425
383.81601,0.03629
381.88729,0.03832
379.95856,0.04943
378.02984,0.03967
376.10111,0.00937
374.17239,0.00000
372.24367,-0.00539
370.31494,0.00204
368.38622,0.00000
