3996.31543,0.00013
3994.38671,0.00003
3992.45799,0.00000
3990.52926,0.00010
3988.60054,0.00036
3986.67182,0.00067
3984.74309,0.00086
3982.81437,0.00092
3980.88564,0.00099
3978.95692,0.00116
3977.02820,0.00129
3975.09947,0.00113
3973.17075,0.00091
3971.24203,0.00099
3969.31330,0.00122
3967.38458,0.00131
3965.45586,0.00129
3963.52713,0.00129
3961.59841,0.00127
3959.66968,0.00128
3957.74096,0.00139
3955.81224,0.00156
3953.88351,0.00186
3951.95479,0.00215
3950.02607,0.00207
3948.09734,0.00172
3946.16862,0.00178
3944.23990,0.00221
3942.31117,0.00224
3940.38245,0.00194
3938.45372,0.00189
3936.52500,0.00214
3934.59628,0.00233
3932.66755,0.00208
3930.73883,0.00158
3928.81011,0.00160
3926.88138,0.00214
3924.95266,0.00238
3923.02393,0.00224
3921.09521,0.00230
3919.16649,0.00237
3917.23776,0.00197
3915.30904,0.00155
3913.38032,0.00163
3911.45159,0.00208
3909.52287,0.00281
3907.59415,0.00392
3905.66542,0.00470
3903.73670,0.00418
3901.80797,0.00270
3899.87925,0.00129
3897.95053,0.00084
3896.02180,0.00182
3894.09308,0.00324
3892.16436,0.00339
3890.23563,0.00273
3888.30691,0.00280
3886.37819,0.00292
3884.44946,0.00250
3882.52074,0.00240
3880.59201,0.00227
3878.66329,0.00218
3876.73457,0.00306
3874.80584,0.00413
3872.87712,0.00437
3870.94840,0.00375
3869.01967,0.00290
3867.09095,0.00301
3865.16222,0.00333
3863.23350,0.00253
3861.30478,0.00189
3859.37605,0.00303
3857.44733,0.00556
3855.51861,0.00701
3853.58988,0.00455
3851.66116,0.00065
3849.73244,0.00000
3847.80371,0.00167
3845.87499,0.00338
3843.94626,0.00439
3842.01754,0.00494
3840.08882,0.00481
3838.16009,0.00338
3836.23137,0.00179
3834.30265,0.00152
3832.37392,0.00193
3830.44520,0.00233
3828.51648,0.00287
3826.58775,0.00365
3824.65903,0.00480
3822.73030,0.00539
3820.80158,0.00420
3818.87286,0.00286
3816.94413,0.00233
3815.01541,0.00171
3813.08669,0.00198
3811.15796,0.00367
3809.22924,0.00525
3807.30052,0.00542
3805.37179,0.00521
3803.44307,0.00545
3801.51434,0.00471
3799.58562,0.00344
3797.65690,0.00320
3795.72817,0.00337
3793.79945,0.00363
3791.87073,0.00429
3789.94200,0.00508
3788.01328,0.00571
3786.08455,0.00597
3784.15583,0.00596
3782.22711,0.00614
3780.29838,0.00615
3778.36966,0.00564
3776.44094,0.00571
3774.51221,0.00692
3772.58349,0.00834
3770.65477,0.00874
3768.72604,0.00807
3766.79732,0.00743
3764.86859,0.00748
3762.93987,0.00845
3761.01115,0.00969
3759.08242,0.01012
3757.15370,0.01038
3755.22498,0.01188
3753.29625,0.01372
3751.36753,0.01357
3749.43881,0.01216
3747.51008,0.01246
3745.58136,0.01336
3743.65263,0.01316
3741.72391,0.01391
3739.79519,0.01664
3737.86646,0.01934
3735.93774,0.01999
3734.00902,0.01906
3732.08029,0.01914
3730.15157,0.02123
3728.22284,0.02419
3726.29412,0.02657
3724.36540,0.02805
3722.43667,0.02943
3720.50795,0.03135
3718.57923,0.03406
3716.65050,0.03756
3714.72178,0.04141
3712.79306,0.04448
3710.86433,0.04626
3708.93561,0.04838
3707.00688,0.05194
3705.07816,0.05624
3703.14944,0.06027
3701.22071,0.06377
3699.29199,0.06737
3697.36327,0.07152
3695.43454,0.07604
3693.50582,0.08067
3691.57710,0.08486
3689.64837,0.08785
3687.71965,0.09049
3685.79092,0.09450
3683.86220,0.09975
3681.93348,0.10535
3680.00475,0.11096
3678.07603,0.11643
3676.14731,0.12131
3674.21858,0.12568
3672.28986,0.13040
3670.36113,0.13500
3668.43241,0.13912
3666.50369,0.14373
3664.57496,0.14904
3662.64624,0.15433
3660.71752,0.15924
3658.78879,0.16367
3656.86007,0.16756
3654.93135,0.17158
3653.00262,0.17638
3651.07390,0.18086
3649.14517,0.18339
3647.21645,0.18533
3645.28773,0.18890
3643.35900,0.19354
3641.43028,0.19791
3639.50156,0.20168
3637.57283,0.20519
3635.64411,0.20867
3633.71539,0.21229
3631.78666,0.21593
3629.85794,0.21869
3627.92921,0.22022
3626.00049,0.22238
3624.07177,0.22600
3622.14304,0.22984
3620.21432,0.23255
3618.28560,0.23413
3616.35687,0.23579
3614.42815,0.23793
3612.49942,0.24021
3610.57070,0.24251
3608.64198,0.24459
3606.71325,0.24654
3604.78453,0.24898
3602.85581,0.25175
3600.92708,0.25401
3598.99836,0.25579
3597.06964,0.25773
3595.14091,0.25989
3593.21219,0.26224
3591.28346,0.26488
3589.35474,0.26710
3587.42602,0.26807
3585.49729,0.26891
3583.56857,0.27089
3581.63985,0.27330
3579.71112,0.27529
3577.78240,0.27705
3575.85368,0.27895
3573.92495,0.28104
3571.99623,0.28342
3570.06750,0.28583
3568.13878,0.28728
3566.21006,0.28761
3564.28133,0.28830
3562.35261,0.29002
3560.42389,0.29208
3558.49516,0.29401
3556.56644,0.29587
3554.63771,0.29766
3552.70899,0.29929
3550.78027,0.30091
3548.85154,0.30263
3546.92282,0.30400
3544.99410,0.30489
3543.06537,0.30595
3541.13665,0.30749
3539.20793,0.30910
3537.27920,0.31045
3535.35048,0.31174
3533.42175,0.31328
3531.49303,0.31486
3529.56431,0.31608
3527.63558,0.31697
3525.70686,0.31792
3523.77814,0.31901
3521.84941,0.32012
3519.92069,0.32127
3517.99197,0.32255
3516.06324,0.32389
3514.13452,0.32522
3512.20579,0.32643
3510.27707,0.32749
3508.34835,0.32860
3506.41962,0.32990
3504.49090,0.33099
3502.56218,0.33157
3500.63345,0.33222
3498.70473,0.33340
3496.77600,0.33473
3494.84728,0.33592
3492.91856,0.33703
3490.98983,0.33808
3489.06111,0.33905
3487.13239,0.34001
3485.20366,0.34109
3483.27494,0.34215
3481.34622,0.34297
3479.41749,0.34361
3477.48877,0.34433
3475.56004,0.34507
3473.63132,0.34579
3471.70260,0.34663
3469.77387,0.34761
3467.84515,0.34850
3465.91643,0.34913
3463.98770,0.34970
3462.05898,0.35031
3460.13026,0.35100
3458.20153,0.35179
3456.27281,0.35246
3454.34408,0.35299
3452.41536,0.35372
3450.48664,0.35468
3448.55791,0.35537
3446.62919,0.35559
3444.70047,0.35574
3442.77174,0.35608
3440.84302,0.35649
3438.91429,0.35685
3436.98557,0.35727
3435.05685,0.35781
3433.12812,0.35834
3431.19940,0.35882
3429.27068,0.35919
3427.34195,0.35938
3425.41323,0.35960
3423.48451,0.36005
3421.55578,0.36037
3419.62706,0.36037
3417.69833,0.36044
3415.76961,0.36077
3413.84089,0.36110
3411.91216,0.36120
3409.98344,0.36123
3408.05472,0.36138
3406.12599,0.36163
3404.19727,0.36193
3402.26855,0.36215
3400.33982,0.36217
3398.41110,0.36196
3396.48237,0.36172
3394.55365,0.36157
3392.62493,0.36138
3390.69620,0.36118
3388.76748,0.36112
3386.83876,0.36117
3384.91003,0.36128
3382.98131,0.36133
3381.05259,0.36119
3379.12386,0.36088
3377.19514,0.36059
3375.26641,0.36039
3373.33769,0.36020
3371.40897,0.35995
3369.48024,0.35967
3367.55152,0.35936
3365.62280,0.35904
3363.69407,0.35868
3361.76535,0.35826
3359.83662,0.35773
3357.90790,0.35708
3355.97918,0.35651
3354.05045,0.35633
3352.12173,0.35627
3350.19301,0.35584
3348.26428,0.35515
3346.33556,0.35465
3344.40684,0.35446
3342.47811,0.35426
3340.54939,0.35380
3338.62066,0.35310
3336.69194,0.35234
3334.76322,0.35171
3332.83449,0.35124
3330.90577,0.35079
3328.97705,0.35032
3327.04832,0.34995
3325.11960,0.34973
3323.19088,0.34933
3321.26215,0.34875
3319.33343,0.34829
3317.40470,0.34787
3315.47598,0.34732
3313.54726,0.34682
3311.61853,0.34650
3309.68981,0.34615
3307.76109,0.34569
3305.83236,0.34524
3303.90364,0.34477
3301.97491,0.34426
3300.04619,0.34375
3298.11747,0.34319
3296.18874,0.34272
3294.26002,0.34245
3292.33130,0.34222
3290.40257,0.34184
3288.47385,0.34124
3286.54513,0.34055
3284.61640,0.34005
3282.68768,0.33971
3280.75895,0.33924
3278.83023,0.33864
3276.90151,0.33805
3274.97278,0.33738
3273.04406,0.33657
3271.11534,0.33597
3269.18661,0.33565
3267.25789,0.33515
3265.32917,0.33430
3263.40044,0.33342
3261.47172,0.33279
3259.54299,0.33233
3257.61427,0.33179
3255.68555,0.33101
3253.75682,0.33001
3251.82810,0.32906
3249.89938,0.32840
3247.97065,0.32801
3246.04193,0.32757
3244.11320,0.32686
3242.18448,0.32607
3240.25576,0.32540
3238.32703,0.32474
3236.39831,0.32400
3234.46959,0.32312
3232.54086,0.32212
3230.61214,0.32119
3228.68342,0.32039
3226.75469,0.31962
3224.82597,0.31891
3222.89724,0.31827
3220.96852,0.31742
3219.03980,0.31625
3217.11107,0.31520
3215.18235,0.31445
3213.25363,0.31368
3211.32490,0.31274
3209.39618,0.31164
3207.46746,0.31041
3205.53873,0.30928
3203.61001,0.30835
3201.68128,0.30750
3199.75256,0.30658
3197.82384,0.30553
3195.89511,0.30444
3193.96639,0.30340
3192.03767,0.30238
3190.10894,0.30136
3188.18022,0.30026
3186.25149,0.29900
3184.32277,0.29767
3182.39405,0.29644
3180.46532,0.29536
3178.53660,0.29426
3176.60788,0.29296
3174.67915,0.29164
3172.75043,0.29054
3170.82171,0.28951
3168.89298,0.28843
3166.96426,0.28738
3165.03553,0.28633
3163.10681,0.28520
3161.17809,0.28393
3159.24936,0.28255
3157.32064,0.28125
3155.39192,0.28009
3153.46319,0.27898
3151.53447,0.27795
3149.60575,0.27694
3147.67702,0.27575
3145.74830,0.27444
3143.81957,0.27323
3141.89085,0.27219
3139.96213,0.27114
3138.03340,0.26994
3136.10468,0.26867
3134.17596,0.26745
3132.24723,0.26629
3130.31851,0.26515
3128.38978,0.26402
3126.46106,0.26298
3124.53234,0.26195
3122.60361,0.26082
3120.67489,0.25964
3118.74617,0.25849
3116.81744,0.25731
3114.88872,0.25613
3112.96000,0.25497
3111.03127,0.25387
3109.10255,0.25277
3107.17382,0.25161
3105.24510,0.25043
3103.31638,0.24919
3101.38765,0.24783
3099.45893,0.24651
3097.53021,0.24533
3095.60148,0.24417
3093.67276,0.24294
3091.74404,0.24161
3089.81531,0.24009
3087.88659,0.23856
3085.95786,0.23733
3084.02914,0.23636
3082.10042,0.23532
3080.17169,0.23407
3078.24297,0.23272
3076.31425,0.23137
3074.38552,0.23000
3072.45680,0.22869
3070.52807,0.22754
3068.59935,0.22635
3066.67063,0.22490
3064.74190,0.22332
3062.81318,0.22188
3060.88446,0.22055
3058.95573,0.21926
3057.02701,0.21808
3055.09829,0.21694
3053.16956,0.21574
3051.24084,0.21449
3049.31211,0.21320
3047.38339,0.21183
3045.45467,0.21050
3043.52594,0.20931
3041.59722,0.20822
3039.66850,0.20717
3037.73977,0.20602
3035.81105,0.20476
3033.88233,0.20348
3031.95360,0.20219
3030.02488,0.20093
3028.09615,0.19974
3026.16743,0.19858
3024.23871,0.19741
3022.30998,0.19632
3020.38126,0.19538
3018.45254,0.19454
3016.52381,0.19357
3014.59509,0.19236
3012.66636,0.19116
3010.73764,0.19024
3008.80892,0.18948
3006.88019,0.18865
3004.95147,0.18777
3003.02275,0.18692
3001.09402,0.18616
2999.16530,0.18548
2997.23658,0.18487
2995.30785,0.18438
2993.37913,0.18391
2991.45040,0.18334
2989.52168,0.18269
2987.59296,0.18215
2985.66423,0.18183
2983.73551,0.18157
2981.80679,0.18133
2979.87806,0.18122
2977.94934,0.18129
2976.02062,0.18145
2974.09189,0.18157
2972.16317,0.18166
2970.23444,0.18183
2968.30572,0.18215
2966.37700,0.18254
2964.44827,0.18290
2962.51955,0.18309
2960.59083,0.18305
2958.66210,0.18273
2956.73338,0.18222
2954.80466,0.18174
2952.87593,0.18149
2950.94721,0.18132
2949.01848,0.18119
2947.08976,0.18135
2945.16104,0.18192
2943.23231,0.18266
2941.30359,0.18352
2939.37487,0.18467
2937.44614,0.18606
2935.51742,0.18746
2933.58869,0.18879
2931.65997,0.19011
2929.73125,0.19119
2927.80252,0.19167
2925.87380,0.19145
2923.94508,0.19053
2922.01635,0.18882
2920.08763,0.18636
2918.15891,0.18323
2916.23018,0.17951
2914.30146,0.17557
2912.37273,0.17191
2910.44401,0.16865
2908.51529,0.16565
2906.58656,0.16293
2904.65784,0.16058
2902.72912,0.15852
2900.80039,0.15664
2898.87167,0.15487
2896.94295,0.15316
2895.01422,0.15146
2893.08550,0.14971
2891.15677,0.14800
2889.22805,0.14642
2887.29933,0.14487
2885.37060,0.14341
2883.44188,0.14212
2881.51316,0.14102
2879.58443,0.14020
2877.65571,0.13963
2875.72698,0.13899
2873.79826,0.13816
2871.86954,0.13724
2869.94081,0.13631
2868.01209,0.13557
2866.08337,0.13522
2864.15464,0.13524
2862.22592,0.13563
2860.29720,0.13641
2858.36847,0.13740
2856.43975,0.13832
2854.51102,0.13871
2852.58230,0.13803
2850.65358,0.13585
2848.72485,0.13217
2846.79613,0.12759
2844.86741,0.12301
2842.93868,0.11909
2841.00996,0.11583
2839.08124,0.11309
2837.15251,0.11080
2835.22379,0.10885
2833.29506,0.10708
2831.36634,0.10544
2829.43762,0.10394
2827.50889,0.10256
2825.58017,0.10126
2823.65145,0.10005
2821.72272,0.09901
2819.79400,0.09808
2817.86527,0.09707
2815.93655,0.09593
2814.00783,0.09481
2812.07910,0.09382
2810.15038,0.09289
2808.22166,0.09197
2806.29293,0.09106
2804.36421,0.09014
2802.43549,0.08923
2800.50676,0.08841
2798.57804,0.08759
2796.64931,0.08668
2794.72059,0.08578
2792.79187,0.08495
2790.86314,0.08417
2788.93442,0.08336
2787.00570,0.08241
2785.07697,0.08145
2783.14825,0.08064
2781.21953,0.07992
2779.29080,0.07919
2777.36208,0.07847
2775.43335,0.07771
2773.50463,0.07685
2771.57591,0.07596
2769.64718,0.07521
2767.71846,0.07458
2765.78974,0.07392
2763.86101,0.07325
2761.93229,0.07261
2760.00356,0.07195
2758.07484,0.07124
2756.14612,0.07052
2754.21739,0.06981
2752.28867,0.06910
2750.35995,0.06845
2748.43122,0.06791
2746.50250,0.06733
2744.57378,0.06660
2742.64505,0.06582
2740.71633,0.06510
2738.78760,0.06442
2736.85888,0.06385
2734.93016,0.06336
2733.00143,0.06282
2731.07271,0.06213
2729.14399,0.06138
2727.21526,0.06066
2725.28654,0.06000
2723.35782,0.05947
2721.42909,0.05903
2719.50037,0.05845
2717.57164,0.05775
2715.64292,0.05706
2713.71420,0.05638
2711.78547,0.05571
2709.85675,0.05510
2707.92803,0.05450
2705.99930,0.05392
2704.07058,0.05339
2702.14185,0.05282
2700.21313,0.05224
2698.28441,0.05174
2696.35568,0.05122
2694.42696,0.05065
2692.49824,0.05013
2690.56951,0.04965
2688.64079,0.04909
2686.71207,0.04846
2684.78334,0.04783
2682.85462,0.04732
2680.92589,0.04691
2678.99717,0.04643
2677.06845,0.04586
2675.13972,0.04532
2673.21100,0.04485
2671.28228,0.04446
2669.35355,0.04406
2667.42483,0.04350
2665.49611,0.04281
2663.56738,0.04218
2661.63866,0.04165
2659.70993,0.04117
2657.78121,0.04072
2655.85249,0.04035
2653.92376,0.04001
2651.99504,0.03959
2650.06632,0.03914
2648.13759,0.03862
2646.20887,0.03803
2644.28014,0.03753
2642.35142,0.03715
2640.42270,0.03671
2638.49397,0.03620
2636.56525,0.03572
2634.63653,0.03528
2632.70780,0.03484
2630.77908,0.03444
2628.85036,0.03413
2626.92163,0.03382
2624.99291,0.03335
2623.06418,0.03277
2621.13546,0.03231
2619.20674,0.03195
2617.27801,0.03157
2615.34929,0.03116
2613.42057,0.03077
2611.49184,0.03035
2609.56312,0.02990
2607.63440,0.02948
2605.70567,0.02911
2603.77695,0.02879
2601.84822,0.02850
2599.91950,0.02812
2597.99078,0.02763
2596.06205,0.02723
2594.13333,0.02692
2592.20461,0.02657
2590.27588,0.02624
2588.34716,0.02593
2586.41843,0.02555
2584.48971,0.02517
2582.56099,0.02483
2580.63226,0.02452
2578.70354,0.02424
2576.77482,0.02390
2574.84609,0.02348
2572.91737,0.02310
2570.98865,0.02286
2569.05992,0.02271
2567.13120,0.02254
2565.20247,0.02224
2563.27375,0.02191
2561.34503,0.02162
2559.41630,0.02133
2557.48758,0.02104
2555.55886,0.02085
2553.63013,0.02065
2551.70141,0.02033
2549.77269,0.02003
2547.84396,0.01982
2545.91524,0.01959
2543.98651,0.01930
2542.05779,0.01904
2540.12907,0.01884
2538.20034,0.01867
2536.27162,0.01844
2534.34290,0.01813
2532.41417,0.01782
2530.48545,0.01753
2528.55673,0.01727
2526.62800,0.01702
2524.69928,0.01683
2522.77055,0.01673
2520.84183,0.01666
2518.91311,0.01643
2516.98438,0.01605
2515.05566,0.01571
2513.12694,0.01552
2511.19821,0.01539
2509.26949,0.01518
2507.34076,0.01488
2505.41204,0.01462
2503.48332,0.01448
2501.55459,0.01430
2499.62587,0.01404
2497.69715,0.01385
2495.76842,0.01366
2493.83970,0.01336
2491.91098,0.01311
2489.98225,0.01299
2488.05353,0.01286
2486.12480,0.01267
2484.19608,0.01249
2482.26736,0.01236
2480.33863,0.01223
2478.40991,0.01200
2476.48119,0.01169
2474.55246,0.01143
2472.62374,0.01125
2470.69502,0.01104
2468.76629,0.01082
2466.83757,0.01066
2464.90884,0.01056
2462.98012,0.01045
2461.05140,0.01022
2459.12267,0.00992
2457.19395,0.00972
2455.26523,0.00958
2453.33650,0.00938
2451.40778,0.00918
2449.47905,0.00897
2447.55033,0.00872
2445.62161,0.00847
2443.69288,0.00831
2441.76416,0.00819
2439.83544,0.00804
2437.90671,0.00782
2435.97799,0.00762
2434.04927,0.00747
2432.12054,0.00735
2430.19182,0.00722
2428.26309,0.00707
2426.33437,0.00692
2424.40565,0.00675
2422.47692,0.00653
2420.54820,0.00627
2418.61948,0.00602
2416.69075,0.00586
2414.76203,0.00578
2412.83331,0.00569
2410.90458,0.00558
2408.97586,0.00546
2407.04713,0.00538
2405.11841,0.00528
2403.18969,0.00511
2401.26096,0.00490
2399.33224,0.00473
2397.40352,0.00457
2395.47479,0.00442
2393.54607,0.00433
2391.61734,0.00429
2389.68862,0.00421
2387.75990,0.00412
2385.83117,0.00411
2383.90245,0.00421
2381.97373,0.00437
2380.04500,0.00459
2378.11628,0.00486
2376.18756,0.00497
2374.25883,0.00481
2372.33011,0.00456
2370.40138,0.00446
2368.47266,0.00448
2366.54394,0.00453
2364.61521,0.00448
2362.68649,0.00432
2360.75777,0.00396
2358.82904,0.00333
2356.90032,0.00264
2354.97160,0.00215
2353.04287,0.00208
2351.11415,0.00274
2349.18542,0.00375
2347.25670,0.00419
2345.32798,0.00389
2343.39925,0.00341
2341.47053,0.00312
2339.54181,0.00300
2337.61308,0.00291
2335.68436,0.00266
2333.75563,0.00235
2331.82691,0.00215
2329.89819,0.00205
2327.96946,0.00196
2326.04074,0.00187
2324.11202,0.00173
2322.18329,0.00151
2320.25457,0.00133
2318.32585,0.00127
2316.39712,0.00130
2314.46840,0.00134
2312.53967,0.00134
2310.61095,0.00131
2308.68223,0.00124
2306.75350,0.00116
2304.82478,0.00108
2302.89606,0.00099
2300.96733,0.00090
2299.03861,0.00084
2297.10989,0.00080
2295.18116,0.00076
2293.25244,0.00070
2291.32371,0.00063
2289.39499,0.00060
2287.46627,0.00062
2285.53754,0.00067
2283.60882,0.00066
2281.68010,0.00061
2279.75137,0.00056
2277.82265,0.00049
2275.89392,0.00043
2273.96520,0.00047
2272.03648,0.00061
2270.10775,0.00071
2268.17903,0.00065
2266.25031,0.00047
2264.32158,0.00031
2262.39286,0.00026
2260.46414,0.00026
2258.53541,0.00027
2256.60669,0.00025
2254.67796,0.00020
2252.74924,0.00017
2250.82052,0.00016
2248.89179,0.00015
2246.96307,0.00014
2245.03435,0.00012
2243.10562,0.00010
2241.17690,0.00014
2239.24818,0.00018
2237.31945,0.00016
2235.39073,0.00013
2233.46200,0.00017
2231.53328,0.00027
2229.60456,0.00026
2227.67583,0.00012
2225.74711,-0.00003
2223.81839,-0.00008
2221.88966,-0.00006
2219.96094,-0.00002
2218.03221,-0.00000
2216.10349,-0.00000
2214.17477,0.00000
2212.24604,-0.00001
2210.31732,-0.00003
2208.38860,-0.00004
2206.45987,0.00000
2204.53115,0.00001
2202.60243,0.00003
2200.67370,0.00005
2198.74498,0.00003
2196.81625,-0.00000
2194.88753,-0.00001
2192.95881,0.00001
2191.03008,-0.00000
2189.10136,-0.00003
2187.17264,-0.00002
2185.24391,0.00001
2183.31519,0.00005
2181.38647,0.00013
2179.45774,0.00021
2177.52902,0.00024
2175.60029,0.00023
2173.67157,0.00025
2171.74285,0.00027
2169.81412,0.00022
2167.88540,0.00017
2165.95668,0.00021
2164.02795,0.00029
2162.09923,0.00034
2160.17050,0.00039
2158.24178,0.00047
2156.31306,0.00052
2154.38433,0.00050
2152.45561,0.00044
2150.52689,0.00040
2148.59816,0.00043
2146.66944,0.00047
2144.74072,0.00045
2142.81199,0.00046
2140.88327,0.00058
2138.95454,0.00065
2137.02582,0.00062
2135.09710,0.00061
2133.16837,0.00068
2131.23965,0.00072
2129.31093,0.00072
2127.38220,0.00072
2125.45348,0.00074
2123.52476,0.00070
2121.59603,0.00060
2119.66731,0.00052
2117.73858,0.00051
2115.80986,0.00049
2113.88114,0.00042
2111.95241,0.00035
2110.02369,0.00030
2108.09497,0.00021
2106.16624,0.00013
2104.23752,0.00010
2102.30880,0.00006
2100.38007,0.00002
2098.45135,0.00004
2096.52262,0.00003
2094.59390,0.00000
2092.66518,-0.00006
2090.73645,-0.00013
2088.80773,-0.00020
2086.87901,-0.00022
2084.95028,-0.00021
2083.02156,-0.00027
2081.09283,-0.00042
2079.16411,-0.00053
2077.23539,-0.00051
2075.30666,-0.00042
2073.37794,-0.00036
2071.44922,-0.00033
2069.52049,-0.00029
2067.59177,-0.00028
2065.66305,-0.00031
2063.73432,-0.00035
2061.80560,-0.00033
2059.87687,-0.00028
2057.94815,-0.00021
2056.01943,-0.00013
2054.09070,-0.00005
2052.16198,0.00003
2050.23326,0.00012
2048.30453,0.00027
2046.37581,0.00044
2044.44709,0.00061
2042.51836,0.00077
2040.58964,0.00095
2038.66091,0.00117
2036.73219,0.00139
2034.80347,0.00154
2032.87474,0.00172
2030.94602,0.00196
2029.01730,0.00223
2027.08857,0.00242
2025.15985,0.00256
2023.23112,0.00271
2021.30240,0.00292
2019.37368,0.00314
2017.44495,0.00322
2015.51623,0.00319
2013.58751,0.00320
2011.65878,0.00330
2009.73006,0.00343
2007.80134,0.00357
2005.87261,0.00370
2003.94389,0.00382
2002.01516,0.00392
2000.08644,0.00397
1998.15772,0.00395
1996.22899,0.00401
1994.30027,0.00414
1992.37155,0.00407
1990.44282,0.00383
1988.51410,0.00368
1986.58538,0.00363
1984.65665,0.00362
1982.72793,0.00359
1980.79920,0.00355
1978.87048,0.00350
1976.94176,0.00334
1975.01303,0.00314
1973.08431,0.00302
1971.15559,0.00303
1969.22686,0.00294
1967.29814,0.00262
1965.36941,0.00229
1963.44069,0.00216
1961.51197,0.00209
1959.58324,0.00193
1957.65452,0.00178
1955.72580,0.00163
1953.79707,0.00144
1951.86835,0.00124
1949.93963,0.00109
1948.01090,0.00102
1946.08218,0.00100
1944.15345,0.00080
1942.22473,0.00033
1940.29601,0.00000
1938.36728,0.00004
1936.43856,0.00016
1934.50984,0.00018
1932.58111,0.00012
1930.65239,0.00003
1928.72367,0.00000
1926.79494,0.00016
1924.86622,0.00037
1922.93749,0.00043
1921.00877,0.00055
1919.08005,0.00077
1917.15132,0.00087
1915.22260,0.00104
1913.29388,0.00148
1911.36515,0.00196
1909.43643,0.00232
1907.50770,0.00272
1905.57898,0.00323
1903.65026,0.00381
1901.72153,0.00445
1899.79281,0.00512
1897.86409,0.00569
1895.93536,0.00606
1894.00664,0.00647
1892.07792,0.00708
1890.14919,0.00757
1888.22047,0.00783
1886.29174,0.00814
1884.36302,0.00855
1882.43430,0.00894
1880.50557,0.00923
1878.57685,0.00938
1876.64813,0.00946
1874.71940,0.00963
1872.79068,0.00995
1870.86196,0.01000
1868.93323,0.00935
1867.00451,0.00841
1865.07578,0.00795
1863.14706,0.00783
1861.21834,0.00758
1859.28961,0.00713
1857.36089,0.00662
1855.43217,0.00614
1853.50344,0.00566
1851.57472,0.00522
1849.64599,0.00489
1847.71727,0.00457
1845.78855,0.00384
1843.85982,0.00254
1841.93110,0.00158
1840.00238,0.00144
1838.07365,0.00150
1836.14493,0.00136
1834.21621,0.00130
1832.28748,0.00129
1830.35876,0.00087
1828.43003,0.00025
1826.50131,0.00000
1824.57259,-0.00013
1822.64386,-0.00024
1820.71514,-0.00018
1818.78642,-0.00009
1816.85769,-0.00008
1814.92897,0.00000
1813.00025,0.00004
1811.07152,-0.00002
1809.14280,-0.00018
1807.21407,-0.00018
1805.28535,0.00011
1803.35663,0.00045
1801.42790,0.00057
1799.49918,0.00061
1797.57046,0.00102
1795.64173,0.00180
1793.71301,0.00233
1791.78428,0.00229
1789.85556,0.00246
1787.92684,0.00339
1785.99811,0.00458
1784.06939,0.00558
1782.14067,0.00646
1780.21194,0.00732
1778.28322,0.00833
1776.35450,0.00964
1774.42577,0.01083
1772.49705,0.01134
1770.56832,0.01157
1768.63960,0.01232
1766.71088,0.01357
1764.78215,0.01496
1762.85343,0.01614
1760.92471,0.01706
1758.99598,0.01806
1757.06726,0.01924
1755.13854,0.02062
1753.20981,0.02219
1751.28109,0.02361
1749.35236,0.02480
1747.42364,0.02624
1745.49492,0.02815
1743.56619,0.03030
1741.63747,0.03241
1739.70875,0.03453
1737.78002,0.03691
1735.85130,0.03934
1733.92257,0.04124
1731.99385,0.04292
1730.06513,0.04512
1728.13640,0.04768
1726.20768,0.05020
1724.27896,0.05265
1722.35023,0.05512
1720.42151,0.05761
1718.49279,0.05972
1716.56406,0.06126
1714.63534,0.06307
1712.70661,0.06560
1710.77789,0.06851
1708.84917,0.07146
1706.92044,0.07437
1704.99172,0.07732
1703.06300,0.08050
1701.13427,0.08391
1699.20555,0.08729
1697.27683,0.09073
1695.34810,0.09460
1693.41938,0.09882
1691.49065,0.10317
1689.56193,0.10767
1687.63321,0.11222
1685.70448,0.11672
1683.77576,0.12097
1681.84704,0.12496
1679.91831,0.12916
1677.98959,0.13359
1676.06087,0.13800
1674.13214,0.14219
1672.20342,0.14611
1670.27469,0.14988
1668.34597,0.15361
1666.41725,0.15729
1664.48852,0.16088
1662.55980,0.16416
1660.63108,0.16708
1658.70235,0.17005
1656.77363,0.17316
1654.84490,0.17569
1652.91618,0.17682
1650.98746,0.17767
1649.05873,0.17917
1647.13001,0.18040
1645.20129,0.18117
1643.27256,0.18237
1641.34384,0.18402
1639.41512,0.18554
1637.48639,0.18611
1635.55767,0.18527
1633.62894,0.18430
1631.70022,0.18425
1629.77150,0.18415
1627.84277,0.18315
1625.91405,0.18144
1623.98533,0.17911
1622.05660,0.17651
1620.12788,0.17447
1618.19916,0.17201
1616.27043,0.16798
1614.34171,0.16399
1612.41298,0.16112
1610.48426,0.15826
1608.55554,0.15480
1606.62681,0.15125
1604.69809,0.14793
1602.76937,0.14470
1600.84064,0.14160
1598.91192,0.13874
1596.98319,0.13598
1595.05447,0.13314
1593.12575,0.13033
1591.19702,0.12767
1589.26830,0.12513
1587.33958,0.12273
1585.41085,0.12044
1583.48213,0.11827
1581.55341,0.11640
1579.62468,0.11481
1577.69596,0.11264
1575.76723,0.10960
1573.83851,0.10752
1571.90979,0.10669
1569.98106,0.10540
1568.05234,0.10346
1566.12362,0.10217
1564.19489,0.10189
1562.26617,0.10222
1560.33745,0.10140
1558.40872,0.09797
1556.48000,0.09501
1554.55127,0.09426
1552.62255,0.09406
1550.69383,0.09339
1548.76510,0.09246
1546.83638,0.09175
1544.90766,0.09102
1542.97893,0.08931
1541.05021,0.08569
1539.12148,0.08140
1537.19276,0.07943
1535.26404,0.07877
1533.33531,0.07713
1531.40659,0.07487
1529.47787,0.07311
1527.54914,0.07120
1525.62042,0.06879
1523.69170,0.06629
1521.76297,0.06340
1519.83425,0.06046
1517.90552,0.05803
1515.97680,0.05565
1514.04808,0.05349
1512.11935,0.05193
1510.19063,0.05039
1508.26191,0.04700
1506.33318,0.04128
1504.40446,0.03721
1502.47574,0.03587
1500.54701,0.03484
1498.61829,0.03261
1496.68956,0.02969
1494.76084,0.02773
1492.83212,0.02713
1490.90339,0.02648
1488.97467,0.02504
1487.04595,0.02392
1485.11722,0.02396
1483.18850,0.02473
1481.25977,0.02573
1479.33105,0.02695
1477.40233,0.02846
1475.47360,0.03025
1473.54488,0.03251
1471.61616,0.03551
1469.68743,0.03884
1467.75871,0.04174
1465.82999,0.04369
1463.90126,0.04490
1461.97254,0.04621
1460.04381,0.04759
1458.11509,0.04803
1456.18637,0.04760
1454.25764,0.04786
1452.32892,0.04883
1450.40020,0.04965
1448.47147,0.04999
1446.54275,0.05018
1444.61403,0.05060
1442.68530,0.05127
1440.75658,0.05207
1438.82785,0.05267
1436.89913,0.05277
1434.97041,0.05288
1433.04168,0.05366
1431.11296,0.05468
1429.18424,0.05548
1427.25551,0.05623
1425.32679,0.05711
1423.39806,0.05805
1421.46934,0.05893
1419.54062,0.05948
1417.61189,0.05985
1415.68317,0.06065
1413.75445,0.06188
1411.82572,0.06314
1409.89700,0.06432
1407.96828,0.06545
1406.03955,0.06640
1404.11083,0.06706
1402.18210,0.06741
1400.25338,0.06716
1398.32466,0.06594
1396.39593,0.06378
1394.46721,0.06117
1392.53849,0.05904
1390.60976,0.05768
1388.68104,0.05636
1386.75232,0.05468
1384.82359,0.05324
1382.89487,0.05225
1380.96614,0.05131
1379.03742,0.05020
1377.10870,0.04884
1375.17997,0.04707
1373.25125,0.04514
1371.32253,0.04351
1369.39380,0.04211
1367.46508,0.04078
1365.53635,0.03956
1363.60763,0.03818
1361.67891,0.03654
1359.75018,0.03514
1357.82146,0.03419
1355.89274,0.03342
1353.96401,0.03266
1352.03529,0.03189
1350.10657,0.03110
1348.17784,0.03036
1346.24912,0.02973
1344.32039,0.02926
1342.39167,0.02891
1340.46295,0.02847
1338.53422,0.02788
1336.60550,0.02742
1334.67678,0.02719
1332.74805,0.02706
1330.81933,0.02695
1328.89061,0.02687
1326.96188,0.02685
1325.03316,0.02688
1323.10443,0.02696
1321.17571,0.02708
1319.24699,0.02721
1317.31826,0.02736
1315.38954,0.02764
1313.46082,0.02803
1311.53209,0.02848
1309.60337,0.02898
1307.67464,0.02950
1305.74592,0.03011
1303.81720,0.03093
1301.88847,0.03196
1299.95975,0.03309
1298.03103,0.03432
1296.10230,0.03571
1294.17358,0.03728
1292.24486,0.03912
1290.31613,0.04129
1288.38741,0.04370
1286.45868,0.04633
1284.52996,0.04932
1282.60124,0.05269
1280.67251,0.05636
1278.74379,0.06043
1276.81507,0.06497
1274.88634,0.06987
1272.95762,0.07522
1271.02890,0.08126
1269.10017,0.08800
1267.17145,0.09540
1265.24272,0.10360
1263.31400,0.11293
1261.38528,0.12367
1259.45655,0.13576
1257.52783,0.14870
1255.59911,0.16214
1253.67038,0.17605
1251.74166,0.19034
1249.81294,0.20462
1247.88421,0.21829
1245.95549,0.23087
1244.02676,0.24244
1242.09804,0.25329
1240.16932,0.26337
1238.24059,0.27248
1236.31187,0.28057
1234.38315,0.28772
1232.45442,0.29398
1230.52570,0.29962
1228.59697,0.30483
1226.66825,0.30969
1224.73953,0.31443
1222.81080,0.31917
1220.88208,0.32361
1218.95336,0.32750
1217.02463,0.33102
1215.09591,0.33435
1213.16719,0.33757
1211.23846,0.34075
1209.30974,0.34389
1207.38101,0.34708
1205.45229,0.35037
1203.52357,0.35355
1201.59484,0.35658
1199.66612,0.35958
1197.73740,0.36250
1195.80867,0.36538
1193.87995,0.36816
1191.95123,0.37080
1190.02250,0.37351
1188.09378,0.37645
1186.16505,0.37945
1184.23633,0.38214
1182.30761,0.38463
1180.37888,0.38741
1178.45016,0.39038
1176.52144,0.39312
1174.59271,0.39573
1172.66399,0.39841
1170.73526,0.40109
1168.80654,0.40372
1166.87782,0.40650
1164.94909,0.40940
1163.02037,0.41204
1161.09165,0.41440
1159.16292,0.41667
1157.23420,0.41897
1155.30548,0.42138
1153.37675,0.42384
1151.44803,0.42617
1149.51930,0.42837
1147.59058,0.43065
1145.66186,0.43305
1143.73313,0.43535
1141.80441,0.43757
1139.87569,0.44027
1137.94696,0.44334
1136.01824,0.44636
1134.08952,0.44977
1132.16079,0.45367
1130.23207,0.45766
1128.30334,0.46196
1126.37462,0.46686
1124.44590,0.47215
1122.51717,0.47769
1120.58845,0.48334
1118.65973,0.48914
1116.73100,0.49578
1114.80228,0.50345
1112.87355,0.51178
1110.94483,0.52019
1109.01611,0.52843
1107.08738,0.53687
1105.15866,0.54502
1103.22994,0.55165
1101.30121,0.55673
1099.37249,0.56145
1097.44377,0.56567
1095.51504,0.56817
1093.58632,0.56904
1091.65759,0.56898
1089.72887,0.56822
1087.80015,0.56679
1085.87142,0.56501
1083.94270,0.56328
1082.01398,0.56117
1080.08525,0.55802
1078.15653,0.55368
1076.22781,0.54851
1074.29908,0.54352
1072.37036,0.53917
1070.44163,0.53438
1068.51291,0.52831
1066.58419,0.52166
1064.65546,0.51497
1062.72674,0.50799
1060.79802,0.50067
1058.86929,0.49332
1056.94057,0.48565
1055.01184,0.47747
1053.08312,0.46934
1051.15440,0.46115
1049.22567,0.45250
1047.29695,0.44353
1045.36823,0.43462
1043.43950,0.42569
1041.51078,0.41662
1039.58206,0.40756
1037.65333,0.39856
1035.72461,0.38974
1033.79588,0.38096
1031.86716,0.37196
1029.93844,0.36326
1028.00971,0.35519
1026.08099,0.34721
1024.15227,0.33905
1022.22354,0.33109
1020.29482,0.32366
1018.36610,0.31703
1016.43737,0.31115
1014.50865,0.30551
1012.57992,0.29990
1010.65120,0.29444
1008.72248,0.28912
1006.79375,0.28400
1004.86503,0.27902
1002.93631,0.27398
1001.00758,0.26910
999.07886,0.26467
997.15013,0.26056
995.22141,0.25659
993.29269,0.25266
991.36396,0.24870
989.43524,0.24483
987.50652,0.24120
985.57779,0.23779
983.64907,0.23470
981.72035,0.23209
979.79162,0.23000
977.86290,0.22835
975.93417,0.22696
974.00545,0.22572
972.07673,0.22469
970.14800,0.22384
968.21928,0.22296
966.29056,0.22202
964.36183,0.22112
962.43311,0.22030
960.50439,0.21957
958.57566,0.21871
956.64694,0.21771
954.71821,0.21674
952.78949,0.21551
950.86077,0.21384
948.93204,0.21201
947.00332,0.21010
945.07460,0.20792
943.14587,0.20539
941.21715,0.20253
939.28842,0.19935
937.35970,0.19604
935.43098,0.19298
933.50225,0.19010
931.57353,0.18686
929.64481,0.18300
927.71608,0.17878
925.78736,0.17464
923.85864,0.17079
921.92991,0.16695
920.00119,0.16273
918.07246,0.15817
916.14374,0.15365
914.21502,0.14944
912.28629,0.14538
910.35757,0.14120
908.42885,0.13665
906.50012,0.13181
904.57140,0.12701
902.64268,0.12238
900.71395,0.11794
898.78523,0.11359
896.85650,0.10926
894.92778,0.10517
892.99906,0.10142
891.07033,0.09762
889.14161,0.09352
887.21289,0.08942
885.28416,0.08568
883.35544,0.08234
881.42671,0.07941
879.49799,0.07683
877.56927,0.07425
875.64054,0.07154
873.71182,0.06899
871.78310,0.06668
869.85437,0.06437
867.92565,0.06205
865.99693,0.05971
864.06820,0.05738
862.13948,0.05529
860.21075,0.05357
858.28203,0.05197
856.35331,0.05032
854.42458,0.04906
852.49586,0.04833
850.56714,0.04773
848.63841,0.04756
846.70969,0.04831
844.78097,0.04979
842.85224,0.05170
840.92352,0.05394
838.99479,0.05636
837.06607,0.05924
835.13735,0.06296
833.20862,0.06712
831.27990,0.07106
829.35118,0.07467
827.42245,0.07823
825.49373,0.08223
823.56501,0.08672
821.63628,0.09105
819.70756,0.09490
817.77883,0.09854
815.85011,0.10205
813.92139,0.10542
811.99266,0.10902
810.06394,0.11291
808.13522,0.11660
806.20649,0.11969
804.27777,0.12220
802.34904,0.12422
800.42032,0.12574
798.49160,0.12671
796.56287,0.12692
794.63415,0.12632
792.70543,0.12505
790.77670,0.12307
788.84798,0.12050
786.91926,0.11787
784.99053,0.11516
783.06181,0.11189
781.13308,0.10804
779.20436,0.10366
777.27564,0.09862
775.34691,0.09334
773.41819,0.08846
771.48947,0.08432
769.56074,0.08129
767.63202,0.07940
765.70330,0.07825
763.77457,0.07745
761.84585,0.07676
759.91712,0.07618
757.98840,0.07566
756.05968,0.07528
754.13095,0.07527
752.20223,0.07529
750.27351,0.07498
748.34478,0.07469
746.41606,0.07490
744.48733,0.07532
742.55861,0.07525
740.62989,0.07468
738.70116,0.07418
736.77244,0.07399
734.84372,0.07417
732.91499,0.07478
730.98627,0.07553
729.05755,0.07606
727.12882,0.07663
725.20010,0.07726
723.27137,0.07737
721.34265,0.07702
719.41393,0.07673
717.48520,0.07683
715.55648,0.07735
713.62776,0.07805
711.69903,0.07886
709.77031,0.07991
707.84159,0.08122
705.91286,0.08263
703.98414,0.08397
702.05541,0.08514
700.12669,0.08619
698.19797,0.08739
696.26924,0.08875
694.34052,0.08975
692.41180,0.09018
690.48307,0.09044
688.55435,0.09061
686.62562,0.09069
684.69690,0.09107
682.76818,0.09178
680.83945,0.09245
678.91073,0.09298
676.98201,0.09353
675.05328,0.09412
673.12456,0.09481
671.19584,0.09500
669.26711,0.09447
667.33839,0.09491
665.40966,0.09653
663.48094,0.09748
661.55222,0.09800
659.62349,0.09901
657.69477,0.09989
655.76605,0.10042
653.83732,0.10145
651.90860,0.10314
649.97988,0.10498
648.05115,0.10713
646.12243,0.10980
644.19370,0.11241
642.26498,0.11449
640.33626,0.11632
638.40753,0.11815
636.47881,0.11964
634.55009,0.12055
632.62136,0.12138
630.69264,0.12273
628.76391,0.12459
626.83519,0.12642
624.90647,0.12776
622.97774,0.12905
621.04902,0.13073
619.12030,0.13251
617.19157,0.13405
615.26285,0.13573
613.33413,0.13735
611.40540,0.13801
609.47668,0.13829
607.54795,0.13953
605.61923,0.14147
603.69051,0.14304
601.76178,0.14449
599.83306,0.14682
597.90434,0.14974
595.97561,0.15202
594.04689,0.15314
592.11817,0.15433
590.18944,0.15658
588.26072,0.15884
586.33199,0.16025
584.40327,0.16133
582.47455,0.16258
580.54582,0.16396
578.61710,0.16527
576.68838,0.16621
574.75965,0.16650
572.83093,0.16614
570.90220,0.16579
568.97348,0.16620
567.04476,0.16698
565.11603,0.16753
563.18731,0.16798
561.25859,0.16849
559.32986,0.16943
557.40114,0.17103
555.47242,0.17238
553.54369,0.17262
551.61497,0.17214
549.68624,0.17185
547.75752,0.17251
545.82880,0.17414
543.90007,0.17559
541.97135,0.17588
540.04263,0.17526
538.11390,0.17454
536.18518,0.17430
534.25646,0.17458
532.32773,0.17417
530.39901,0.17192
528.47028,0.16912
526.54156,0.16829
524.61284,0.17020
522.68411,0.17307
520.75539,0.17484
518.82667,0.17499
516.89794,0.17466
514.96922,0.17581
513.04049,0.17869
511.11177,0.18159
509.18305,0.18403
507.25432,0.18780
505.32560,0.19431
503.39688,0.20297
501.46815,0.21221
499.53943,0.22121
497.61071,0.23041
495.68198,0.23956
493.75326,0.24758
491.82453,0.25509
489.89581,0.26424
487.96709,0.27471
486.03836,0.28366
484.10964,0.29072
482.18092,0.29780
480.25219,0.30605
478.32347,0.31593
476.39475,0.32566
474.46602,0.33327
472.53730,0.33949
470.60857,0.34399
468.67985,0.34495
466.75113,0.34407
464.82240,0.34386
462.89368,0.34217
460.96496,0.33616
459.03623,0.32777
457.10751,0.32033
455.17878,0.31475
453.25006,0.31047
451.32134,0.30522
449.39261,0.29529
447.46389,0.28155
445.53517,0.27072
443.60644,0.26649
441.67772,0.26496
439.74900,0.26136
437.82027,0.25556
435.89155,0.24812
433.96282,0.23786
432.03410,0.22493
430.10538,0.21215
428.17665,0.20220
426.24793,0.19367
424.31921,0.18473
422.39048,0.17828
420.46176,0.17630
418.53304,0.17517
416.60431,0.17166
414.67559,0.16580
412.74686,0.15775
410.81814,0.14988
408.88942,0.14364
406.96069,0.13661
405.03197,0.13036
403.10325,0.12825
401.17452,0.12628
399.24580,0.12251
397.31708,0.12081
395.38835,0.11566
393.45963,0.10362
391.53090,0.09500
389.60218,0.09673
387.67346,0.10332
385.74473,0.10215
383.81601,0.09259
381.88729,0.09293
379.95856,0.11057
378.02984,0.13164
376.10111,0.13446
374.17239,0.10377
372.24367,0.05161
370.31494,0.01079
368.38622,0.00000
