3996.31543,0.00000
3994.38671,0.00007
3992.45799,0.00008
3990.52926,0.00014
3988.60054,0.00035
3986.67182,0.00053
3984.74309,0.00055
3982.81437,0.00054
3980.88564,0.00062
3978.95692,0.00066
3977.02820,0.00055
3975.09947,0.00041
3973.17075,0.00031
3971.24203,0.00028
3969.31330,0.00041
3967.38458,0.00067
3965.45586,0.00078
3963.52713,0.00060
3961.59841,0.00049
3959.66968,0.00058
3957.74096,0.00061
3955.81224,0.00060
3953.88351,0.00067
3951.95479,0.00068
3950.02607,0.00064
3948.09734,0.00084
3946.16862,0.00106
3944.23990,0.00073
3942.31117,0.00035
3940.38245,0.00049
3938.45372,0.00072
3936.52500,0.00081
3934.59628,0.00064
3932.66755,0.00040
3930.73883,0.00062
3928.81011,0.00105
3926.88138,0.00100
3924.95266,0.00073
3923.02393,0.00087
3921.09521,0.00100
3919.16649,0.00082
3917.23776,0.00073
3915.30904,0.00097
3913.38032,0.00104
3911.45159,0.00081
3909.52287,0.00078
3907.59415,0.00079
3905.66542,0.00059
3903.73670,0.00075
3901.80797,0.00110
3899.87925,0.00103
3897.95053,0.00129
3896.02180,0.00171
3894.09308,0.00118
3892.16436,0.00038
3890.23563,0.00088
3888.30691,0.00143
3886.37819,0.00087
3884.44946,0.00090
3882.52074,0.00101
3880.59201,0.00056
3878.66329,0.00098
3876.73457,0.00128
3874.80584,0.00104
3872.87712,0.00123
3870.94840,0.00118
3869.01967,0.00145
3867.09095,0.00178
3865.16222,0.00100
3863.23350,0.00059
3861.30478,0.00120
3859.37605,0.00203
3857.44733,0.00227
3855.51861,0.00116
3853.58988,0.00000
3851.66116,0.00099
3849.73244,0.00204
3847.80371,0.00195
3845.87499,0.00143
3843.94626,0.00129
3842.01754,0.00167
3840.08882,0.00163
3838.16009,0.00124
3836.23137,0.00136
3834.30265,0.00150
3832.37392,0.00133
3830.44520,0.00140
3828.51648,0.00137
3826.58775,0.00145
3824.65903,0.00181
3822.73030,0.00121
3820.80158,0.00095
3818.87286,0.00180
3816.94413,0.00141
3815.01541,0.00118
3813.08669,0.00203
3811.15796,0.00233
3809.22924,0.00176
3807.30052,0.00147
3805.37179,0.00233
3803.44307,0.00216
3801.51434,0.00133
3799.58562,0.00217
3797.65690,0.00266
3795.72817,0.00240
3793.79945,0.00241
3791.87073,0.00233
3789.94200,0.00224
3788.01328,0.00224
3786.08455,0.00221
3784.15583,0.00249
3782.22711,0.00268
3780.29838,0.00230
3778.36966,0.00252
3776.44094,0.00342
3774.51221,0.00401
3772.58349,0.00394
3770.65477,0.00361
3768.72604,0.00390
3766.79732,0.00438
3764.86859,0.00479
3762.93987,0.00525
3761.01115,0.00514
3759.08242,0.00534
3757.15370,0.00658
3755.22498,0.00755
3753.29625,0.00710
3751.36753,0.00653
3749.43881,0.00783
3747.51008,0.00918
3745.58136,0.00858
3743.65263,0.00898
3741.72391,0.01114
3739.79519,0.01226
3737.86646,0.01205
3735.93774,0.01189
3734.00902,0.01280
3732.08029,0.01432
3730.15157,0.01578
3728.22284,0.01654
3726.29412,0.01710
3724.36540,0.01828
3722.43667,0.01964
3720.50795,0.02101
3718.57923,0.02269
3716.65050,0.02468
3714.72178,0.02623
3712.79306,0.02735
3710.86433,0.02971
3708.93561,0.03327
3707.00688,0.03630
3705.07816,0.03831
3703.14944,0.04002
3701.22071,0.04252
3699.29199,0.04563
3697.36327,0.04837
3695.43454,0.05099
3693.50582,0.05335
3691.57710,0.05501
3689.64837,0.05722
3687.71965,0.06130
3685.79092,0.06582
3683.86220,0.06920
3681.93348,0.07206
3680.00475,0.07512
3678.07603,0.07802
3676.14731,0.08135
3674.21858,0.08668
3672.28986,0.09090
3670.36113,0.09309
3668.43241,0.09662
3666.50369,0.10046
3664.57496,0.10307
3662.64624,0.10560
3660.71752,0.10855
3658.78879,0.11113
3656.86007,0.11358
3654.93135,0.11703
3653.00262,0.11985
3651.07390,0.12093
3649.14517,0.12270
3647.21645,0.12613
3645.28773,0.12944
3643.35900,0.13157
3641.43028,0.13318
3639.50156,0.13504
3637.57283,0.13722
3635.64411,0.13957
3633.71539,0.14192
3631.78666,0.14338
3629.85794,0.14360
3627.92921,0.14532
3626.00049,0.14858
3624.07177,0.15074
3622.14304,0.15159
3620.21432,0.15222
3618.28560,0.15375
3616.35687,0.15548
3614.42815,0.15630
3612.49942,0.15725
3610.57070,0.15859
3608.64198,0.15958
3606.71325,0.16069
3604.78453,0.16198
3602.85581,0.16296
3600.92708,0.16403
3598.99836,0.16553
3597.06964,0.16687
3595.14091,0.16789
3593.21219,0.16921
3591.28346,0.17051
3589.35474,0.17096
3587.42602,0.17148
3585.49729,0.17307
3583.56857,0.17456
3581.63985,0.17545
3579.71112,0.17629
3577.78240,0.17719
3575.85368,0.17802
3573.92495,0.17900
3571.99623,0.18012
3570.06750,0.18073
3568.13878,0.18093
3566.21006,0.18205
3564.28133,0.18393
3562.35261,0.18514
3560.42389,0.18568
3558.49516,0.18624
3556.56644,0.18693
3554.63771,0.18754
3552.70899,0.18825
3550.78027,0.18926
3548.85154,0.19003
3546.92282,0.19040
3544.99410,0.19107
3543.06537,0.19225
3541.13665,0.19343
3539.20793,0.19423
3537.27920,0.19486
3535.35048,0.19577
3533.42175,0.19686
3531.49303,0.19769
3529.56431,0.19822
3527.63558,0.19864
3525.70686,0.19907
3523.77814,0.19964
3521.84941,0.20047
3519.92069,0.20138
3517.99197,0.20228
3516.06324,0.20319
3514.13452,0.20384
3512.20579,0.20413
3510.27707,0.20454
3508.34835,0.20560
3506.41962,0.20681
3504.49090,0.20748
3502.56218,0.20796
3500.63345,0.20851
3498.70473,0.20892
3496.77600,0.20936
3494.84728,0.20999
3492.91856,0.21067
3490.98983,0.21126
3489.06111,0.21167
3487.13239,0.21224
3485.20366,0.21305
3483.27494,0.21358
3481.34622,0.21396
3479.41749,0.21455
3477.48877,0.21504
3475.56004,0.21531
3473.63132,0.21565
3471.70260,0.21606
3469.77387,0.21632
3467.84515,0.21655
3465.91643,0.21692
3463.98770,0.21733
3462.05898,0.21778
3460.13026,0.21846
3458.20153,0.21908
3456.27281,0.21937
3454.34408,0.21946
3452.41536,0.21975
3450.48664,0.22023
3448.55791,0.22037
3446.62919,0.22038
3444.70047,0.22054
3442.77174,0.22056
3440.84302,0.22072
3438.91429,0.22108
3436.98557,0.22153
3435.05685,0.22209
3433.12812,0.22252
3431.19940,0.22263
3429.27068,0.22255
3427.34195,0.22254
3425.41323,0.22264
3423.48451,0.22273
3421.55578,0.22283
3419.62706,0.22318
3417.69833,0.22366
3415.76961,0.22383
3413.84089,0.22371
3411.91216,0.22367
3409.98344,0.22388
3408.05472,0.22400
3406.12599,0.22384
3404.19727,0.22377
3402.26855,0.22387
3400.33982,0.22390
3398.41110,0.22385
3396.48237,0.22393
3394.55365,0.22394
3392.62493,0.22376
3390.69620,0.22370
3388.76748,0.22384
3386.83876,0.22394
3384.91003,0.22393
3382.98131,0.22389
3381.05259,0.22370
3379.12386,0.22336
3377.19514,0.22305
3375.26641,0.22288
3373.33769,0.22284
3371.40897,0.22284
3369.48024,0.22276
3367.55152,0.22261
3365.62280,0.22250
3363.69407,0.22243
3361.76535,0.22220
3359.83662,0.22184
3357.90790,0.22163
3355.97918,0.22160
3354.05045,0.22155
3352.12173,0.22133
3350.19301,0.22094
3348.26428,0.22043
3346.33556,0.21995
3344.40684,0.21966
3342.47811,0.21962
3340.54939,0.21967
3338.62066,0.21948
3336.69194,0.21899
3334.76322,0.21848
3332.83449,0.21815
3330.90577,0.21800
3328.97705,0.21793
3327.04832,0.21777
3325.11960,0.21750
3323.19088,0.21729
3321.26215,0.21719
3319.33343,0.21704
3317.40470,0.21668
3315.47598,0.21626
3313.54726,0.21606
3311.61853,0.21599
3309.68981,0.21576
3307.76109,0.21538
3305.83236,0.21497
3303.90364,0.21476
3301.97491,0.21477
3300.04619,0.21472
3298.11747,0.21454
3296.18874,0.21437
3294.26002,0.21406
3292.33130,0.21355
3290.40257,0.21319
3288.47385,0.21304
3286.54513,0.21282
3284.61640,0.21254
3282.68768,0.21240
3280.75895,0.21236
3278.83023,0.21217
3276.90151,0.21180
3274.97278,0.21141
3273.04406,0.21112
3271.11534,0.21089
3269.18661,0.21070
3267.25789,0.21060
3265.32917,0.21048
3263.40044,0.21022
3261.47172,0.20993
3259.54299,0.20959
3257.61427,0.20913
3255.68555,0.20860
3253.75682,0.20812
3251.82810,0.20782
3249.89938,0.20761
3247.97065,0.20720
3246.04193,0.20661
3244.11320,0.20632
3242.18448,0.20637
3240.25576,0.20621
3238.32703,0.20573
3236.39831,0.20531
3234.46959,0.20510
3232.54086,0.20496
3230.61214,0.20479
3228.68342,0.20445
3226.75469,0.20391
3224.82597,0.20324
3222.89724,0.20256
3220.96852,0.20207
3219.03980,0.20184
3217.11107,0.20166
3215.18235,0.20139
3213.25363,0.20110
3211.32490,0.20068
3209.39618,0.19998
3207.46746,0.19925
3205.53873,0.19870
3203.61001,0.19830
3201.68128,0.19781
3199.75256,0.19724
3197.82384,0.19677
3195.89511,0.19628
3193.96639,0.19568
3192.03767,0.19508
3190.10894,0.19449
3188.18022,0.19388
3186.25149,0.19326
3184.32277,0.19264
3182.39405,0.19209
3180.46532,0.19149
3178.53660,0.19081
3176.60788,0.19025
3174.67915,0.18971
3172.75043,0.18900
3170.82171,0.18820
3168.89298,0.18750
3166.96426,0.18695
3165.03553,0.18648
3163.10681,0.18600
3161.17809,0.18539
3159.24936,0.18458
3157.32064,0.18378
3155.39192,0.18309
3153.46319,0.18242
3151.53447,0.18184
3149.60575,0.18130
3147.67702,0.18063
3145.74830,0.17996
3143.81957,0.17939
3141.89085,0.17867
3139.96213,0.17794
3138.03340,0.17758
3136.10468,0.17730
3134.17596,0.17658
3132.24723,0.17564
3130.31851,0.17486
3128.38978,0.17421
3126.46106,0.17353
3124.53234,0.17269
3122.60361,0.17179
3120.67489,0.17101
3118.74617,0.17033
3116.81744,0.16966
3114.88872,0.16899
3112.96000,0.16832
3111.03127,0.16755
3109.10255,0.16661
3107.17382,0.16567
3105.24510,0.16484
3103.31638,0.16403
3101.38765,0.16313
3099.45893,0.16220
3097.53021,0.16122
3095.60148,0.16024
3093.67276,0.15930
3091.74404,0.15835
3089.81531,0.15743
3087.88659,0.15662
3085.95786,0.15580
3084.02914,0.15481
3082.10042,0.15376
3080.17169,0.15281
3078.24297,0.15190
3076.31425,0.15097
3074.38552,0.15012
3072.45680,0.14937
3070.52807,0.14863
3068.59935,0.14782
3066.67063,0.14690
3064.74190,0.14596
3062.81318,0.14512
3060.88446,0.14434
3058.95573,0.14352
3057.02701,0.14261
3055.09829,0.14166
3053.16956,0.14077
3051.24084,0.13997
3049.31211,0.13920
3047.38339,0.13837
3045.45467,0.13759
3043.52594,0.13690
3041.59722,0.13622
3039.66850,0.13549
3037.73977,0.13471
3035.81105,0.13394
3033.88233,0.13310
3031.95360,0.13215
3030.02488,0.13124
3028.09615,0.13054
3026.16743,0.12997
3024.23871,0.12941
3022.30998,0.12872
3020.38126,0.12796
3018.45254,0.12727
3016.52381,0.12661
3014.59509,0.12595
3012.66636,0.12537
3010.73764,0.12488
3008.80892,0.12432
3006.88019,0.12353
3004.95147,0.12270
3003.02275,0.12202
3001.09402,0.12144
2999.16530,0.12088
2997.23658,0.12036
2995.30785,0.11985
2993.37913,0.11939
2991.45040,0.11897
2989.52168,0.11856
2987.59296,0.11816
2985.66423,0.11773
2983.73551,0.11729
2981.80679,0.11692
2979.87806,0.11658
2977.94934,0.11615
2976.02062,0.11576
2974.09189,0.11551
2972.16317,0.11520
2970.23444,0.11478
2968.30572,0.11440
2966.37700,0.11414
2964.44827,0.11396
2962.51955,0.11372
2960.59083,0.11347
2958.66210,0.11330
2956.73338,0.11306
2954.80466,0.11265
2952.87593,0.11223
2950.94721,0.11186
2949.01848,0.11145
2947.08976,0.11111
2945.16104,0.11099
2943.23231,0.11093
2941.30359,0.11076
2939.37487,0.11068
2937.44614,0.11072
2935.51742,0.11064
2933.58869,0.11034
2931.65997,0.11000
2929.73125,0.10967
2927.80252,0.10926
2925.87380,0.10869
2923.94508,0.10785
2922.01635,0.10665
2920.08763,0.10517
2918.15891,0.10366
2916.23018,0.10244
2914.30146,0.10148
2912.37273,0.10058
2910.44401,0.09964
2908.51529,0.09862
2906.58656,0.09757
2904.65784,0.09660
2902.72912,0.09567
2900.80039,0.09476
2898.87167,0.09389
2896.94295,0.09302
2895.01422,0.09212
2893.08550,0.09121
2891.15677,0.09034
2889.22805,0.08951
2887.29933,0.08872
2885.37060,0.08801
2883.44188,0.08737
2881.51316,0.08675
2879.58443,0.08615
2877.65571,0.08568
2875.72698,0.08532
2873.79826,0.08484
2871.86954,0.08414
2869.94081,0.08335
2868.01209,0.08259
2866.08337,0.08198
2864.15464,0.08162
2862.22592,0.08136
2860.29720,0.08108
2858.36847,0.08078
2856.43975,0.08052
2854.51102,0.08018
2852.58230,0.07945
2850.65358,0.07830
2848.72485,0.07690
2846.79613,0.07542
2844.86741,0.07394
2842.93868,0.07255
2841.00996,0.07126
2839.08124,0.07012
2837.15251,0.06909
2835.22379,0.06810
2833.29506,0.06726
2831.36634,0.06654
2829.43762,0.06571
2827.50889,0.06484
2825.58017,0.06417
2823.65145,0.06369
2821.72272,0.06315
2819.79400,0.06250
2817.86527,0.06188
2815.93655,0.06130
2814.00783,0.06070
2812.07910,0.06013
2810.15038,0.05957
2808.22166,0.05896
2806.29293,0.05838
2804.36421,0.05790
2802.43549,0.05738
2800.50676,0.05688
2798.57804,0.05642
2796.64931,0.05585
2794.72059,0.05518
2792.79187,0.05456
2790.86314,0.05404
2788.93442,0.05360
2787.00570,0.05315
2785.07697,0.05264
2783.14825,0.05214
2781.21953,0.05173
2779.29080,0.05140
2777.36208,0.05106
2775.43335,0.05064
2773.50463,0.05009
2771.57591,0.04948
2769.64718,0.04890
2767.71846,0.04835
2765.78974,0.04787
2763.86101,0.04748
2761.93229,0.04707
2760.00356,0.04659
2758.07484,0.04606
2756.14612,0.04553
2754.21739,0.04507
2752.28867,0.04468
2750.35995,0.04428
2748.43122,0.04385
2746.50250,0.04343
2744.57378,0.04296
2742.64505,0.04242
2740.71633,0.04191
2738.78760,0.04149
2736.85888,0.04110
2734.93016,0.04068
2733.00143,0.04023
2731.07271,0.03984
2729.14399,0.03950
2727.21526,0.03916
2725.28654,0.03871
2723.35782,0.03821
2721.42909,0.03775
2719.50037,0.03731
2717.57164,0.03689
2715.64292,0.03650
2713.71420,0.03610
2711.78547,0.03575
2709.85675,0.03545
2707.92803,0.03511
2705.99930,0.03470
2704.07058,0.03427
2702.14185,0.03385
2700.21313,0.03342
2698.28441,0.03301
2696.35568,0.03262
2694.42696,0.03227
2692.49824,0.03190
2690.56951,0.03151
2688.64079,0.03118
2686.71207,0.03090
2684.78334,0.03058
2682.85462,0.03023
2680.92589,0.02989
2678.99717,0.02958
2677.06845,0.02925
2675.13972,0.02889
2673.21100,0.02860
2671.28228,0.02841
2669.35355,0.02813
2667.42483,0.02764
2665.49611,0.02713
2663.56738,0.02675
2661.63866,0.02641
2659.70993,0.02608
2657.78121,0.02579
2655.85249,0.02553
2653.92376,0.02526
2651.99504,0.02495
2650.06632,0.02458
2648.13759,0.02423
2646.20887,0.02394
2644.28014,0.02367
2642.35142,0.02338
2640.42270,0.02310
2638.49397,0.02281
2636.56525,0.02247
2634.63653,0.02215
2632.70780,0.02189
2630.77908,0.02164
2628.85036,0.02132
2626.92163,0.02097
2624.99291,0.02066
2623.06418,0.02045
2621.13546,0.02027
2619.20674,0.02001
2617.27801,0.01973
2615.34929,0.01949
2613.42057,0.01923
2611.49184,0.01893
2609.56312,0.01862
2607.63440,0.01828
2605.70567,0.01796
2603.77695,0.01772
2601.84822,0.01758
2599.91950,0.01743
2597.99078,0.01724
2596.06205,0.01703
2594.13333,0.01677
2592.20461,0.01649
2590.27588,0.01626
2588.34716,0.01610
2586.41843,0.01588
2584.48971,0.01561
2582.56099,0.01531
2580.63226,0.01507
2578.70354,0.01493
2576.77482,0.01480
2574.84609,0.01456
2572.91737,0.01432
2570.98865,0.01412
2569.05992,0.01388
2567.13120,0.01361
2565.20247,0.01343
2563.27375,0.01335
2561.34503,0.01326
2559.41630,0.01312
2557.48758,0.01298
2555.55886,0.01282
2553.63013,0.01263
2551.70141,0.01245
2549.77269,0.01225
2547.84396,0.01201
2545.91524,0.01181
2543.98651,0.01165
2542.05779,0.01148
2540.12907,0.01131
2538.20034,0.01120
2536.27162,0.01112
2534.34290,0.01102
2532.41417,0.01088
2530.48545,0.01069
2528.55673,0.01046
2526.62800,0.01025
2524.69928,0.01018
2522.77055,0.01019
2520.84183,0.01011
2518.91311,0.00991
2516.98438,0.00970
2515.05566,0.00951
2513.12694,0.00934
2511.19821,0.00921
2509.26949,0.00913
2507.34076,0.00909
2505.41204,0.00903
2503.48332,0.00889
2501.55459,0.00874
2499.62587,0.00859
2497.69715,0.00843
2495.76842,0.00829
2493.83970,0.00817
2491.91098,0.00802
2489.98225,0.00789
2488.05353,0.00776
2486.12480,0.00757
2484.19608,0.00732
2482.26736,0.00711
2480.33863,0.00700
2478.40991,0.00693
2476.48119,0.00680
2474.55246,0.00666
2472.62374,0.00658
2470.69502,0.00651
2468.76629,0.00640
2466.83757,0.00628
2464.90884,0.00616
2462.98012,0.00604
2461.05140,0.00592
2459.12267,0.00580
2457.19395,0.00568
2455.26523,0.00563
2453.33650,0.00558
2451.40778,0.00542
2449.47905,0.00520
2447.55033,0.00508
2445.62161,0.00505
2443.69288,0.00499
2441.76416,0.00485
2439.83544,0.00468
2437.90671,0.00451
2435.97799,0.00436
2434.04927,0.00428
2432.12054,0.00428
2430.19182,0.00427
2428.26309,0.00419
2426.33437,0.00405
2424.40565,0.00394
2422.47692,0.00382
2420.54820,0.00365
2418.61948,0.00349
2416.69075,0.00336
2414.76203,0.00322
2412.83331,0.00308
2410.90458,0.00297
2408.97586,0.00291
2407.04713,0.00291
2405.11841,0.00293
2403.18969,0.00291
2401.26096,0.00281
2399.33224,0.00268
2397.40352,0.00255
2395.47479,0.00245
2393.54607,0.00239
2391.61734,0.00231
2389.68862,0.00220
2387.75990,0.00212
2385.83117,0.00211
2383.90245,0.00213
2381.97373,0.00208
2380.04500,0.00200
2378.11628,0.00196
2376.18756,0.00200
2374.25883,0.00203
2372.33011,0.00200
2370.40138,0.00197
2368.47266,0.00205
2366.54394,0.00221
2364.61521,0.00237
2362.68649,0.00246
2360.75777,0.00241
2358.82904,0.00216
2356.90032,0.00188
2354.97160,0.00177
2353.04287,0.00194
2351.11415,0.00238
2349.18542,0.00264
2347.25670,0.00233
2345.32798,0.00180
2343.39925,0.00157
2341.47053,0.00157
2339.54181,0.00161
2337.61308,0.00154
2335.68436,0.00135
2333.75563,0.00117
2331.82691,0.00113
2329.89819,0.00120
2327.96946,0.00131
2326.04074,0.00139
2324.11202,0.00137
2322.18329,0.00131
2320.25457,0.00125
2318.32585,0.00116
2316.39712,0.00101
2314.46840,0.00089
2312.53967,0.00085
2310.61095,0.00088
2308.68223,0.00089
2306.75350,0.00086
2304.82478,0.00080
2302.89606,0.00069
2300.96733,0.00058
2299.03861,0.00053
2297.10989,0.00049
2295.18116,0.00041
2293.25244,0.00033
2291.32371,0.00030
2289.39499,0.00032
2287.46627,0.00038
2285.53754,0.00040
2283.60882,0.00038
2281.68010,0.00035
2279.75137,0.00033
2277.82265,0.00032
2275.89392,0.00028
2273.96520,0.00025
2272.03648,0.00028
2270.10775,0.00031
2268.17903,0.00027
2266.25031,0.00017
2264.32158,0.00010
2262.39286,0.00012
2260.46414,0.00018
2258.53541,0.00018
2256.60669,0.00016
2254.67796,0.00018
2252.74924,0.00020
2250.82052,0.00017
2248.89179,0.00015
2246.96307,0.00019
2245.03435,0.00024
2243.10562,0.00023
2241.17690,0.00012
2239.24818,-0.00001
2237.31945,-0.00002
2235.39073,0.00001
2233.46200,-0.00006
2231.53328,-0.00016
2229.60456,-0.00015
2227.67583,-0.00008
2225.74711,-0.00004
2223.81839,0.00001
2221.88966,0.00003
2219.96094,-0.00002
2218.03221,-0.00004
2216.10349,0.00005
2214.17477,0.00014
2212.24604,0.00016
2210.31732,0.00016
2208.38860,0.00016
2206.45987,0.00009
2204.53115,0.00000
2202.60243,-0.00006
2200.67370,-0.00003
2198.74498,0.00006
2196.81625,0.00017
2194.88753,0.00020
2192.95881,0.00017
2191.03008,0.00012
2189.10136,0.00010
2187.17264,0.00007
2185.24391,0.00004
2183.31519,0.00007
2181.38647,0.00009
2179.45774,0.00006
2177.52902,0.00003
2175.60029,0.00001
2173.67157,0.00006
2171.74285,0.00016
2169.81412,0.00024
2167.88540,0.00026
2165.95668,0.00020
2164.02795,0.00014
2162.09923,0.00016
2160.17050,0.00023
2158.24178,0.00020
2156.31306,0.00007
2154.38433,0.00002
2152.45561,0.00009
2150.52689,0.00014
2148.59816,0.00016
2146.66944,0.00024
2144.74072,0.00027
2142.81199,0.00020
2140.88327,0.00012
2138.95454,0.00013
2137.02582,0.00018
2135.09710,0.00023
2133.16837,0.00022
2131.23965,0.00012
2129.31093,0.00006
2127.38220,0.00010
2125.45348,0.00013
2123.52476,0.00013
2121.59603,0.00007
2119.66731,-0.00006
2117.73858,-0.00016
2115.80986,-0.00018
2113.88114,-0.00019
2111.95241,-0.00014
2110.02369,-0.00005
2108.09497,-0.00001
2106.16624,0.00003
2104.23752,0.00007
2102.30880,0.00004
2100.38007,-0.00001
2098.45135,-0.00001
2096.52262,0.00001
2094.59390,0.00000
2092.66518,-0.00008
2090.73645,-0.00013
2088.80773,-0.00013
2086.87901,-0.00020
2084.95028,-0.00033
2083.02156,-0.00038
2081.09283,-0.00038
2079.16411,-0.00046
2077.23539,-0.00056
2075.30666,-0.00060
2073.37794,-0.00055
2071.44922,-0.00047
2069.52049,-0.00041
2067.59177,-0.00042
2065.66305,-0.00043
2063.73432,-0.00030
2061.80560,-0.00016
2059.87687,-0.00011
2057.94815,-0.00010
2056.01943,-0.00012
2054.09070,-0.00008
2052.16198,0.00005
2050.23326,0.00018
2048.30453,0.00029
2046.37581,0.00044
2044.44709,0.00057
2042.51836,0.00065
2040.58964,0.00076
2038.66091,0.00090
2036.73219,0.00098
2034.80347,0.00113
2032.87474,0.00137
2030.94602,0.00158
2029.01730,0.00173
2027.08857,0.00186
2025.15985,0.00201
2023.23112,0.00219
2021.30240,0.00240
2019.37368,0.00251
2017.44495,0.00252
2015.51623,0.00269
2013.58751,0.00294
2011.65878,0.00306
2009.73006,0.00310
2007.80134,0.00314
2005.87261,0.00322
2003.94389,0.00332
2002.01516,0.00338
2000.08644,0.00337
1998.15772,0.00331
1996.22899,0.00330
1994.30027,0.00318
1992.37155,0.00303
1990.44282,0.00316
1988.51410,0.00322
1986.58538,0.00312
1984.65665,0.00303
1982.72793,0.00296
1980.79920,0.00295
1978.87048,0.00298
1976.94176,0.00294
1975.01303,0.00277
1973.08431,0.00261
1971.15559,0.00256
1969.22686,0.00241
1967.29814,0.00214
1965.36941,0.00207
1963.44069,0.00197
1961.51197,0.00171
1959.58324,0.00155
1957.65452,0.00142
1955.72580,0.00124
1953.79707,0.00112
1951.86835,0.00105
1949.93963,0.00093
1948.01090,0.00078
1946.08218,0.00069
1944.15345,0.00041
1942.22473,0.00022
1940.29601,0.00045
1938.36728,0.00047
1936.43856,0.00024
1934.50984,0.00009
1932.58111,0.00005
1930.65239,0.00006
1928.72367,0.00009
1926.79494,0.00014
1924.86622,0.00000
1922.93749,0.00001
1921.00877,0.00041
1919.08005,0.00042
1917.15132,0.00059
1915.22260,0.00124
1913.29388,0.00150
1911.36515,0.00135
1909.43643,0.00137
1907.50770,0.00183
1905.57898,0.00237
1903.65026,0.00272
1901.72153,0.00306
1899.79281,0.00353
1897.86409,0.00397
1895.93536,0.00430
1894.00664,0.00480
1892.07792,0.00519
1890.14919,0.00525
1888.22047,0.00568
1886.29174,0.00623
1884.36302,0.00646
1882.43430,0.00664
1880.50557,0.00682
1878.57685,0.00694
1876.64813,0.00705
1874.71940,0.00723
1872.79068,0.00739
1870.86196,0.00705
1868.93323,0.00651
1867.00451,0.00658
1865.07578,0.00675
1863.14706,0.00637
1861.21834,0.00575
1859.28961,0.00522
1857.36089,0.00479
1855.43217,0.00442
1853.50344,0.00410
1851.57472,0.00385
1849.64599,0.00362
1847.71727,0.00327
1845.78855,0.00244
1843.85982,0.00176
1841.93110,0.00202
1840.00238,0.00207
1838.07365,0.00147
1836.14493,0.00113
1834.21621,0.00117
1832.28748,0.00081
1830.35876,0.00014
1828.43003,0.00015
1826.50131,0.00017
1824.57259,-0.00013
1822.64386,-0.00005
1820.71514,-0.00002
1818.78642,-0.00022
1816.85769,-0.00021
1814.92897,0.00000
1813.00025,-0.00007
1811.07152,-0.00021
1809.14280,0.00013
1807.21407,0.00064
1805.28535,0.00095
1803.35663,0.00096
1801.42790,0.00091
1799.49918,0.00134
1797.57046,0.00213
1795.64173,0.00258
1793.71301,0.00240
1791.78428,0.00274
1789.85556,0.00420
1787.92684,0.00524
1785.99811,0.00550
1784.06939,0.00596
1782.14067,0.00656
1780.21194,0.00726
1778.28322,0.00845
1776.35450,0.00947
1774.42577,0.00963
1772.49705,0.00974
1770.56832,0.01096
1768.63960,0.01222
1766.71088,0.01308
1764.78215,0.01356
1762.85343,0.01352
1760.92471,0.01414
1758.99598,0.01512
1757.06726,0.01574
1755.13854,0.01670
1753.20981,0.01726
1751.28109,0.01716
1749.35236,0.01782
1747.42364,0.01922
1745.49492,0.02046
1743.56619,0.02132
1741.63747,0.02207
1739.70875,0.02347
1737.78002,0.02557
1735.85130,0.02635
1733.92257,0.02701
1731.99385,0.02973
1730.06513,0.03213
1728.13640,0.03377
1726.20768,0.03537
1724.27896,0.03712
1722.35023,0.03928
1720.42151,0.04061
1718.49279,0.04086
1716.56406,0.04240
1714.63534,0.04523
1712.70661,0.04761
1710.77789,0.04929
1708.84917,0.05059
1706.92044,0.05198
1704.99172,0.05437
1703.06300,0.05674
1701.13427,0.05778
1699.20555,0.05983
1697.27683,0.06239
1695.34810,0.06464
1693.41938,0.06759
1691.49065,0.06975
1689.56193,0.07167
1687.63321,0.07379
1685.70448,0.07476
1683.77576,0.07667
1681.84704,0.08090
1679.91831,0.08412
1677.98959,0.08564
1676.06087,0.08681
1674.13214,0.08912
1672.20342,0.09132
1670.27469,0.09239
1668.34597,0.09467
1666.41725,0.09747
1664.48852,0.09862
1662.55980,0.09963
1660.63108,0.10218
1658.70235,0.10493
1656.77363,0.10610
1654.84490,0.10514
1652.91618,0.10570
1650.98746,0.10981
1649.05873,0.11114
1647.13001,0.11001
1645.20129,0.11105
1643.27256,0.11313
1641.34384,0.11426
1639.41512,0.11456
1637.48639,0.11366
1635.55767,0.11301
1633.62894,0.11439
1631.70022,0.11528
1629.77150,0.11439
1627.84277,0.11336
1625.91405,0.11256
1623.98533,0.11116
1622.05660,0.11031
1620.12788,0.10949
1618.19916,0.10662
1616.27043,0.10362
1614.34171,0.10246
1612.41298,0.10114
1610.48426,0.09876
1608.55554,0.09630
1606.62681,0.09408
1604.69809,0.09177
1602.76937,0.08933
1600.84064,0.08720
1598.91192,0.08536
1596.98319,0.08352
1595.05447,0.08171
1593.12575,0.08015
1591.19702,0.07868
1589.26830,0.07719
1587.33958,0.07575
1585.41085,0.07430
1583.48213,0.07291
1581.55341,0.07188
1579.62468,0.07077
1577.69596,0.06857
1575.76723,0.06692
1573.83851,0.06726
1571.90979,0.06667
1569.98106,0.06474
1568.05234,0.06421
1566.12362,0.06453
1564.19489,0.06488
1562.26617,0.06436
1560.33745,0.06127
1558.40872,0.05921
1556.48000,0.06085
1554.55127,0.06137
1552.62255,0.06042
1550.69383,0.05926
1548.76510,0.05871
1546.83638,0.05839
1544.90766,0.05736
1542.97893,0.05556
1541.05021,0.05285
1539.12148,0.05185
1537.19276,0.05290
1535.26404,0.05179
1533.33531,0.04951
1531.40659,0.04901
1529.47787,0.04854
1527.54914,0.04704
1525.62042,0.04578
1523.69170,0.04426
1521.76297,0.04221
1519.83425,0.04126
1517.90552,0.04019
1515.97680,0.03883
1514.04808,0.03825
1512.11935,0.03765
1510.19063,0.03597
1508.26191,0.03230
1506.33318,0.02953
1504.40446,0.03017
1502.47574,0.03026
1500.54701,0.02824
1498.61829,0.02567
1496.68956,0.02420
1494.76084,0.02436
1492.83212,0.02408
1490.90339,0.02234
1488.97467,0.02124
1487.04595,0.02177
1485.11722,0.02255
1483.18850,0.02274
1481.25977,0.02295
1479.33105,0.02371
1477.40233,0.02439
1475.47360,0.02469
1473.54488,0.02510
1471.61616,0.02702
1469.68743,0.02983
1467.75871,0.03112
1465.82999,0.03135
1463.90126,0.03272
1461.97254,0.03465
1460.04381,0.03470
1458.11509,0.03353
1456.18637,0.03443
1454.25764,0.03664
1452.32892,0.03743
1450.40020,0.03709
1448.47147,0.03686
1446.54275,0.03749
1444.61403,0.03843
1442.68530,0.03909
1440.75658,0.03963
1438.82785,0.03942
1436.89913,0.03899
1434.97041,0.04013
1433.04168,0.04146
1431.11296,0.04180
1429.18424,0.04240
1427.25551,0.04345
1425.32679,0.04421
1423.39806,0.04506
1421.46934,0.04559
1419.54062,0.04556
1417.61189,0.04678
1415.68317,0.04877
1413.75445,0.05004
1411.82572,0.05105
1409.89700,0.05252
1407.96828,0.05409
1406.03955,0.05530
1404.11083,0.05664
1402.18210,0.05779
1400.25338,0.05761
1398.32466,0.05650
1396.39593,0.05474
1394.46721,0.05258
1392.53849,0.05101
1390.60976,0.04968
1388.68104,0.04830
1386.75232,0.04783
1384.82359,0.04772
1382.89487,0.04628
1380.96614,0.04381
1379.03742,0.04166
1377.10870,0.04007
1375.17997,0.03854
1373.25125,0.03738
1371.32253,0.03658
1369.39380,0.03564
1367.46508,0.03495
1365.53635,0.03431
1363.60763,0.03323
1361.67891,0.03237
1359.75018,0.03198
1357.82146,0.03151
1355.89274,0.03102
1353.96401,0.03077
1352.03529,0.03062
1350.10657,0.03038
1348.17784,0.03012
1346.24912,0.02995
1344.32039,0.02982
1342.39167,0.02949
1340.46295,0.02892
1338.53422,0.02873
1336.60550,0.02899
1334.67678,0.02905
1332.74805,0.02890
1330.81933,0.02884
1328.89061,0.02895
1326.96188,0.02918
1325.03316,0.02949
1323.10443,0.02978
1321.17571,0.02984
1319.24699,0.02985
1317.31826,0.03013
1315.38954,0.03058
1313.46082,0.03107
1311.53209,0.03168
1309.60337,0.03223
1307.67464,0.03270
1305.74592,0.03336
1303.81720,0.03418
1301.88847,0.03499
1299.95975,0.03581
1298.03103,0.03672
1296.10230,0.03773
1294.17358,0.03885
1292.24486,0.04012
1290.31613,0.04145
1288.38741,0.04288
1286.45868,0.04457
1284.52996,0.04643
1282.60124,0.04838
1280.67251,0.05052
1278.74379,0.05297
1276.81507,0.05575
1274.88634,0.05890
1272.95762,0.06240
1271.02890,0.06633
1269.10017,0.07083
1267.17145,0.07597
1265.24272,0.08167
1263.31400,0.08791
1261.38528,0.09484
1259.45655,0.10263
1257.52783,0.11115
1255.59911,0.12010
1253.67038,0.12928
1251.74166,0.13844
1249.81294,0.14737
1247.88421,0.15597
1245.95549,0.16407
1244.02676,0.17151
1242.09804,0.17818
1240.16932,0.18420
1238.24059,0.18975
1236.31187,0.19473
1234.38315,0.19900
1232.45442,0.20279
1230.52570,0.20654
1228.59697,0.21027
1226.66825,0.21373
1224.73953,0.21678
1222.81080,0.21953
1220.88208,0.22216
1218.95336,0.22466
1217.02463,0.22697
1215.09591,0.22933
1213.16719,0.23185
1211.23846,0.23425
1209.30974,0.23644
1207.38101,0.23845
1205.45229,0.24035
1203.52357,0.24227
1201.59484,0.24434
1199.66612,0.24657
1197.73740,0.24891
1195.80867,0.25121
1193.87995,0.25322
1191.95123,0.25498
1190.02250,0.25679
1188.09378,0.25875
1186.16505,0.26067
1184.23633,0.26257
1182.30761,0.26452
1180.37888,0.26638
1178.45016,0.26809
1176.52144,0.26969
1174.59271,0.27133
1172.66399,0.27308
1170.73526,0.27472
1168.80654,0.27619
1166.87782,0.27758
1164.94909,0.27879
1163.02037,0.28004
1161.09165,0.28179
1159.16292,0.28386
1157.23420,0.28576
1155.30548,0.28742
1153.37675,0.28901
1151.44803,0.29054
1149.51930,0.29193
1147.59058,0.29312
1145.66186,0.29431
1143.73313,0.29582
1141.80441,0.29759
1139.87569,0.29929
1137.94696,0.30098
1136.01824,0.30303
1134.08952,0.30514
1132.16079,0.30680
1130.23207,0.30827
1128.30334,0.30987
1126.37462,0.31198
1124.44590,0.31488
1122.51717,0.31806
1120.58845,0.32115
1118.65973,0.32449
1116.73100,0.32838
1114.80228,0.33270
1112.87355,0.33731
1110.94483,0.34232
1109.01611,0.34772
1107.08738,0.35321
1105.15866,0.35861
1103.22994,0.36406
1101.30121,0.36896
1099.37249,0.37251
1097.44377,0.37538
1095.51504,0.37839
1093.58632,0.38113
1091.65759,0.38287
1089.72887,0.38356
1087.80015,0.38371
1085.87142,0.38377
1083.94270,0.38355
1082.01398,0.38279
1080.08525,0.38180
1078.15653,0.38077
1076.22781,0.37938
1074.29908,0.37736
1072.37036,0.37495
1070.44163,0.37245
1068.51291,0.36962
1066.58419,0.36624
1064.65546,0.36252
1062.72674,0.35904
1060.79802,0.35573
1058.86929,0.35187
1056.94057,0.34741
1055.01184,0.34291
1053.08312,0.33843
1051.15440,0.33386
1049.22567,0.32900
1047.29695,0.32343
1045.36823,0.31742
1043.43950,0.31161
1041.51078,0.30589
1039.58206,0.30008
1037.65333,0.29439
1035.72461,0.28870
1033.79588,0.28271
1031.86716,0.27676
1029.93844,0.27121
1028.00971,0.26577
1026.08099,0.26014
1024.15227,0.25474
1022.22354,0.24998
1020.29482,0.24533
1018.36610,0.24038
1016.43737,0.23558
1014.50865,0.23124
1012.57992,0.22728
1010.65120,0.22356
1008.72248,0.21996
1006.79375,0.21642
1004.86503,0.21295
1002.93631,0.20939
1001.00758,0.20567
999.07886,0.20222
997.15013,0.19937
995.22141,0.19664
993.29269,0.19364
991.36396,0.19073
989.43524,0.18814
987.50652,0.18574
985.57779,0.18356
983.64907,0.18169
981.72035,0.17991
979.79162,0.17830
977.86290,0.17717
975.93417,0.17625
974.00545,0.17513
972.07673,0.17414
970.14800,0.17361
968.21928,0.17332
966.29056,0.17299
964.36183,0.17258
962.43311,0.17210
960.50439,0.17153
958.57566,0.17099
956.64694,0.17066
954.71821,0.17040
952.78949,0.16984
950.86077,0.16892
948.93204,0.16784
947.00332,0.16667
945.07460,0.16558
943.14587,0.16445
941.21715,0.16296
939.28842,0.16119
937.35970,0.15940
935.43098,0.15786
933.50225,0.15656
931.57353,0.15488
929.64481,0.15254
927.71608,0.15030
925.78736,0.14856
923.85864,0.14651
921.92991,0.14386
920.00119,0.14111
918.07246,0.13867
916.14374,0.13656
914.21502,0.13431
912.28629,0.13161
910.35757,0.12856
908.42885,0.12540
906.50012,0.12240
904.57140,0.11964
902.64268,0.11693
900.71395,0.11424
898.78523,0.11171
896.85650,0.10934
894.92778,0.10684
892.99906,0.10411
891.07033,0.10143
889.14161,0.09886
887.21289,0.09623
885.28416,0.09363
883.35544,0.09105
881.42671,0.08839
879.49799,0.08590
877.56927,0.08386
875.64054,0.08222
873.71182,0.08063
871.78310,0.07875
869.85437,0.07675
867.92565,0.07517
865.99693,0.07401
864.06820,0.07281
862.13948,0.07149
860.21075,0.07027
858.28203,0.06914
856.35331,0.06801
854.42458,0.06700
852.49586,0.06626
850.56714,0.06586
848.63841,0.06582
846.70969,0.06626
844.78097,0.06701
842.85224,0.06796
840.92352,0.06948
838.99479,0.07163
837.06607,0.07388
835.13735,0.07603
833.20862,0.07825
831.27990,0.08066
829.35118,0.08319
827.42245,0.08583
825.49373,0.08897
823.56501,0.09250
821.63628,0.09550
819.70756,0.09774
817.77883,0.10003
815.85011,0.10264
813.92139,0.10526
811.99266,0.10779
810.06394,0.11032
808.13522,0.11275
806.20649,0.11515
804.27777,0.11749
802.34904,0.11964
800.42032,0.12149
798.49160,0.12246
796.56287,0.12231
794.63415,0.12187
792.70543,0.12158
790.77670,0.12113
788.84798,0.12027
786.91926,0.11889
784.99053,0.11689
783.06181,0.11431
781.13308,0.11142
779.20436,0.10837
777.27564,0.10533
775.34691,0.10247
773.41819,0.09990
771.48947,0.09763
769.56074,0.09546
767.63202,0.09351
765.70330,0.09227
763.77457,0.09164
761.84585,0.09131
759.91712,0.09124
757.98840,0.09132
756.05968,0.09122
754.13095,0.09074
752.20223,0.09026
750.27351,0.09012
748.34478,0.09010
746.41606,0.09004
744.48733,0.08993
742.55861,0.08957
740.62989,0.08888
738.70116,0.08842
736.77244,0.08871
734.84372,0.08922
732.91499,0.08915
730.98627,0.08867
729.05755,0.08858
727.12882,0.08901
725.20010,0.08941
723.27137,0.08963
721.34265,0.08980
719.41393,0.09000
717.48520,0.08996
715.55648,0.08970
713.62776,0.08980
711.69903,0.09043
709.77031,0.09089
707.84159,0.09081
705.91286,0.09078
703.98414,0.09129
702.05541,0.09191
700.12669,0.09207
698.19797,0.09197
696.26924,0.09201
694.34052,0.09205
692.41180,0.09200
690.48307,0.09204
688.55435,0.09225
686.62562,0.09255
684.69690,0.09311
682.76818,0.09391
680.83945,0.09461
678.91073,0.09505
676.98201,0.09519
675.05328,0.09492
673.12456,0.09438
671.19584,0.09360
669.26711,0.09278
667.33839,0.09326
665.40966,0.09497
663.48094,0.09607
661.55222,0.09616
659.62349,0.09606
657.69477,0.09652
655.76605,0.09750
653.83732,0.09853
651.90860,0.09957
649.97988,0.10069
648.05115,0.10194
646.12243,0.10387
644.19370,0.10654
642.26498,0.10888
640.33626,0.11014
638.40753,0.11094
636.47881,0.11201
634.55009,0.11332
632.62136,0.11464
630.69264,0.11598
628.76391,0.11722
626.83519,0.11810
624.90647,0.11876
622.97774,0.11909
621.04902,0.11903
619.12030,0.11911
617.19157,0.11963
615.26285,0.12069
613.33413,0.12229
611.40540,0.12432
609.47668,0.12663
607.54795,0.12867
605.61923,0.13000
603.69051,0.13081
601.76178,0.13135
599.83306,0.13205
597.90434,0.13319
595.97561,0.13459
594.04689,0.13613
592.11817,0.13782
590.18944,0.13973
588.26072,0.14172
586.33199,0.14343
584.40327,0.14437
582.47455,0.14417
580.54582,0.14336
578.61710,0.14248
576.68838,0.14185
574.75965,0.14213
572.83093,0.14283
570.90220,0.14319
568.97348,0.14309
567.04476,0.14233
565.11603,0.14120
563.18731,0.14078
561.25859,0.14157
559.32986,0.14266
557.40114,0.14285
555.47242,0.14251
553.54369,0.14281
551.61497,0.14384
549.68624,0.14532
547.75752,0.14661
545.82880,0.14674
543.90007,0.14676
541.97135,0.14787
540.04263,0.14903
538.11390,0.14881
536.18518,0.14719
534.25646,0.14528
532.32773,0.14416
530.39901,0.14377
528.47028,0.14350
526.54156,0.14382
524.61284,0.14507
522.68411,0.14569
520.75539,0.14526
518.82667,0.14597
516.89794,0.14843
514.96922,0.15031
513.04049,0.15064
511.11177,0.15138
509.18305,0.15381
507.25432,0.15785
505.32560,0.16302
503.39688,0.16755
501.46815,0.17025
499.53943,0.17241
497.61071,0.17596
495.68198,0.18159
493.75326,0.18900
491.82453,0.19716
489.89581,0.20399
487.96709,0.20853
486.03836,0.21246
484.10964,0.21762
482.18092,0.22447
480.25219,0.23176
478.32347,0.23697
476.39475,0.23960
474.46602,0.24253
472.53730,0.24795
470.60857,0.25417
468.67985,0.25880
466.75113,0.26149
464.82240,0.26230
462.89368,0.26198
460.96496,0.26127
459.03623,0.25956
457.10751,0.25707
455.17878,0.25390
453.25006,0.25023
451.32134,0.24872
449.39261,0.24930
447.46389,0.24749
445.53517,0.24093
443.60644,0.23210
441.67772,0.22477
439.74900,0.22010
437.82027,0.21761
435.89155,0.21565
433.96282,0.20983
432.03410,0.19832
430.10538,0.18739
428.17665,0.18445
426.24793,0.18718
424.31921,0.18605
422.39048,0.17675
420.46176,0.16482
418.53304,0.16013
416.60431,0.16374
414.67559,0.16762
412.74686,0.16867
410.81814,0.16603
408.88942,0.15937
406.96069,0.15246
405.03197,0.15050
403.10325,0.15257
401.17452,0.14922
399.24580,0.13438
397.31708,0.11808
395.38835,0.11467
393.45963,0.12200
391.53090,0.13287
389.60218,0.13746
387.67346,0.11891
385.74473,0.08576
383.81601,0.08511
381.88729,0.12048
379.95856,0.13169
378.02984,0.08925
376.10111,0.02438
374.17239,0.00000
372.24367,-0.00494
370.31494,0.00021
368.38622,0.00000
