3996.31543,-0.00000
3994.38671,-0.00000
3992.45799,0.00000
3990.52926,0.00015
3988.60054,0.00033
3986.67182,0.00038
3984.74309,0.00031
3982.81437,0.00023
3980.88564,0.00024
3978.95692,0.00036
3977.02820,0.00045
3975.09947,0.00042
3973.17075,0.00032
3971.24203,0.00026
3969.31330,0.00036
3967.38458,0.00055
3965.45586,0.00069
3963.52713,0.00075
3961.59841,0.00077
3959.66968,0.00076
3957.74096,0.00078
3955.81224,0.00087
3953.88351,0.00093
3951.95479,0.00090
3950.02607,0.00077
3948.09734,0.00064
3946.16862,0.00070
3944.23990,0.00090
3942.31117,0.00098
3940.38245,0.00093
3938.45372,0.00087
3936.52500,0.00096
3934.59628,0.00129
3932.66755,0.00147
3930.73883,0.00120
3928.81011,0.00086
3926.88138,0.00080
3924.95266,0.00081
3923.02393,0.00078
3921.09521,0.00088
3919.16649,0.00097
3917.23776,0.00080
3915.30904,0.00056
3913.38032,0.00061
3911.45159,0.00092
3909.52287,0.00127
3907.59415,0.00154
3905.66542,0.00158
3903.73670,0.00133
3901.80797,0.00096
3899.87925,0.00058
3897.95053,0.00037
3896.02180,0.00055
3894.09308,0.00091
3892.16436,0.00100
3890.23563,0.00103
3888.30691,0.00142
3886.37819,0.00164
3884.44946,0.00130
3882.52074,0.00095
3880.59201,0.00080
3878.66329,0.00096
3876.73457,0.00155
3874.80584,0.00202
3872.87712,0.00193
3870.94840,0.00151
3869.01967,0.00112
3867.09095,0.00108
3865.16222,0.00110
3863.23350,0.00081
3861.30478,0.00067
3859.37605,0.00124
3857.44733,0.00228
3855.51861,0.00279
3853.58988,0.00173
3851.66116,0.00019
3849.73244,0.00000
3847.80371,0.00081
3845.87499,0.00171
3843.94626,0.00220
3842.01754,0.00223
3840.08882,0.00188
3838.16009,0.00123
3836.23137,0.00084
3834.30265,0.00102
3832.37392,0.00129
3830.44520,0.00133
3828.51648,0.00134
3826.58775,0.00157
3824.65903,0.00205
3822.73030,0.00229
3820.80158,0.00185
3818.87286,0.00134
3816.94413,0.00118
3815.01541,0.00107
3813.08669,0.00125
3811.15796,0.00183
3809.22924,0.00236
3807.30052,0.00252
3805.37179,0.00268
3803.44307,0.00296
3801.51434,0.00273
3799.58562,0.00216
3797.65690,0.00191
3795.72817,0.00190
3793.79945,0.00210
3791.87073,0.00249
3789.94200,0.00283
3788.01328,0.00306
3786.08455,0.00325
3784.15583,0.00343
3782.22711,0.00358
3780.29838,0.00362
3778.36966,0.00360
3776.44094,0.00391
3774.51221,0.00457
3772.58349,0.00511
3770.65477,0.00514
3768.72604,0.00491
3766.79732,0.00498
3764.86859,0.00535
3762.93987,0.00590
3761.01115,0.00648
3759.08242,0.00686
3757.15370,0.00724
3755.22498,0.00794
3753.29625,0.00867
3751.36753,0.00888
3749.43881,0.00891
3747.51008,0.00956
3745.58136,0.01041
3743.65263,0.01087
3741.72391,0.01149
3739.79519,0.01263
3737.86646,0.01388
3735.93774,0.01484
3734.00902,0.01550
3732.08029,0.01619
3730.15157,0.01729
3728.22284,0.01886
3726.29412,0.02063
3724.36540,0.02235
3722.43667,0.02408
3720.50795,0.02599
3718.57923,0.02817
3716.65050,0.03069
3714.72178,0.03343
3712.79306,0.03611
3710.86433,0.03852
3708.93561,0.04092
3707.00688,0.04360
3705.07816,0.04654
3703.14944,0.04970
3701.22071,0.05304
3699.29199,0.05645
3697.36327,0.05985
3695.43454,0.06323
3693.50582,0.06656
3691.57710,0.07002
3689.64837,0.07373
3687.71965,0.07750
3685.79092,0.08120
3683.86220,0.08505
3681.93348,0.08922
3680.00475,0.09358
3678.07603,0.09808
3676.14731,0.10286
3674.21858,0.10749
3672.28986,0.11156
3670.36113,0.11560
3668.43241,0.11984
3666.50369,0.12388
3664.57496,0.12774
3662.64624,0.13165
3660.71752,0.13566
3658.78879,0.13961
3656.86007,0.14335
3654.93135,0.14687
3653.00262,0.15028
3651.07390,0.15365
3649.14517,0.15678
3647.21645,0.15973
3645.28773,0.16289
3643.35900,0.16625
3641.43028,0.16954
3639.50156,0.17253
3637.57283,0.17530
3635.64411,0.17803
3633.71539,0.18084
3631.78666,0.18366
3629.85794,0.18621
3627.92921,0.18843
3626.00049,0.19081
3624.07177,0.19354
3622.14304,0.19623
3620.21432,0.19847
3618.28560,0.20028
3616.35687,0.20192
3614.42815,0.20354
3612.49942,0.20515
3610.57070,0.20693
3608.64198,0.20902
3606.71325,0.21122
3604.78453,0.21331
3602.85581,0.21531
3600.92708,0.21724
3598.99836,0.21904
3597.06964,0.22083
3595.14091,0.22273
3593.21219,0.22465
3591.28346,0.22646
3589.35474,0.22809
3587.42602,0.22963
3585.49729,0.23126
3583.56857,0.23309
3581.63985,0.23506
3579.71112,0.23699
3577.78240,0.23869
3575.85368,0.24012
3573.92495,0.24145
3571.99623,0.24278
3570.06750,0.24405
3568.13878,0.24518
3566.21006,0.24637
3564.28133,0.24795
3562.35261,0.24979
3560.42389,0.25147
3558.49516,0.25292
3556.56644,0.25433
3554.63771,0.25563
3552.70899,0.25672
3550.78027,0.25787
3548.85154,0.25920
3546.92282,0.26040
3544.99410,0.26137
3543.06537,0.26259
3541.13665,0.26426
3539.20793,0.26591
3537.27920,0.26695
3535.35048,0.26753
3533.42175,0.26834
3531.49303,0.26952
3529.56431,0.27070
3527.63558,0.27172
3525.70686,0.27279
3523.77814,0.27394
3521.84941,0.27502
3519.92069,0.27599
3517.99197,0.27690
3516.06324,0.27788
3514.13452,0.27898
3512.20579,0.28007
3510.27707,0.28109
3508.34835,0.28209
3506.41962,0.28301
3504.49090,0.28385
3502.56218,0.28477
3500.63345,0.28575
3498.70473,0.28668
3496.77600,0.28751
3494.84728,0.28819
3492.91856,0.28873
3490.98983,0.28938
3489.06111,0.29027
3487.13239,0.29120
3485.20366,0.29206
3483.27494,0.29290
3481.34622,0.29377
3479.41749,0.29459
3477.48877,0.29525
3475.56004,0.29576
3473.63132,0.29640
3471.70260,0.29731
3469.77387,0.29818
3467.84515,0.29875
3465.91643,0.29913
3463.98770,0.29959
3462.05898,0.30014
3460.13026,0.30068
3458.20153,0.30121
3456.27281,0.30176
3454.34408,0.30247
3452.41536,0.30336
3450.48664,0.30409
3448.55791,0.30447
3446.62919,0.30467
3444.70047,0.30489
3442.77174,0.30518
3440.84302,0.30559
3438.91429,0.30606
3436.98557,0.30649
3435.05685,0.30699
3433.12812,0.30754
3431.19940,0.30790
3429.27068,0.30799
3427.34195,0.30806
3425.41323,0.30831
3423.48451,0.30878
3421.55578,0.30934
3419.62706,0.30981
3417.69833,0.31012
3415.76961,0.31030
3413.84089,0.31042
3411.91216,0.31053
3409.98344,0.31067
3408.05472,0.31090
3406.12599,0.31117
3404.19727,0.31139
3402.26855,0.31148
3400.33982,0.31136
3398.41110,0.31114
3396.48237,0.31106
3394.55365,0.31111
3392.62493,0.31110
3390.69620,0.31103
3388.76748,0.31099
3386.83876,0.31099
3384.91003,0.31091
3382.98131,0.31079
3381.05259,0.31062
3379.12386,0.31043
3377.19514,0.31032
3375.26641,0.31023
3373.33769,0.31017
3371.40897,0.31022
3369.48024,0.31024
3367.55152,0.30996
3365.62280,0.30947
3363.69407,0.30906
3361.76535,0.30896
3359.83662,0.30905
3357.90790,0.30898
3355.97918,0.30861
3354.05045,0.30808
3352.12173,0.30757
3350.19301,0.30725
3348.26428,0.30709
3346.33556,0.30693
3344.40684,0.30668
3342.47811,0.30635
3340.54939,0.30593
3338.62066,0.30553
3336.69194,0.30516
3334.76322,0.30478
3332.83449,0.30441
3330.90577,0.30407
3328.97705,0.30384
3327.04832,0.30364
3325.11960,0.30338
3323.19088,0.30302
3321.26215,0.30257
3319.33343,0.30208
3317.40470,0.30163
3315.47598,0.30128
3313.54726,0.30093
3311.61853,0.30060
3309.68981,0.30036
3307.76109,0.30012
3305.83236,0.29979
3303.90364,0.29936
3301.97491,0.29890
3300.04619,0.29850
3298.11747,0.29818
3296.18874,0.29791
3294.26002,0.29765
3292.33130,0.29740
3290.40257,0.29708
3288.47385,0.29658
3286.54513,0.29600
3284.61640,0.29565
3282.68768,0.29542
3280.75895,0.29495
3278.83023,0.29421
3276.90151,0.29349
3274.97278,0.29302
3273.04406,0.29280
3271.11534,0.29264
3269.18661,0.29236
3267.25789,0.29195
3265.32917,0.29152
3263.40044,0.29105
3261.47172,0.29061
3259.54299,0.29019
3257.61427,0.28948
3255.68555,0.28854
3253.75682,0.28779
3251.82810,0.28739
3249.89938,0.28703
3247.97065,0.28655
3246.04193,0.28602
3244.11320,0.28543
3242.18448,0.28474
3240.25576,0.28403
3238.32703,0.28335
3236.39831,0.28270
3234.46959,0.28207
3232.54086,0.28138
3230.61214,0.28065
3228.68342,0.27998
3226.75469,0.27932
3224.82597,0.27860
3222.89724,0.27796
3220.96852,0.27736
3219.03980,0.27668
3217.11107,0.27604
3215.18235,0.27543
3213.25363,0.27466
3211.32490,0.27376
3209.39618,0.27292
3207.46746,0.27221
3205.53873,0.27155
3203.61001,0.27081
3201.68128,0.26992
3199.75256,0.26899
3197.82384,0.26811
3195.89511,0.26715
3193.96639,0.26610
3192.03767,0.26524
3190.10894,0.26454
3188.18022,0.26374
3186.25149,0.26287
3184.32277,0.26201
3182.39405,0.26112
3180.46532,0.26024
3178.53660,0.25935
3176.60788,0.25832
3174.67915,0.25719
3172.75043,0.25615
3170.82171,0.25518
3168.89298,0.25418
3166.96426,0.25324
3165.03553,0.25229
3163.10681,0.25120
3161.17809,0.25004
3159.24936,0.24903
3157.32064,0.24819
3155.39192,0.24734
3153.46319,0.24637
3151.53447,0.24536
3149.60575,0.24438
3147.67702,0.24339
3145.74830,0.24231
3143.81957,0.24125
3141.89085,0.24032
3139.96213,0.23943
3138.03340,0.23843
3136.10468,0.23737
3134.17596,0.23629
3132.24723,0.23521
3130.31851,0.23427
3128.38978,0.23345
3126.46106,0.23254
3124.53234,0.23156
3122.60361,0.23059
3120.67489,0.22960
3118.74617,0.22863
3116.81744,0.22768
3114.88872,0.22672
3112.96000,0.22569
3111.03127,0.22461
3109.10255,0.22354
3107.17382,0.22253
3105.24510,0.22147
3103.31638,0.22025
3101.38765,0.21897
3099.45893,0.21785
3097.53021,0.21690
3095.60148,0.21597
3093.67276,0.21503
3091.74404,0.21404
3089.81531,0.21289
3087.88659,0.21169
3085.95786,0.21062
3084.02914,0.20965
3082.10042,0.20861
3080.17169,0.20752
3078.24297,0.20640
3076.31425,0.20531
3074.38552,0.20419
3072.45680,0.20299
3070.52807,0.20174
3068.59935,0.20057
3066.67063,0.19953
3064.74190,0.19849
3062.81318,0.19734
3060.88446,0.19608
3058.95573,0.19488
3057.02701,0.19379
3055.09829,0.19271
3053.16956,0.19163
3051.24084,0.19058
3049.31211,0.18943
3047.38339,0.18823
3045.45467,0.18721
3043.52594,0.18628
3041.59722,0.18527
3039.66850,0.18418
3037.73977,0.18309
3035.81105,0.18202
3033.88233,0.18100
3031.95360,0.18008
3030.02488,0.17921
3028.09615,0.17833
3026.16743,0.17742
3024.23871,0.17647
3022.30998,0.17548
3020.38126,0.17446
3018.45254,0.17345
3016.52381,0.17254
3014.59509,0.17181
3012.66636,0.17110
3010.73764,0.17018
3008.80892,0.16910
3006.88019,0.16810
3004.95147,0.16734
3003.02275,0.16683
3001.09402,0.16635
2999.16530,0.16577
2997.23658,0.16510
2995.30785,0.16431
2993.37913,0.16346
2991.45040,0.16276
2989.52168,0.16232
2987.59296,0.16200
2985.66423,0.16162
2983.73551,0.16126
2981.80679,0.16110
2979.87806,0.16113
2977.94934,0.16118
2976.02062,0.16123
2974.09189,0.16132
2972.16317,0.16144
2970.23444,0.16161
2968.30572,0.16192
2966.37700,0.16231
2964.44827,0.16260
2962.51955,0.16271
2960.59083,0.16265
2958.66210,0.16240
2956.73338,0.16203
2954.80466,0.16164
2952.87593,0.16121
2950.94721,0.16064
2949.01848,0.16014
2947.08976,0.16009
2945.16104,0.16057
2943.23231,0.16133
2941.30359,0.16215
2939.37487,0.16311
2937.44614,0.16432
2935.51742,0.16573
2933.58869,0.16717
2931.65997,0.16850
2929.73125,0.16949
2927.80252,0.16992
2925.87380,0.16977
2923.94508,0.16901
2922.01635,0.16753
2920.08763,0.16531
2918.15891,0.16248
2916.23018,0.15918
2914.30146,0.15569
2912.37273,0.15234
2910.44401,0.14935
2908.51529,0.14675
2906.58656,0.14448
2904.65784,0.14245
2902.72912,0.14061
2900.80039,0.13892
2898.87167,0.13732
2896.94295,0.13576
2895.01422,0.13415
2893.08550,0.13248
2891.15677,0.13092
2889.22805,0.12953
2887.29933,0.12827
2885.37060,0.12710
2883.44188,0.12600
2881.51316,0.12500
2879.58443,0.12419
2877.65571,0.12354
2875.72698,0.12295
2873.79826,0.12234
2871.86954,0.12166
2869.94081,0.12092
2868.01209,0.12029
2866.08337,0.11996
2864.15464,0.11988
2862.22592,0.12007
2860.29720,0.12075
2858.36847,0.12185
2856.43975,0.12288
2854.51102,0.12321
2852.58230,0.12237
2850.65358,0.12024
2848.72485,0.11698
2846.79613,0.11298
2844.86741,0.10895
2842.93868,0.10548
2841.00996,0.10271
2839.08124,0.10053
2837.15251,0.09862
2835.22379,0.09683
2833.29506,0.09517
2831.36634,0.09370
2829.43762,0.09244
2827.50889,0.09131
2825.58017,0.09016
2823.65145,0.08901
2821.72272,0.08798
2819.79400,0.08708
2817.86527,0.08620
2815.93655,0.08527
2814.00783,0.08437
2812.07910,0.08355
2810.15038,0.08273
2808.22166,0.08193
2806.29293,0.08114
2804.36421,0.08026
2802.43549,0.07938
2800.50676,0.07862
2798.57804,0.07792
2796.64931,0.07721
2794.72059,0.07648
2792.79187,0.07568
2790.86314,0.07489
2788.93442,0.07416
2787.00570,0.07341
2785.07697,0.07265
2783.14825,0.07197
2781.21953,0.07128
2779.29080,0.07059
2777.36208,0.06997
2775.43335,0.06934
2773.50463,0.06858
2771.57591,0.06779
2769.64718,0.06710
2767.71846,0.06642
2765.78974,0.06574
2763.86101,0.06514
2761.93229,0.06457
2760.00356,0.06397
2758.07484,0.06341
2756.14612,0.06286
2754.21739,0.06223
2752.28867,0.06153
2750.35995,0.06090
2748.43122,0.06032
2746.50250,0.05974
2744.57378,0.05916
2742.64505,0.05861
2740.71633,0.05807
2738.78760,0.05749
2736.85888,0.05686
2734.93016,0.05621
2733.00143,0.05565
2731.07271,0.05518
2729.14399,0.05466
2727.21526,0.05406
2725.28654,0.05350
2723.35782,0.05302
2721.42909,0.05254
2719.50037,0.05196
2717.57164,0.05134
2715.64292,0.05072
2713.71420,0.05010
2711.78547,0.04952
2709.85675,0.04896
2707.92803,0.04843
2705.99930,0.04797
2704.07058,0.04752
2702.14185,0.04701
2700.21313,0.04647
2698.28441,0.04594
2696.35568,0.04541
2694.42696,0.04488
2692.49824,0.04435
2690.56951,0.04386
2688.64079,0.04341
2686.71207,0.04298
2684.78334,0.04253
2682.85462,0.04202
2680.92589,0.04149
2678.99717,0.04105
2677.06845,0.04067
2675.13972,0.04027
2673.21100,0.03984
2671.28228,0.03933
2669.35355,0.03881
2667.42483,0.03836
2665.49611,0.03794
2663.56738,0.03748
2661.63866,0.03697
2659.70993,0.03650
2657.78121,0.03612
2655.85249,0.03574
2653.92376,0.03535
2651.99504,0.03497
2650.06632,0.03452
2648.13759,0.03401
2646.20887,0.03351
2644.28014,0.03306
2642.35142,0.03271
2640.42270,0.03239
2638.49397,0.03205
2636.56525,0.03166
2634.63653,0.03125
2632.70780,0.03085
2630.77908,0.03048
2628.85036,0.03009
2626.92163,0.02971
2624.99291,0.02936
2623.06418,0.02901
2621.13546,0.02866
2619.20674,0.02831
2617.27801,0.02797
2615.34929,0.02761
2613.42057,0.02723
2611.49184,0.02684
2609.56312,0.02647
2607.63440,0.02614
2605.70567,0.02590
2603.77695,0.02569
2601.84822,0.02537
2599.91950,0.02497
2597.99078,0.02457
2596.06205,0.02424
2594.13333,0.02396
2592.20461,0.02367
2590.27588,0.02332
2588.34716,0.02294
2586.41843,0.02257
2584.48971,0.02226
2582.56099,0.02201
2580.63226,0.02175
2578.70354,0.02148
2576.77482,0.02124
2574.84609,0.02100
2572.91737,0.02074
2570.98865,0.02041
2569.05992,0.02008
2567.13120,0.01985
2565.20247,0.01970
2563.27375,0.01952
2561.34503,0.01926
2559.41630,0.01899
2557.48758,0.01877
2555.55886,0.01858
2553.63013,0.01835
2551.70141,0.01812
2549.77269,0.01791
2547.84396,0.01767
2545.91524,0.01741
2543.98651,0.01720
2542.05779,0.01701
2540.12907,0.01679
2538.20034,0.01659
2536.27162,0.01642
2534.34290,0.01621
2532.41417,0.01597
2530.48545,0.01576
2528.55673,0.01555
2526.62800,0.01531
2524.69928,0.01509
2522.77055,0.01492
2520.84183,0.01473
2518.91311,0.01448
2516.98438,0.01427
2515.05566,0.01415
2513.12694,0.01399
2511.19821,0.01380
2509.26949,0.01363
2507.34076,0.01351
2505.41204,0.01336
2503.48332,0.01313
2501.55459,0.01288
2499.62587,0.01268
2497.69715,0.01248
2495.76842,0.01231
2493.83970,0.01221
2491.91098,0.01214
2489.98225,0.01198
2488.05353,0.01173
2486.12480,0.01149
2484.19608,0.01131
2482.26736,0.01115
2480.33863,0.01099
2478.40991,0.01082
2476.48119,0.01062
2474.55246,0.01038
2472.62374,0.01015
2470.69502,0.00998
2468.76629,0.00987
2466.83757,0.00976
2464.90884,0.00964
2462.98012,0.00947
2461.05140,0.00924
2459.12267,0.00903
2457.19395,0.00887
2455.26523,0.00871
2453.33650,0.00846
2451.40778,0.00820
2449.47905,0.00806
2447.55033,0.00798
2445.62161,0.00788
2443.69288,0.00777
2441.76416,0.00763
2439.83544,0.00744
2437.90671,0.00725
2435.97799,0.00710
2434.04927,0.00692
2432.12054,0.00674
2430.19182,0.00663
2428.26309,0.00653
2426.33437,0.00638
2424.40565,0.00617
2422.47692,0.00597
2420.54820,0.00579
2418.61948,0.00565
2416.69075,0.00549
2414.76203,0.00532
2412.83331,0.00523
2410.90458,0.00523
2408.97586,0.00518
2407.04713,0.00500
2405.11841,0.00480
2403.18969,0.00466
2401.26096,0.00456
2399.33224,0.00444
2397.40352,0.00428
2395.47479,0.00415
2393.54607,0.00406
2391.61734,0.00401
2389.68862,0.00396
2387.75990,0.00386
2385.83117,0.00374
2383.90245,0.00369
2381.97373,0.00379
2380.04500,0.00396
2378.11628,0.00409
2376.18756,0.00414
2374.25883,0.00417
2372.33011,0.00419
2370.40138,0.00417
2368.47266,0.00413
2366.54394,0.00411
2364.61521,0.00407
2362.68649,0.00389
2360.75777,0.00357
2358.82904,0.00325
2356.90032,0.00306
2354.97160,0.00291
2353.04287,0.00272
2351.11415,0.00264
2349.18542,0.00281
2347.25670,0.00306
2345.32798,0.00312
2343.39925,0.00293
2341.47053,0.00269
2339.54181,0.00253
2337.61308,0.00243
2335.68436,0.00231
2333.75563,0.00217
2331.82691,0.00208
2329.89819,0.00206
2327.96946,0.00200
2326.04074,0.00182
2324.11202,0.00161
2322.18329,0.00151
2320.25457,0.00152
2318.32585,0.00154
2316.39712,0.00153
2314.46840,0.00151
2312.53967,0.00146
2310.61095,0.00138
2308.68223,0.00126
2306.75350,0.00113
2304.82478,0.00103
2302.89606,0.00094
2300.96733,0.00085
2299.03861,0.00079
2297.10989,0.00080
2295.18116,0.00081
2293.25244,0.00075
2291.32371,0.00069
2289.39499,0.00067
2287.46627,0.00069
2285.53754,0.00067
2283.60882,0.00064
2281.68010,0.00064
2279.75137,0.00065
2277.82265,0.00065
2275.89392,0.00062
2273.96520,0.00058
2272.03648,0.00055
2270.10775,0.00054
2268.17903,0.00056
2266.25031,0.00058
2264.32158,0.00056
2262.39286,0.00049
2260.46414,0.00038
2258.53541,0.00025
2256.60669,0.00018
2254.67796,0.00020
2252.74924,0.00030
2250.82052,0.00033
2248.89179,0.00024
2246.96307,0.00013
2245.03435,0.00009
2243.10562,0.00009
2241.17690,0.00009
2239.24818,0.00007
2237.31945,0.00003
2235.39073,0.00001
2233.46200,0.00001
2231.53328,0.00000
2229.60456,-0.00003
2227.67583,-0.00006
2225.74711,-0.00004
2223.81839,-0.00001
2221.88966,0.00006
2219.96094,0.00014
2218.03221,0.00016
2216.10349,0.00010
2214.17477,0.00003
2212.24604,0.00002
2210.31732,0.00000
2208.38860,-0.00002
2206.45987,0.00000
2204.53115,0.00001
2202.60243,0.00002
2200.67370,0.00005
2198.74498,0.00007
2196.81625,0.00009
2194.88753,0.00012
2192.95881,0.00009
2191.03008,0.00003
2189.10136,0.00004
2187.17264,0.00009
2185.24391,0.00008
2183.31519,0.00003
2181.38647,0.00004
2179.45774,0.00009
2177.52902,0.00008
2175.60029,0.00004
2173.67157,0.00000
2171.74285,-0.00002
2169.81412,-0.00000
2167.88540,0.00001
2165.95668,0.00003
2164.02795,0.00010
2162.09923,0.00020
2160.17050,0.00030
2158.24178,0.00037
2156.31306,0.00039
2154.38433,0.00038
2152.45561,0.00038
2150.52689,0.00040
2148.59816,0.00045
2146.66944,0.00047
2144.74072,0.00043
2142.81199,0.00040
2140.88327,0.00042
2138.95454,0.00045
2137.02582,0.00046
2135.09710,0.00046
2133.16837,0.00044
2131.23965,0.00044
2129.31093,0.00045
2127.38220,0.00045
2125.45348,0.00046
2123.52476,0.00048
2121.59603,0.00045
2119.66731,0.00036
2117.73858,0.00031
2115.80986,0.00031
2113.88114,0.00032
2111.95241,0.00028
2110.02369,0.00018
2108.09497,0.00015
2106.16624,0.00018
2104.23752,0.00021
2102.30880,0.00021
2100.38007,0.00015
2098.45135,0.00006
2096.52262,0.00001
2094.59390,0.00000
2092.66518,-0.00004
2090.73645,-0.00007
2088.80773,-0.00007
2086.87901,-0.00007
2084.95028,-0.00013
2083.02156,-0.00024
2081.09283,-0.00034
2079.16411,-0.00037
2077.23539,-0.00035
2075.30666,-0.00032
2073.37794,-0.00030
2071.44922,-0.00027
2069.52049,-0.00023
2067.59177,-0.00021
2065.66305,-0.00021
2063.73432,-0.00020
2061.80560,-0.00017
2059.87687,-0.00012
2057.94815,-0.00001
2056.01943,0.00014
2054.09070,0.00024
2052.16198,0.00030
2050.23326,0.00040
2048.30453,0.00052
2046.37581,0.00060
2044.44709,0.00068
2042.51836,0.00080
2040.58964,0.00096
2038.66091,0.00113
2036.73219,0.00133
2034.80347,0.00154
2032.87474,0.00175
2030.94602,0.00190
2029.01730,0.00199
2027.08857,0.00207
2025.15985,0.00221
2023.23112,0.00236
2021.30240,0.00244
2019.37368,0.00250
2017.44495,0.00259
2015.51623,0.00266
2013.58751,0.00273
2011.65878,0.00286
2009.73006,0.00302
2007.80134,0.00315
2005.87261,0.00329
2003.94389,0.00339
2002.01516,0.00338
2000.08644,0.00331
1998.15772,0.00327
1996.22899,0.00328
1994.30027,0.00328
1992.37155,0.00327
1990.44282,0.00325
1988.51410,0.00322
1986.58538,0.00314
1984.65665,0.00306
1982.72793,0.00302
1980.79920,0.00296
1978.87048,0.00285
1976.94176,0.00268
1975.01303,0.00254
1973.08431,0.00247
1971.15559,0.00239
1969.22686,0.00226
1967.29814,0.00211
1965.36941,0.00196
1963.44069,0.00182
1961.51197,0.00167
1959.58324,0.00150
1957.65452,0.00132
1955.72580,0.00117
1953.79707,0.00106
1951.86835,0.00098
1949.93963,0.00090
1948.01090,0.00080
1946.08218,0.00069
1944.15345,0.00052
1942.22473,0.00027
1940.29601,0.00012
1938.36728,0.00016
1936.43856,0.00019
1934.50984,0.00011
1932.58111,0.00004
1930.65239,0.00004
1928.72367,0.00002
1926.79494,0.00000
1924.86622,0.00002
1922.93749,0.00010
1921.00877,0.00024
1919.08005,0.00041
1917.15132,0.00058
1915.22260,0.00080
1913.29388,0.00112
1911.36515,0.00149
1909.43643,0.00185
1907.50770,0.00222
1905.57898,0.00265
1903.65026,0.00312
1901.72153,0.00360
1899.79281,0.00407
1897.86409,0.00450
1895.93536,0.00487
1894.00664,0.00524
1892.07792,0.00567
1890.14919,0.00604
1888.22047,0.00633
1886.29174,0.00664
1884.36302,0.00699
1882.43430,0.00730
1880.50557,0.00754
1878.57685,0.00773
1876.64813,0.00787
1874.71940,0.00794
1872.79068,0.00792
1870.86196,0.00775
1868.93323,0.00737
1867.00451,0.00699
1865.07578,0.00678
1863.14706,0.00664
1861.21834,0.00639
1859.28961,0.00601
1857.36089,0.00559
1855.43217,0.00517
1853.50344,0.00474
1851.57472,0.00428
1849.64599,0.00383
1847.71727,0.00342
1845.78855,0.00290
1843.85982,0.00222
1841.93110,0.00171
1840.00238,0.00150
1838.07365,0.00135
1836.14493,0.00117
1834.21621,0.00106
1832.28748,0.00096
1830.35876,0.00071
1828.43003,0.00039
1826.50131,0.00016
1824.57259,0.00000
1822.64386,-0.00009
1820.71514,-0.00004
1818.78642,-0.00001
1816.85769,-0.00003
1814.92897,0.00000
1813.00025,-0.00001
1811.07152,-0.00002
1809.14280,-0.00002
1807.21407,0.00009
1805.28535,0.00031
1803.35663,0.00056
1801.42790,0.00073
1799.49918,0.00086
1797.57046,0.00112
1795.64173,0.00160
1793.71301,0.00211
1791.78428,0.00253
1789.85556,0.00294
1787.92684,0.00351
1785.99811,0.00426
1784.06939,0.00508
1782.14067,0.00583
1780.21194,0.00648
1778.28322,0.00718
1776.35450,0.00801
1774.42577,0.00887
1772.49705,0.00966
1770.56832,0.01047
1768.63960,0.01137
1766.71088,0.01234
1764.78215,0.01332
1762.85343,0.01421
1760.92471,0.01497
1758.99598,0.01573
1757.06726,0.01663
1755.13854,0.01766
1753.20981,0.01879
1751.28109,0.02000
1749.35236,0.02132
1747.42364,0.02283
1745.49492,0.02451
1743.56619,0.02630
1741.63747,0.02813
1739.70875,0.02997
1737.78002,0.03173
1735.85130,0.03344
1733.92257,0.03540
1731.99385,0.03753
1730.06513,0.03957
1728.13640,0.04149
1726.20768,0.04334
1724.27896,0.04518
1722.35023,0.04695
1720.42151,0.04860
1718.49279,0.05024
1716.56406,0.05202
1714.63534,0.05402
1712.70661,0.05612
1710.77789,0.05823
1708.84917,0.06038
1706.92044,0.06273
1704.99172,0.06524
1703.06300,0.06776
1701.13427,0.07061
1699.20555,0.07403
1697.27683,0.07771
1695.34810,0.08153
1693.41938,0.08514
1691.49065,0.08849
1689.56193,0.09191
1687.63321,0.09534
1685.70448,0.09907
1683.77576,0.10353
1681.84704,0.10779
1679.91831,0.11131
1677.98959,0.11461
1676.06087,0.11814
1674.13214,0.12176
1672.20342,0.12508
1670.27469,0.12837
1668.34597,0.13178
1666.41725,0.13486
1664.48852,0.13763
1662.55980,0.14046
1660.63108,0.14317
1658.70235,0.14543
1656.77363,0.14727
1654.84490,0.14889
1652.91618,0.15050
1650.98746,0.15196
1649.05873,0.15315
1647.13001,0.15415
1645.20129,0.15504
1643.27256,0.15588
1641.34384,0.15664
1639.41512,0.15713
1637.48639,0.15714
1635.55767,0.15675
1633.62894,0.15654
1631.70022,0.15658
1629.77150,0.15627
1627.84277,0.15532
1625.91405,0.15388
1623.98533,0.15195
1622.05660,0.14979
1620.12788,0.14777
1618.19916,0.14534
1616.27043,0.14201
1614.34171,0.13883
1612.41298,0.13627
1610.48426,0.13370
1608.55554,0.13083
1606.62681,0.12799
1604.69809,0.12527
1602.76937,0.12257
1600.84064,0.11991
1598.91192,0.11746
1596.98319,0.11517
1595.05447,0.11285
1593.12575,0.11045
1591.19702,0.10808
1589.26830,0.10583
1587.33958,0.10376
1585.41085,0.10178
1583.48213,0.09986
1581.55341,0.09814
1579.62468,0.09661
1577.69596,0.09487
1575.76723,0.09280
1573.83851,0.09119
1571.90979,0.09010
1569.98106,0.08882
1568.05234,0.08745
1566.12362,0.08654
1564.19489,0.08614
1562.26617,0.08589
1560.33745,0.08493
1558.40872,0.08286
1556.48000,0.08139
1554.55127,0.08093
1552.62255,0.08049
1550.69383,0.07980
1548.76510,0.07905
1546.83638,0.07833
1544.90766,0.07741
1542.97893,0.07589
1541.05021,0.07351
1539.12148,0.07097
1537.19276,0.06953
1535.26404,0.06844
1533.33531,0.06666
1531.40659,0.06462
1529.47787,0.06290
1527.54914,0.06104
1525.62042,0.05883
1523.69170,0.05649
1521.76297,0.05389
1519.83425,0.05138
1517.90552,0.04926
1515.97680,0.04722
1514.04808,0.04534
1512.11935,0.04376
1510.19063,0.04213
1508.26191,0.03948
1506.33318,0.03569
1504.40446,0.03294
1502.47574,0.03157
1500.54701,0.03014
1498.61829,0.02793
1496.68956,0.02548
1494.76084,0.02380
1492.83212,0.02292
1490.90339,0.02205
1488.97467,0.02101
1487.04595,0.02048
1485.11722,0.02068
1483.18850,0.02128
1481.25977,0.02209
1479.33105,0.02313
1477.40233,0.02452
1475.47360,0.02636
1473.54488,0.02892
1471.61616,0.03207
1469.68743,0.03497
1467.75871,0.03723
1465.82999,0.03902
1463.90126,0.04030
1461.97254,0.04110
1460.04381,0.04164
1458.11509,0.04203
1456.18637,0.04240
1454.25764,0.04289
1452.32892,0.04340
1450.40020,0.04371
1448.47147,0.04383
1446.54275,0.04398
1444.61403,0.04436
1442.68530,0.04496
1440.75658,0.04561
1438.82785,0.04616
1436.89913,0.04651
1434.97041,0.04684
1433.04168,0.04739
1431.11296,0.04816
1429.18424,0.04901
1427.25551,0.04971
1425.32679,0.05026
1423.39806,0.05085
1421.46934,0.05153
1419.54062,0.05218
1417.61189,0.05279
1415.68317,0.05347
1413.75445,0.05419
1411.82572,0.05487
1409.89700,0.05551
1407.96828,0.05614
1406.03955,0.05669
1404.11083,0.05711
1402.18210,0.05722
1400.25338,0.05676
1398.32466,0.05559
1396.39593,0.05391
1394.46721,0.05208
1392.53849,0.05046
1390.60976,0.04920
1388.68104,0.04814
1386.75232,0.04716
1384.82359,0.04627
1382.89487,0.04540
1380.96614,0.04447
1379.03742,0.04344
1377.10870,0.04223
1375.17997,0.04070
1373.25125,0.03911
1371.32253,0.03785
1369.39380,0.03689
1367.46508,0.03594
1365.53635,0.03482
1363.60763,0.03347
1361.67891,0.03212
1359.75018,0.03115
1357.82146,0.03043
1355.89274,0.02969
1353.96401,0.02895
1352.03529,0.02834
1350.10657,0.02782
1348.17784,0.02733
1346.24912,0.02694
1344.32039,0.02669
1342.39167,0.02648
1340.46295,0.02617
1338.53422,0.02585
1336.60550,0.02571
1334.67678,0.02568
1332.74805,0.02560
1330.81933,0.02549
1328.89061,0.02549
1326.96188,0.02569
1325.03316,0.02603
1323.10443,0.02641
1321.17571,0.02691
1319.24699,0.02767
1317.31826,0.02886
1315.38954,0.03051
1313.46082,0.03252
1311.53209,0.03470
1309.60337,0.03699
1307.67464,0.03971
1305.74592,0.04358
1303.81720,0.04879
1301.88847,0.05374
1299.95975,0.05639
1298.03103,0.05727
1296.10230,0.05835
1294.17358,0.05985
1292.24486,0.06077
1290.31613,0.06092
1288.38741,0.06067
1286.45868,0.06026
1284.52996,0.05996
1282.60124,0.06012
1280.67251,0.06088
1278.74379,0.06228
1276.81507,0.06436
1274.88634,0.06723
1272.95762,0.07096
1271.02890,0.07558
1269.10017,0.08099
1267.17145,0.08711
1265.24272,0.09396
1263.31400,0.10169
1261.38528,0.11053
1259.45655,0.12050
1257.52783,0.13149
1255.59911,0.14340
1253.67038,0.15590
1251.74166,0.16848
1249.81294,0.18086
1247.88421,0.19286
1245.95549,0.20420
1244.02676,0.21477
1242.09804,0.22454
1240.16932,0.23335
1238.24059,0.24119
1236.31187,0.24829
1234.38315,0.25481
1232.45442,0.26077
1230.52570,0.26619
1228.59697,0.27114
1226.66825,0.27578
1224.73953,0.28026
1222.81080,0.28467
1220.88208,0.28891
1218.95336,0.29291
1217.02463,0.29664
1215.09591,0.30013
1213.16719,0.30349
1211.23846,0.30687
1209.30974,0.31031
1207.38101,0.31394
1205.45229,0.31783
1203.52357,0.32190
1201.59484,0.32638
1199.66612,0.33186
1197.73740,0.33871
1195.80867,0.34648
1193.87995,0.35393
1191.95123,0.35949
1190.02250,0.36251
1188.09378,0.36458
1186.16505,0.36724
1184.23633,0.36972
1182.30761,0.37067
1180.37888,0.37027
1178.45016,0.36938
1176.52144,0.36848
1174.59271,0.36791
1172.66399,0.36776
1170.73526,0.36778
1168.80654,0.36792
1166.87782,0.36858
1164.94909,0.36999
1163.02037,0.37173
1161.09165,0.37332
1159.16292,0.37467
1157.23420,0.37607
1155.30548,0.37779
1153.37675,0.37967
1151.44803,0.38142
1149.51930,0.38300
1147.59058,0.38477
1145.66186,0.38703
1143.73313,0.38960
1141.80441,0.39212
1139.87569,0.39457
1137.94696,0.39723
1136.01824,0.40020
1134.08952,0.40328
1132.16079,0.40627
1130.23207,0.40932
1128.30334,0.41271
1126.37462,0.41671
1124.44590,0.42123
1122.51717,0.42618
1120.58845,0.43188
1118.65973,0.43850
1116.73100,0.44591
1114.80228,0.45372
1112.87355,0.46168
1110.94483,0.46977
1109.01611,0.47833
1107.08738,0.48768
1105.15866,0.49643
1103.22994,0.50306
1101.30121,0.50822
1099.37249,0.51265
1097.44377,0.51630
1095.51504,0.51917
1093.58632,0.52106
1091.65759,0.52166
1089.72887,0.52107
1087.80015,0.51944
1085.87142,0.51712
1083.94270,0.51438
1082.01398,0.51114
1080.08525,0.50776
1078.15653,0.50478
1076.22781,0.50160
1074.29908,0.49729
1072.37036,0.49204
1070.44163,0.48628
1068.51291,0.48027
1066.58419,0.47477
1064.65546,0.46995
1062.72674,0.46487
1060.79802,0.45874
1058.86929,0.45180
1056.94057,0.44435
1055.01184,0.43654
1053.08312,0.42877
1051.15440,0.42095
1049.22567,0.41277
1047.29695,0.40444
1045.36823,0.39625
1043.43950,0.38815
1041.51078,0.37997
1039.58206,0.37172
1037.65333,0.36366
1035.72461,0.35596
1033.79588,0.34852
1031.86716,0.34107
1029.93844,0.33351
1028.00971,0.32620
1026.08099,0.31932
1024.15227,0.31250
1022.22354,0.30594
1020.29482,0.29997
1018.36610,0.29423
1016.43737,0.28863
1014.50865,0.28350
1012.57992,0.27888
1010.65120,0.27461
1008.72248,0.27063
1006.79375,0.26673
1004.86503,0.26298
1002.93631,0.25954
1001.00758,0.25626
999.07886,0.25305
997.15013,0.25001
995.22141,0.24715
993.29269,0.24430
991.36396,0.24148
989.43524,0.23898
987.50652,0.23700
985.57779,0.23554
983.64907,0.23433
981.72035,0.23293
979.79162,0.23141
977.86290,0.23029
975.93417,0.22972
974.00545,0.22929
972.07673,0.22863
970.14800,0.22774
968.21928,0.22688
966.29056,0.22625
964.36183,0.22555
962.43311,0.22452
960.50439,0.22360
958.57566,0.22279
956.64694,0.22158
954.71821,0.21991
952.78949,0.21800
950.86077,0.21602
948.93204,0.21419
947.00332,0.21224
945.07460,0.20964
943.14587,0.20672
941.21715,0.20415
939.28842,0.20167
937.35970,0.19880
935.43098,0.19571
933.50225,0.19243
931.57353,0.18895
929.64481,0.18534
927.71608,0.18166
925.78736,0.17793
923.85864,0.17399
921.92991,0.16980
920.00119,0.16577
918.07246,0.16210
916.14374,0.15829
914.21502,0.15402
912.28629,0.14964
910.35757,0.14529
908.42885,0.14083
906.50012,0.13661
904.57140,0.13273
902.64268,0.12858
900.71395,0.12421
898.78523,0.12012
896.85650,0.11628
894.92778,0.11247
892.99906,0.10889
891.07033,0.10571
889.14161,0.10270
887.21289,0.09957
885.28416,0.09630
883.35544,0.09298
881.42671,0.08985
879.49799,0.08716
877.56927,0.08493
875.64054,0.08292
873.71182,0.08078
871.78310,0.07840
869.85437,0.07604
867.92565,0.07393
865.99693,0.07193
864.06820,0.06998
862.13948,0.06849
860.21075,0.06739
858.28203,0.06618
856.35331,0.06492
854.42458,0.06383
852.49586,0.06294
850.56714,0.06229
848.63841,0.06194
846.70969,0.06204
844.78097,0.06287
842.85224,0.06440
840.92352,0.06628
838.99479,0.06825
837.06607,0.07047
835.13735,0.07304
833.20862,0.07583
831.27990,0.07878
829.35118,0.08210
827.42245,0.08575
825.49373,0.08896
823.56501,0.09159
821.63628,0.09437
819.70756,0.09740
817.77883,0.10036
815.85011,0.10338
813.92139,0.10652
811.99266,0.10950
810.06394,0.11223
808.13522,0.11498
806.20649,0.11776
804.27777,0.12028
802.34904,0.12235
800.42032,0.12378
798.49160,0.12461
796.56287,0.12497
794.63415,0.12458
792.70543,0.12322
790.77670,0.12130
788.84798,0.11927
786.91926,0.11703
784.99053,0.11437
783.06181,0.11143
781.13308,0.10846
779.20436,0.10535
777.27564,0.10168
775.34691,0.09744
773.41819,0.09346
771.48947,0.09020
769.56074,0.08752
767.63202,0.08554
765.70330,0.08424
763.77457,0.08328
761.84585,0.08274
759.91712,0.08257
757.98840,0.08226
756.05968,0.08165
754.13095,0.08106
752.20223,0.08071
750.27351,0.08054
748.34478,0.08050
746.41606,0.08068
744.48733,0.08088
742.55861,0.08088
740.62989,0.08086
738.70116,0.08081
736.77244,0.08082
734.84372,0.08118
732.91499,0.08169
730.98627,0.08185
729.05755,0.08177
727.12882,0.08179
725.20010,0.08189
723.27137,0.08191
721.34265,0.08198
719.41393,0.08225
717.48520,0.08271
715.55648,0.08320
713.62776,0.08364
711.69903,0.08432
709.77031,0.08535
707.84159,0.08640
705.91286,0.08737
703.98414,0.08839
702.05541,0.08937
700.12669,0.09022
698.19797,0.09117
696.26924,0.09237
694.34052,0.09358
692.41180,0.09437
690.48307,0.09464
688.55435,0.09486
686.62562,0.09536
684.69690,0.09611
682.76818,0.09697
680.83945,0.09774
678.91073,0.09842
676.98201,0.09933
675.05328,0.10041
673.12456,0.10110
671.19584,0.10138
669.26711,0.10194
667.33839,0.10294
665.40966,0.10357
663.48094,0.10349
661.55222,0.10324
659.62349,0.10354
657.69477,0.10454
655.76605,0.10577
653.83732,0.10689
651.90860,0.10812
649.97988,0.10961
648.05115,0.11113
646.12243,0.11230
644.19370,0.11298
642.26498,0.11370
640.33626,0.11523
638.40753,0.11732
636.47881,0.11913
634.55009,0.12030
632.62136,0.12112
630.69264,0.12197
628.76391,0.12314
626.83519,0.12449
624.90647,0.12567
622.97774,0.12679
621.04902,0.12807
619.12030,0.12933
617.19157,0.13016
615.26285,0.13085
613.33413,0.13212
611.40540,0.13386
609.47668,0.13567
607.54795,0.13728
605.61923,0.13854
603.69051,0.13979
601.76178,0.14143
599.83306,0.14350
597.90434,0.14589
595.97561,0.14825
594.04689,0.15010
592.11817,0.15149
590.18944,0.15276
588.26072,0.15377
586.33199,0.15418
584.40327,0.15462
582.47455,0.15566
580.54582,0.15663
578.61710,0.15726
576.68838,0.15808
574.75965,0.15878
572.83093,0.15857
570.90220,0.15799
568.97348,0.15808
567.04476,0.15874
565.11603,0.15921
563.18731,0.15926
561.25859,0.15927
559.32986,0.15951
557.40114,0.16009
555.47242,0.16111
553.54369,0.16192
551.61497,0.16213
549.68624,0.16265
547.75752,0.16395
545.82880,0.16506
543.90007,0.16547
541.97135,0.16556
540.04263,0.16531
538.11390,0.16453
536.18518,0.16358
534.25646,0.16297
532.32773,0.16251
530.39901,0.16182
528.47028,0.16097
526.54156,0.16030
524.61284,0.16015
522.68411,0.16042
520.75539,0.16104
518.82667,0.16221
516.89794,0.16349
514.96922,0.16411
513.04049,0.16500
511.11177,0.16755
509.18305,0.17149
507.25432,0.17618
505.32560,0.18169
503.39688,0.18735
501.46815,0.19253
499.53943,0.19763
497.61071,0.20324
495.68198,0.20967
493.75326,0.21694
491.82453,0.22468
489.89581,0.23226
487.96709,0.23933
486.03836,0.24710
484.10964,0.25724
482.18092,0.26913
480.25219,0.28040
478.32347,0.28980
476.39475,0.29759
474.46602,0.30398
472.53730,0.30860
470.60857,0.31153
468.67985,0.31344
466.75113,0.31456
464.82240,0.31413
462.89368,0.31125
460.96496,0.30575
459.03623,0.29792
457.10751,0.28948
455.17878,0.28294
453.25006,0.27751
451.32134,0.27174
449.39261,0.26703
447.46389,0.26373
445.53517,0.25897
443.60644,0.25127
441.67772,0.24348
439.74900,0.23755
437.82027,0.23198
435.89155,0.22616
433.96282,0.22013
432.03410,0.21289
430.10538,0.20508
428.17665,0.19831
426.24793,0.19162
424.31921,0.18349
422.39048,0.17413
420.46176,0.16286
418.53304,0.15143
416.60431,0.14575
414.67559,0.14500
412.74686,0.14387
410.81814,0.13883
408.88942,0.13107
406.96069,0.12587
405.03197,0.12362
403.10325,0.11955
401.17452,0.11365
399.24580,0.10926
397.31708,0.10413
395.38835,0.09625
393.45963,0.09262
391.53090,0.09425
389.60218,0.09446
387.67346,0.09252
385.74473,0.09141
383.81601,0.08923
381.88729,0.08464
379.95856,0.08187
378.02984,0.08105
376.10111,0.06702
374.17239,0.03172
372.24367,0.00309
370.31494,0.00000
368.38622,0.00000
