3996.31543,0.00000
3994.38671,0.00036
3992.45799,0.00052
3990.52926,0.00037
3988.60054,0.00017
3986.67182,0.00012
3984.74309,0.00023
3982.81437,0.00044
3980.88564,0.00062
3978.95692,0.00067
3977.02820,0.00065
3975.09947,0.00068
3973.17075,0.00074
3971.24203,0.00081
3969.31330,0.00085
3967.38458,0.00084
3965.45586,0.00079
3963.52713,0.00076
3961.59841,0.00074
3959.66968,0.00068
3957.74096,0.00064
3955.81224,0.00074
3953.88351,0.00104
3951.95479,0.00133
3950.02607,0.00132
3948.09734,0.00103
3946.16862,0.00086
3944.23990,0.00090
3942.31117,0.00092
3940.38245,0.00093
3938.45372,0.00102
3936.52500,0.00113
3934.59628,0.00116
3932.66755,0.00104
3930.73883,0.00074
3928.81011,0.00057
3926.88138,0.00075
3924.95266,0.00106
3923.02393,0.00128
3921.09521,0.00141
3919.16649,0.00137
3917.23776,0.00108
3915.30904,0.00079
3913.38032,0.00072
3911.45159,0.00080
3909.52287,0.00107
3907.59415,0.00165
3905.66542,0.00219
3903.73670,0.00210
3901.80797,0.00142
3899.87925,0.00073
3897.95053,0.00051
3896.02180,0.00089
3894.09308,0.00136
3892.16436,0.00127
3890.23563,0.00095
3888.30691,0.00109
3886.37819,0.00128
3884.44946,0.00101
3882.52074,0.00073
3880.59201,0.00053
3878.66329,0.00042
3876.73457,0.00068
3874.80584,0.00107
3872.87712,0.00118
3870.94840,0.00092
3869.01967,0.00050
3867.09095,0.00048
3865.16222,0.00057
3863.23350,0.00023
3861.30478,0.00000
3859.37605,0.00052
3857.44733,0.00163
3855.51861,0.00234
3853.58988,0.00163
3851.66116,0.00028
3849.73244,-0.00011
3847.80371,0.00026
3845.87499,0.00067
3843.94626,0.00097
3842.01754,0.00126
3840.08882,0.00147
3838.16009,0.00133
3836.23137,0.00093
3834.30265,0.00057
3832.37392,0.00033
3830.44520,0.00045
3828.51648,0.00092
3826.58775,0.00134
3824.65903,0.00155
3822.73030,0.00156
3820.80158,0.00127
3818.87286,0.00097
3816.94413,0.00074
3815.01541,0.00048
3813.08669,0.00072
3811.15796,0.00158
3809.22924,0.00239
3807.30052,0.00250
3805.37179,0.00229
3803.44307,0.00245
3801.51434,0.00251
3799.58562,0.00219
3797.65690,0.00202
3795.72817,0.00206
3793.79945,0.00226
3791.87073,0.00260
3789.94200,0.00292
3788.01328,0.00310
3786.08455,0.00321
3784.15583,0.00346
3782.22711,0.00394
3780.29838,0.00435
3778.36966,0.00453
3776.44094,0.00477
3774.51221,0.00522
3772.58349,0.00574
3770.65477,0.00613
3768.72604,0.00637
3766.79732,0.00656
3764.86859,0.00681
3762.93987,0.00731
3761.01115,0.00800
3759.08242,0.00858
3757.15370,0.00920
3755.22498,0.01025
3753.29625,0.01143
3751.36753,0.01207
3749.43881,0.01236
3747.51008,0.01304
3745.58136,0.01373
3743.65263,0.01399
3741.72391,0.01471
3739.79519,0.01646
3737.86646,0.01863
3735.93774,0.02023
3734.00902,0.02102
3732.08029,0.02192
3730.15157,0.02350
3728.22284,0.02553
3726.29412,0.02769
3724.36540,0.02996
3722.43667,0.03245
3720.50795,0.03504
3718.57923,0.03760
3716.65050,0.04022
3714.72178,0.04314
3712.79306,0.04652
3710.86433,0.05019
3708.93561,0.05381
3707.00688,0.05738
3705.07816,0.06115
3703.14944,0.06522
3701.22071,0.06931
3699.29199,0.07325
3697.36327,0.07720
3695.43454,0.08133
3693.50582,0.08551
3691.57710,0.08967
3689.64837,0.09390
3687.71965,0.09822
3685.79092,0.10255
3683.86220,0.10693
3681.93348,0.11154
3680.00475,0.11644
3678.07603,0.12166
3676.14731,0.12727
3674.21858,0.13283
3672.28986,0.13776
3670.36113,0.14252
3668.43241,0.14730
3666.50369,0.15177
3664.57496,0.15609
3662.64624,0.16049
3660.71752,0.16490
3658.78879,0.16921
3656.86007,0.17338
3654.93135,0.17742
3653.00262,0.18131
3651.07390,0.18505
3649.14517,0.18857
3647.21645,0.19191
3645.28773,0.19522
3643.35900,0.19838
3641.43028,0.20141
3639.50156,0.20447
3637.57283,0.20769
3635.64411,0.21105
3633.71539,0.21438
3631.78666,0.21744
3629.85794,0.22012
3627.92921,0.22254
3626.00049,0.22490
3624.07177,0.22736
3622.14304,0.22979
3620.21432,0.23198
3618.28560,0.23393
3616.35687,0.23583
3614.42815,0.23775
3612.49942,0.23956
3610.57070,0.24121
3608.64198,0.24276
3606.71325,0.24445
3604.78453,0.24643
3602.85581,0.24851
3600.92708,0.25041
3598.99836,0.25211
3597.06964,0.25374
3595.14091,0.25536
3593.21219,0.25696
3591.28346,0.25853
3589.35474,0.26012
3587.42602,0.26177
3585.49729,0.26348
3583.56857,0.26515
3581.63985,0.26665
3579.71112,0.26800
3577.78240,0.26943
3575.85368,0.27105
3573.92495,0.27268
3571.99623,0.27415
3570.06750,0.27551
3568.13878,0.27676
3566.21006,0.27780
3564.28133,0.27879
3562.35261,0.27997
3560.42389,0.28134
3558.49516,0.28271
3556.56644,0.28404
3554.63771,0.28542
3552.70899,0.28678
3550.78027,0.28800
3548.85154,0.28915
3546.92282,0.29031
3544.99410,0.29146
3543.06537,0.29262
3541.13665,0.29384
3539.20793,0.29508
3537.27920,0.29622
3535.35048,0.29717
3533.42175,0.29803
3531.49303,0.29894
3529.56431,0.29989
3527.63558,0.30076
3525.70686,0.30166
3523.77814,0.30274
3521.84941,0.30391
3519.92069,0.30507
3517.99197,0.30619
3516.06324,0.30724
3514.13452,0.30804
3512.20579,0.30861
3510.27707,0.30916
3508.34835,0.30989
3506.41962,0.31082
3504.49090,0.31184
3502.56218,0.31293
3500.63345,0.31412
3498.70473,0.31528
3496.77600,0.31616
3494.84728,0.31682
3492.91856,0.31755
3490.98983,0.31845
3489.06111,0.31942
3487.13239,0.32025
3485.20366,0.32078
3483.27494,0.32124
3481.34622,0.32201
3479.41749,0.32289
3477.48877,0.32359
3475.56004,0.32424
3473.63132,0.32498
3471.70260,0.32568
3469.77387,0.32638
3467.84515,0.32721
3465.91643,0.32795
3463.98770,0.32821
3462.05898,0.32812
3460.13026,0.32836
3458.20153,0.32918
3456.27281,0.33008
3454.34408,0.33070
3452.41536,0.33117
3450.48664,0.33172
3448.55791,0.33244
3446.62919,0.33322
3444.70047,0.33373
3442.77174,0.33389
3440.84302,0.33401
3438.91429,0.33419
3436.98557,0.33440
3435.05685,0.33479
3433.12812,0.33533
3431.19940,0.33586
3429.27068,0.33636
3427.34195,0.33671
3425.41323,0.33682
3423.48451,0.33689
3421.55578,0.33710
3419.62706,0.33733
3417.69833,0.33743
3415.76961,0.33763
3413.84089,0.33810
3411.91216,0.33851
3409.98344,0.33865
3408.05472,0.33865
3406.12599,0.33855
3404.19727,0.33832
3402.26855,0.33804
3400.33982,0.33796
3398.41110,0.33817
3396.48237,0.33850
3394.55365,0.33867
3392.62493,0.33868
3390.69620,0.33872
3388.76748,0.33880
3386.83876,0.33878
3384.91003,0.33849
3382.98131,0.33793
3381.05259,0.33739
3379.12386,0.33707
3377.19514,0.33694
3375.26641,0.33709
3373.33769,0.33749
3371.40897,0.33760
3369.48024,0.33716
3367.55152,0.33662
3365.62280,0.33637
3363.69407,0.33621
3361.76535,0.33594
3359.83662,0.33563
3357.90790,0.33535
3355.97918,0.33515
3354.05045,0.33500
3352.12173,0.33480
3350.19301,0.33452
3348.26428,0.33407
3346.33556,0.33347
3344.40684,0.33297
3342.47811,0.33271
3340.54939,0.33266
3338.62066,0.33266
3336.69194,0.33227
3334.76322,0.33146
3332.83449,0.33068
3330.90577,0.33010
3328.97705,0.32970
3327.04832,0.32951
3325.11960,0.32944
3323.19088,0.32931
3321.26215,0.32896
3319.33343,0.32840
3317.40470,0.32786
3315.47598,0.32745
3313.54726,0.32719
3311.61853,0.32700
3309.68981,0.32672
3307.76109,0.32641
3305.83236,0.32620
3303.90364,0.32597
3301.97491,0.32550
3300.04619,0.32488
3298.11747,0.32435
3296.18874,0.32408
3294.26002,0.32397
3292.33130,0.32384
3290.40257,0.32353
3288.47385,0.32307
3286.54513,0.32265
3284.61640,0.32233
3282.68768,0.32208
3280.75895,0.32168
3278.83023,0.32098
3276.90151,0.32028
3274.97278,0.31983
3273.04406,0.31943
3271.11534,0.31896
3269.18661,0.31856
3267.25789,0.31821
3265.32917,0.31767
3263.40044,0.31689
3261.47172,0.31621
3259.54299,0.31578
3257.61427,0.31535
3255.68555,0.31481
3253.75682,0.31425
3251.82810,0.31367
3249.89938,0.31311
3247.97065,0.31263
3246.04193,0.31222
3244.11320,0.31184
3242.18448,0.31135
3240.25576,0.31075
3238.32703,0.31011
3236.39831,0.30940
3234.46959,0.30864
3232.54086,0.30803
3230.61214,0.30748
3228.68342,0.30676
3226.75469,0.30594
3224.82597,0.30518
3222.89724,0.30452
3220.96852,0.30390
3219.03980,0.30322
3217.11107,0.30237
3215.18235,0.30147
3213.25363,0.30068
3211.32490,0.29994
3209.39618,0.29925
3207.46746,0.29874
3205.53873,0.29824
3203.61001,0.29751
3201.68128,0.29658
3199.75256,0.29562
3197.82384,0.29470
3195.89511,0.29379
3193.96639,0.29284
3192.03767,0.29186
3190.10894,0.29084
3188.18022,0.28994
3186.25149,0.28920
3184.32277,0.28843
3182.39405,0.28758
3180.46532,0.28669
3178.53660,0.28566
3176.60788,0.28457
3174.67915,0.28361
3172.75043,0.28274
3170.82171,0.28188
3168.89298,0.28098
3166.96426,0.27993
3165.03553,0.27875
3163.10681,0.27768
3161.17809,0.27683
3159.24936,0.27596
3157.32064,0.27486
3155.39192,0.27367
3153.46319,0.27253
3151.53447,0.27151
3149.60575,0.27064
3147.67702,0.26970
3145.74830,0.26858
3143.81957,0.26748
3141.89085,0.26658
3139.96213,0.26579
3138.03340,0.26487
3136.10468,0.26376
3134.17596,0.26257
3132.24723,0.26155
3130.31851,0.26071
3128.38978,0.25978
3126.46106,0.25862
3124.53234,0.25750
3122.60361,0.25659
3120.67489,0.25567
3118.74617,0.25461
3116.81744,0.25350
3114.88872,0.25238
3112.96000,0.25119
3111.03127,0.24998
3109.10255,0.24883
3107.17382,0.24783
3105.24510,0.24692
3103.31638,0.24591
3101.38765,0.24471
3099.45893,0.24335
3097.53021,0.24191
3095.60148,0.24046
3093.67276,0.23911
3091.74404,0.23796
3089.81531,0.23699
3087.88659,0.23596
3085.95786,0.23466
3084.02914,0.23317
3082.10042,0.23171
3080.17169,0.23043
3078.24297,0.22931
3076.31425,0.22824
3074.38552,0.22702
3072.45680,0.22565
3070.52807,0.22433
3068.59935,0.22314
3066.67063,0.22197
3064.74190,0.22080
3062.81318,0.21959
3060.88446,0.21836
3058.95573,0.21714
3057.02701,0.21587
3055.09829,0.21456
3053.16956,0.21328
3051.24084,0.21204
3049.31211,0.21082
3047.38339,0.20971
3045.45467,0.20865
3043.52594,0.20748
3041.59722,0.20619
3039.66850,0.20493
3037.73977,0.20380
3035.81105,0.20276
3033.88233,0.20168
3031.95360,0.20048
3030.02488,0.19926
3028.09615,0.19829
3026.16743,0.19760
3024.23871,0.19679
3022.30998,0.19569
3020.38126,0.19458
3018.45254,0.19353
3016.52381,0.19243
3014.59509,0.19141
3012.66636,0.19058
3010.73764,0.18987
3008.80892,0.18918
3006.88019,0.18841
3004.95147,0.18750
3003.02275,0.18657
3001.09402,0.18575
2999.16530,0.18515
2997.23658,0.18481
2995.30785,0.18458
2993.37913,0.18426
2991.45040,0.18388
2989.52168,0.18354
2987.59296,0.18328
2985.66423,0.18307
2983.73551,0.18296
2981.80679,0.18310
2979.87806,0.18340
2977.94934,0.18376
2976.02062,0.18425
2974.09189,0.18478
2972.16317,0.18529
2970.23444,0.18586
2968.30572,0.18645
2966.37700,0.18704
2964.44827,0.18767
2962.51955,0.18813
2960.59083,0.18821
2958.66210,0.18791
2956.73338,0.18733
2954.80466,0.18659
2952.87593,0.18589
2950.94721,0.18542
2949.01848,0.18526
2947.08976,0.18553
2945.16104,0.18632
2943.23231,0.18750
2941.30359,0.18889
2939.37487,0.19044
2937.44614,0.19208
2935.51742,0.19379
2933.58869,0.19551
2931.65997,0.19716
2929.73125,0.19862
2927.80252,0.19971
2925.87380,0.20007
2923.94508,0.19951
2922.01635,0.19816
2920.08763,0.19606
2918.15891,0.19299
2916.23018,0.18891
2914.30146,0.18422
2912.37273,0.17960
2910.44401,0.17562
2908.51529,0.17243
2906.58656,0.16977
2904.65784,0.16739
2902.72912,0.16519
2900.80039,0.16308
2898.87167,0.16099
2896.94295,0.15896
2895.01422,0.15707
2893.08550,0.15537
2891.15677,0.15375
2889.22805,0.15214
2887.29933,0.15055
2885.37060,0.14906
2883.44188,0.14782
2881.51316,0.14687
2879.58443,0.14613
2877.65571,0.14551
2875.72698,0.14488
2873.79826,0.14419
2871.86954,0.14346
2869.94081,0.14271
2868.01209,0.14205
2866.08337,0.14165
2864.15464,0.14184
2862.22592,0.14271
2860.29720,0.14406
2858.36847,0.14551
2856.43975,0.14670
2854.51102,0.14728
2852.58230,0.14667
2850.65358,0.14426
2848.72485,0.14009
2846.79613,0.13484
2844.86741,0.12949
2842.93868,0.12484
2841.00996,0.12105
2839.08124,0.11789
2837.15251,0.11523
2835.22379,0.11308
2833.29506,0.11134
2831.36634,0.10975
2829.43762,0.10815
2827.50889,0.10662
2825.58017,0.10523
2823.65145,0.10393
2821.72272,0.10261
2819.79400,0.10133
2817.86527,0.10028
2815.93655,0.09941
2814.00783,0.09852
2812.07910,0.09754
2810.15038,0.09652
2808.22166,0.09556
2806.29293,0.09468
2804.36421,0.09374
2802.43549,0.09269
2800.50676,0.09165
2798.57804,0.09069
2796.64931,0.08975
2794.72059,0.08885
2792.79187,0.08805
2790.86314,0.08729
2788.93442,0.08650
2787.00570,0.08567
2785.07697,0.08482
2783.14825,0.08395
2781.21953,0.08310
2779.29080,0.08232
2777.36208,0.08169
2775.43335,0.08105
2773.50463,0.08026
2771.57591,0.07942
2769.64718,0.07867
2767.71846,0.07796
2765.78974,0.07717
2763.86101,0.07636
2761.93229,0.07561
2760.00356,0.07489
2758.07484,0.07412
2756.14612,0.07333
2754.21739,0.07260
2752.28867,0.07195
2750.35995,0.07130
2748.43122,0.07061
2746.50250,0.06999
2744.57378,0.06941
2742.64505,0.06876
2740.71633,0.06804
2738.78760,0.06731
2736.85888,0.06658
2734.93016,0.06597
2733.00143,0.06550
2731.07271,0.06496
2729.14399,0.06428
2727.21526,0.06362
2725.28654,0.06305
2723.35782,0.06246
2721.42909,0.06173
2719.50037,0.06089
2717.57164,0.06014
2715.64292,0.05954
2713.71420,0.05900
2711.78547,0.05842
2709.85675,0.05777
2707.92803,0.05712
2705.99930,0.05650
2704.07058,0.05590
2702.14185,0.05530
2700.21313,0.05469
2698.28441,0.05405
2696.35568,0.05342
2694.42696,0.05286
2692.49824,0.05235
2690.56951,0.05183
2688.64079,0.05132
2686.71207,0.05081
2684.78334,0.05023
2682.85462,0.04965
2680.92589,0.04918
2678.99717,0.04875
2677.06845,0.04820
2675.13972,0.04753
2673.21100,0.04689
2671.28228,0.04630
2669.35355,0.04572
2667.42483,0.04521
2665.49611,0.04479
2663.56738,0.04433
2661.63866,0.04383
2659.70993,0.04331
2657.78121,0.04275
2655.85249,0.04218
2653.92376,0.04171
2651.99504,0.04128
2650.06632,0.04078
2648.13759,0.04021
2646.20887,0.03963
2644.28014,0.03909
2642.35142,0.03857
2640.42270,0.03815
2638.49397,0.03779
2636.56525,0.03738
2634.63653,0.03692
2632.70780,0.03646
2630.77908,0.03600
2628.85036,0.03555
2626.92163,0.03513
2624.99291,0.03468
2623.06418,0.03418
2621.13546,0.03368
2619.20674,0.03325
2617.27801,0.03287
2615.34929,0.03246
2613.42057,0.03202
2611.49184,0.03164
2609.56312,0.03129
2607.63440,0.03089
2605.70567,0.03049
2603.77695,0.03007
2601.84822,0.02963
2599.91950,0.02917
2597.99078,0.02879
2596.06205,0.02850
2594.13333,0.02814
2592.20461,0.02768
2590.27588,0.02728
2588.34716,0.02693
2586.41843,0.02655
2584.48971,0.02613
2582.56099,0.02573
2580.63226,0.02535
2578.70354,0.02493
2576.77482,0.02451
2574.84609,0.02419
2572.91737,0.02399
2570.98865,0.02379
2569.05992,0.02351
2567.13120,0.02325
2565.20247,0.02298
2563.27375,0.02265
2561.34503,0.02236
2559.41630,0.02213
2557.48758,0.02179
2555.55886,0.02142
2553.63013,0.02117
2551.70141,0.02098
2549.77269,0.02070
2547.84396,0.02036
2545.91524,0.02006
2543.98651,0.01984
2542.05779,0.01964
2540.12907,0.01945
2538.20034,0.01915
2536.27162,0.01876
2534.34290,0.01843
2532.41417,0.01822
2530.48545,0.01804
2528.55673,0.01785
2526.62800,0.01759
2524.69928,0.01726
2522.77055,0.01700
2520.84183,0.01679
2518.91311,0.01654
2516.98438,0.01627
2515.05566,0.01603
2513.12694,0.01575
2511.19821,0.01545
2509.26949,0.01527
2507.34076,0.01516
2505.41204,0.01499
2503.48332,0.01480
2501.55459,0.01463
2499.62587,0.01438
2497.69715,0.01403
2495.76842,0.01368
2493.83970,0.01342
2491.91098,0.01324
2489.98225,0.01303
2488.05353,0.01274
2486.12480,0.01243
2484.19608,0.01219
2482.26736,0.01205
2480.33863,0.01192
2478.40991,0.01166
2476.48119,0.01133
2474.55246,0.01105
2472.62374,0.01082
2470.69502,0.01062
2468.76629,0.01045
2466.83757,0.01022
2464.90884,0.00992
2462.98012,0.00964
2461.05140,0.00944
2459.12267,0.00930
2457.19395,0.00916
2455.26523,0.00897
2453.33650,0.00872
2451.40778,0.00845
2449.47905,0.00823
2447.55033,0.00811
2445.62161,0.00805
2443.69288,0.00793
2441.76416,0.00773
2439.83544,0.00752
2437.90671,0.00730
2435.97799,0.00706
2434.04927,0.00685
2432.12054,0.00675
2430.19182,0.00672
2428.26309,0.00662
2426.33437,0.00636
2424.40565,0.00612
2422.47692,0.00598
2420.54820,0.00586
2418.61948,0.00571
2416.69075,0.00556
2414.76203,0.00541
2412.83331,0.00524
2410.90458,0.00505
2408.97586,0.00492
2407.04713,0.00486
2405.11841,0.00479
2403.18969,0.00466
2401.26096,0.00447
2399.33224,0.00421
2397.40352,0.00397
2395.47479,0.00381
2393.54607,0.00371
2391.61734,0.00359
2389.68862,0.00347
2387.75990,0.00337
2385.83117,0.00332
2383.90245,0.00331
2381.97373,0.00339
2380.04500,0.00351
2378.11628,0.00360
2376.18756,0.00364
2374.25883,0.00371
2372.33011,0.00383
2370.40138,0.00396
2368.47266,0.00406
2366.54394,0.00414
2364.61521,0.00417
2362.68649,0.00404
2360.75777,0.00375
2358.82904,0.00340
2356.90032,0.00307
2354.97160,0.00270
2353.04287,0.00234
2351.11415,0.00223
2349.18542,0.00249
2347.25670,0.00280
2345.32798,0.00284
2343.39925,0.00266
2341.47053,0.00246
2339.54181,0.00226
2337.61308,0.00211
2335.68436,0.00202
2333.75563,0.00196
2331.82691,0.00187
2329.89819,0.00180
2327.96946,0.00177
2326.04074,0.00176
2324.11202,0.00173
2322.18329,0.00160
2320.25457,0.00138
2318.32585,0.00120
2316.39712,0.00114
2314.46840,0.00113
2312.53967,0.00107
2310.61095,0.00098
2308.68223,0.00091
2306.75350,0.00086
2304.82478,0.00077
2302.89606,0.00068
2300.96733,0.00064
2299.03861,0.00063
2297.10989,0.00063
2295.18116,0.00061
2293.25244,0.00055
2291.32371,0.00051
2289.39499,0.00052
2287.46627,0.00047
2285.53754,0.00034
2283.60882,0.00021
2281.68010,0.00011
2279.75137,0.00005
2277.82265,0.00004
2275.89392,0.00009
2273.96520,0.00016
2272.03648,0.00020
2270.10775,0.00022
2268.17903,0.00021
2266.25031,0.00014
2264.32158,0.00003
2262.39286,0.00000
2260.46414,0.00009
2258.53541,0.00017
2256.60669,0.00016
2254.67796,0.00015
2252.74924,0.00014
2250.82052,0.00012
2248.89179,0.00007
2246.96307,0.00002
2245.03435,-0.00002
2243.10562,-0.00010
2241.17690,-0.00015
2239.24818,-0.00011
2237.31945,-0.00011
2235.39073,-0.00019
2233.46200,-0.00023
2231.53328,-0.00015
2229.60456,-0.00002
2227.67583,0.00007
2225.74711,0.00003
2223.81839,-0.00006
2221.88966,-0.00009
2219.96094,-0.00006
2218.03221,-0.00000
2216.10349,0.00002
2214.17477,0.00000
2212.24604,-0.00002
2210.31732,-0.00005
2208.38860,-0.00006
2206.45987,0.00000
2204.53115,0.00003
2202.60243,-0.00001
2200.67370,-0.00014
2198.74498,-0.00027
2196.81625,-0.00029
2194.88753,-0.00025
2192.95881,-0.00019
2191.03008,-0.00010
2189.10136,-0.00005
2187.17264,-0.00010
2185.24391,-0.00013
2183.31519,-0.00005
2181.38647,0.00003
2179.45774,0.00001
2177.52902,-0.00011
2175.60029,-0.00017
2173.67157,-0.00007
2171.74285,0.00008
2169.81412,0.00014
2167.88540,0.00009
2165.95668,0.00002
2164.02795,-0.00002
2162.09923,0.00002
2160.17050,0.00013
2158.24178,0.00023
2156.31306,0.00030
2154.38433,0.00029
2152.45561,0.00020
2150.52689,0.00014
2148.59816,0.00020
2146.66944,0.00029
2144.74072,0.00033
2142.81199,0.00036
2140.88327,0.00041
2138.95454,0.00038
2137.02582,0.00028
2135.09710,0.00026
2133.16837,0.00029
2131.23965,0.00024
2129.31093,0.00018
2127.38220,0.00019
2125.45348,0.00025
2123.52476,0.00029
2121.59603,0.00024
2119.66731,0.00015
2117.73858,0.00010
2115.80986,0.00008
2113.88114,0.00004
2111.95241,-0.00002
2110.02369,-0.00005
2108.09497,-0.00001
2106.16624,0.00003
2104.23752,-0.00001
2102.30880,-0.00008
2100.38007,-0.00008
2098.45135,-0.00003
2096.52262,0.00002
2094.59390,0.00000
2092.66518,-0.00010
2090.73645,-0.00019
2088.80773,-0.00023
2086.87901,-0.00026
2084.95028,-0.00032
2083.02156,-0.00040
2081.09283,-0.00048
2079.16411,-0.00053
2077.23539,-0.00052
2075.30666,-0.00046
2073.37794,-0.00039
2071.44922,-0.00033
2069.52049,-0.00031
2067.59177,-0.00035
2065.66305,-0.00038
2063.73432,-0.00036
2061.80560,-0.00032
2059.87687,-0.00027
2057.94815,-0.00012
2056.01943,0.00006
2054.09070,0.00015
2052.16198,0.00017
2050.23326,0.00025
2048.30453,0.00042
2046.37581,0.00059
2044.44709,0.00075
2042.51836,0.00095
2040.58964,0.00119
2038.66091,0.00141
2036.73219,0.00161
2034.80347,0.00183
2032.87474,0.00208
2030.94602,0.00235
2029.01730,0.00261
2027.08857,0.00283
2025.15985,0.00301
2023.23112,0.00320
2021.30240,0.00342
2019.37368,0.00362
2017.44495,0.00376
2015.51623,0.00387
2013.58751,0.00399
2011.65878,0.00412
2009.73006,0.00428
2007.80134,0.00440
2005.87261,0.00446
2003.94389,0.00453
2002.01516,0.00458
2000.08644,0.00457
1998.15772,0.00456
1996.22899,0.00459
1994.30027,0.00461
1992.37155,0.00448
1990.44282,0.00426
1988.51410,0.00415
1986.58538,0.00420
1984.65665,0.00428
1982.72793,0.00428
1980.79920,0.00414
1978.87048,0.00392
1976.94176,0.00373
1975.01303,0.00361
1973.08431,0.00348
1971.15559,0.00337
1969.22686,0.00328
1967.29814,0.00308
1965.36941,0.00275
1963.44069,0.00247
1961.51197,0.00223
1959.58324,0.00198
1957.65452,0.00179
1955.72580,0.00170
1953.79707,0.00160
1951.86835,0.00145
1949.93963,0.00132
1948.01090,0.00123
1946.08218,0.00108
1944.15345,0.00086
1942.22473,0.00058
1940.29601,0.00035
1938.36728,0.00022
1936.43856,0.00013
1934.50984,0.00005
1932.58111,-0.00001
1930.65239,-0.00003
1928.72367,-0.00004
1926.79494,0.00000
1924.86622,0.00008
1922.93749,0.00026
1921.00877,0.00052
1919.08005,0.00075
1917.15132,0.00086
1915.22260,0.00103
1913.29388,0.00142
1911.36515,0.00191
1909.43643,0.00234
1907.50770,0.00268
1905.57898,0.00309
1903.65026,0.00363
1901.72153,0.00427
1899.79281,0.00494
1897.86409,0.00559
1895.93536,0.00621
1894.00664,0.00680
1892.07792,0.00735
1890.14919,0.00775
1888.22047,0.00802
1886.29174,0.00833
1884.36302,0.00870
1882.43430,0.00906
1880.50557,0.00935
1878.57685,0.00956
1876.64813,0.00964
1874.71940,0.00963
1872.79068,0.00968
1870.86196,0.00973
1868.93323,0.00955
1867.00451,0.00918
1865.07578,0.00881
1863.14706,0.00844
1861.21834,0.00798
1859.28961,0.00745
1857.36089,0.00687
1855.43217,0.00625
1853.50344,0.00565
1851.57472,0.00509
1849.64599,0.00460
1847.71727,0.00416
1845.78855,0.00359
1843.85982,0.00281
1841.93110,0.00209
1840.00238,0.00168
1838.07365,0.00140
1836.14493,0.00111
1834.21621,0.00091
1832.28748,0.00082
1830.35876,0.00062
1828.43003,0.00031
1826.50131,0.00007
1824.57259,-0.00008
1822.64386,-0.00014
1820.71514,-0.00010
1818.78642,-0.00004
1816.85769,-0.00003
1814.92897,0.00000
1813.00025,-0.00014
1811.07152,-0.00019
1809.14280,-0.00015
1807.21407,-0.00006
1805.28535,0.00007
1803.35663,0.00023
1801.42790,0.00039
1799.49918,0.00056
1797.57046,0.00091
1795.64173,0.00150
1793.71301,0.00211
1791.78428,0.00258
1789.85556,0.00303
1787.92684,0.00366
1785.99811,0.00441
1784.06939,0.00516
1782.14067,0.00593
1780.21194,0.00678
1778.28322,0.00777
1776.35450,0.00887
1774.42577,0.00997
1772.49705,0.01097
1770.56832,0.01187
1768.63960,0.01281
1766.71088,0.01384
1764.78215,0.01490
1762.85343,0.01593
1760.92471,0.01695
1758.99598,0.01804
1757.06726,0.01926
1755.13854,0.02055
1753.20981,0.02192
1751.28109,0.02345
1749.35236,0.02510
1747.42364,0.02684
1745.49492,0.02871
1743.56619,0.03076
1741.63747,0.03297
1739.70875,0.03529
1737.78002,0.03758
1735.85130,0.03988
1733.92257,0.04229
1731.99385,0.04451
1730.06513,0.04646
1728.13640,0.04840
1726.20768,0.05042
1724.27896,0.05250
1722.35023,0.05458
1720.42151,0.05672
1718.49279,0.05901
1716.56406,0.06134
1714.63534,0.06350
1712.70661,0.06557
1710.77789,0.06768
1708.84917,0.06987
1706.92044,0.07227
1704.99172,0.07488
1703.06300,0.07756
1701.13427,0.08063
1699.20555,0.08424
1697.27683,0.08801
1695.34810,0.09188
1693.41938,0.09556
1691.49065,0.09902
1689.56193,0.10263
1687.63321,0.10630
1685.70448,0.11024
1683.77576,0.11484
1681.84704,0.11928
1679.91831,0.12303
1677.98959,0.12655
1676.06087,0.13036
1674.13214,0.13435
1672.20342,0.13806
1670.27469,0.14174
1668.34597,0.14545
1666.41725,0.14864
1664.48852,0.15144
1662.55980,0.15431
1660.63108,0.15711
1658.70235,0.15950
1656.77363,0.16142
1654.84490,0.16322
1652.91618,0.16515
1650.98746,0.16676
1649.05873,0.16782
1647.13001,0.16863
1645.20129,0.16948
1643.27256,0.17035
1641.34384,0.17111
1639.41512,0.17163
1637.48639,0.17180
1635.55767,0.17167
1633.62894,0.17156
1631.70022,0.17145
1629.77150,0.17091
1627.84277,0.16973
1625.91405,0.16817
1623.98533,0.16623
1622.05660,0.16404
1620.12788,0.16193
1618.19916,0.15937
1616.27043,0.15579
1614.34171,0.15224
1612.41298,0.14943
1610.48426,0.14674
1608.55554,0.14370
1606.62681,0.14039
1604.69809,0.13708
1602.76937,0.13392
1600.84064,0.13091
1598.91192,0.12806
1596.98319,0.12533
1595.05447,0.12261
1593.12575,0.11990
1591.19702,0.11733
1589.26830,0.11491
1587.33958,0.11262
1585.41085,0.11041
1583.48213,0.10827
1581.55341,0.10633
1579.62468,0.10465
1577.69596,0.10278
1575.76723,0.10057
1573.83851,0.09884
1571.90979,0.09768
1569.98106,0.09631
1568.05234,0.09479
1566.12362,0.09372
1564.19489,0.09309
1562.26617,0.09268
1560.33745,0.09182
1558.40872,0.09007
1556.48000,0.08863
1554.55127,0.08791
1552.62255,0.08721
1550.69383,0.08618
1548.76510,0.08503
1546.83638,0.08402
1544.90766,0.08306
1542.97893,0.08167
1541.05021,0.07924
1539.12148,0.07632
1537.19276,0.07456
1535.26404,0.07340
1533.33531,0.07153
1531.40659,0.06926
1529.47787,0.06732
1527.54914,0.06531
1525.62042,0.06292
1523.69170,0.06045
1521.76297,0.05791
1519.83425,0.05541
1517.90552,0.05319
1515.97680,0.05102
1514.04808,0.04891
1512.11935,0.04706
1510.19063,0.04521
1508.26191,0.04227
1506.33318,0.03776
1504.40446,0.03408
1502.47574,0.03204
1500.54701,0.03032
1498.61829,0.02810
1496.68956,0.02566
1494.76084,0.02371
1492.83212,0.02246
1490.90339,0.02148
1488.97467,0.02054
1487.04595,0.02003
1485.11722,0.02012
1483.18850,0.02063
1481.25977,0.02145
1479.33105,0.02258
1477.40233,0.02407
1475.47360,0.02606
1473.54488,0.02889
1471.61616,0.03252
1469.68743,0.03588
1467.75871,0.03838
1465.82999,0.04015
1463.90126,0.04144
1461.97254,0.04253
1460.04381,0.04353
1458.11509,0.04422
1456.18637,0.04443
1454.25764,0.04452
1452.32892,0.04480
1450.40020,0.04515
1448.47147,0.04544
1446.54275,0.04564
1444.61403,0.04581
1442.68530,0.04600
1440.75658,0.04628
1438.82785,0.04671
1436.89913,0.04720
1434.97041,0.04767
1433.04168,0.04820
1431.11296,0.04884
1429.18424,0.04958
1427.25551,0.05042
1425.32679,0.05130
1423.39806,0.05215
1421.46934,0.05302
1419.54062,0.05404
1417.61189,0.05525
1415.68317,0.05653
1413.75445,0.05783
1411.82572,0.05926
1409.89700,0.06089
1407.96828,0.06264
1406.03955,0.06429
1404.11083,0.06560
1402.18210,0.06627
1400.25338,0.06600
1398.32466,0.06456
1396.39593,0.06210
1394.46721,0.05910
1392.53849,0.05621
1390.60976,0.05376
1388.68104,0.05156
1386.75232,0.04954
1384.82359,0.04789
1382.89487,0.04654
1380.96614,0.04521
1379.03742,0.04381
1377.10870,0.04225
1375.17997,0.04043
1373.25125,0.03855
1371.32253,0.03692
1369.39380,0.03544
1367.46508,0.03396
1365.53635,0.03248
1363.60763,0.03089
1361.67891,0.02917
1359.75018,0.02775
1357.82146,0.02673
1355.89274,0.02585
1353.96401,0.02495
1352.03529,0.02409
1350.10657,0.02335
1348.17784,0.02269
1346.24912,0.02209
1344.32039,0.02154
1342.39167,0.02100
1340.46295,0.02042
1338.53422,0.01989
1336.60550,0.01948
1334.67678,0.01913
1332.74805,0.01878
1330.81933,0.01851
1328.89061,0.01836
1326.96188,0.01828
1325.03316,0.01825
1323.10443,0.01831
1321.17571,0.01849
1319.24699,0.01867
1317.31826,0.01876
1315.38954,0.01875
1313.46082,0.01872
1311.53209,0.01871
1309.60337,0.01873
1307.67464,0.01868
1305.74592,0.01847
1303.81720,0.01812
1301.88847,0.01794
1299.95975,0.01837
1298.03103,0.01939
1296.10230,0.02073
1294.17358,0.02239
1292.24486,0.02435
1290.31613,0.02652
1288.38741,0.02896
1286.45868,0.03177
1284.52996,0.03493
1282.60124,0.03833
1280.67251,0.04186
1278.74379,0.04555
1276.81507,0.04947
1274.88634,0.05366
1272.95762,0.05827
1271.02890,0.06346
1269.10017,0.06931
1267.17145,0.07577
1265.24272,0.08278
1263.31400,0.09039
1261.38528,0.09894
1259.45655,0.10863
1257.52783,0.11929
1255.59911,0.13054
1253.67038,0.14205
1251.74166,0.15366
1249.81294,0.16522
1247.88421,0.17644
1245.95549,0.18698
1244.02676,0.19668
1242.09804,0.20557
1240.16932,0.21370
1238.24059,0.22104
1236.31187,0.22759
1234.38315,0.23354
1232.45442,0.23896
1230.52570,0.24384
1228.59697,0.24826
1226.66825,0.25236
1224.73953,0.25621
1222.81080,0.25970
1220.88208,0.26279
1218.95336,0.26566
1217.02463,0.26825
1215.09591,0.27055
1213.16719,0.27295
1211.23846,0.27562
1209.30974,0.27820
1207.38101,0.28057
1205.45229,0.28295
1203.52357,0.28520
1201.59484,0.28707
1199.66612,0.28860
1197.73740,0.28980
1195.80867,0.29062
1193.87995,0.29140
1191.95123,0.29250
1190.02250,0.29423
1188.09378,0.29661
1186.16505,0.29898
1184.23633,0.30102
1182.30761,0.30328
1180.37888,0.30616
1178.45016,0.30924
1176.52144,0.31211
1174.59271,0.31495
1172.66399,0.31770
1170.73526,0.32000
1168.80654,0.32214
1166.87782,0.32453
1164.94909,0.32700
1163.02037,0.32922
1161.09165,0.33128
1159.16292,0.33336
1157.23420,0.33520
1155.30548,0.33678
1153.37675,0.33863
1151.44803,0.34068
1149.51930,0.34269
1147.59058,0.34482
1145.66186,0.34684
1143.73313,0.34892
1141.80441,0.35158
1139.87569,0.35450
1137.94696,0.35703
1136.01824,0.35910
1134.08952,0.36120
1132.16079,0.36367
1130.23207,0.36651
1128.30334,0.36975
1126.37462,0.37331
1124.44590,0.37709
1122.51717,0.38131
1120.58845,0.38621
1118.65973,0.39155
1116.73100,0.39686
1114.80228,0.40211
1112.87355,0.40803
1110.94483,0.41495
1109.01611,0.42214
1107.08738,0.42904
1105.15866,0.43553
1103.22994,0.44125
1101.30121,0.44600
1099.37249,0.45015
1097.44377,0.45362
1095.51504,0.45605
1093.58632,0.45796
1091.65759,0.45957
1089.72887,0.46028
1087.80015,0.46009
1085.87142,0.45935
1083.94270,0.45830
1082.01398,0.45689
1080.08525,0.45469
1078.15653,0.45204
1076.22781,0.44963
1074.29908,0.44693
1072.37036,0.44366
1070.44163,0.44013
1068.51291,0.43613
1066.58419,0.43166
1064.65546,0.42720
1062.72674,0.42263
1060.79802,0.41726
1058.86929,0.41107
1056.94057,0.40476
1055.01184,0.39865
1053.08312,0.39223
1051.15440,0.38527
1049.22567,0.37847
1047.29695,0.37203
1045.36823,0.36537
1043.43950,0.35807
1041.51078,0.35042
1039.58206,0.34298
1037.65333,0.33580
1035.72461,0.32844
1033.79588,0.32067
1031.86716,0.31291
1029.93844,0.30562
1028.00971,0.29857
1026.08099,0.29138
1024.15227,0.28435
1022.22354,0.27805
1020.29482,0.27213
1018.36610,0.26601
1016.43737,0.25983
1014.50865,0.25411
1012.57992,0.24893
1010.65120,0.24361
1008.72248,0.23781
1006.79375,0.23200
1004.86503,0.22666
1002.93631,0.22194
1001.00758,0.21773
999.07886,0.21354
997.15013,0.20895
995.22141,0.20418
993.29269,0.19989
991.36396,0.19617
989.43524,0.19257
987.50652,0.18882
985.57779,0.18522
983.64907,0.18214
981.72035,0.17962
979.79162,0.17743
977.86290,0.17524
975.93417,0.17308
974.00545,0.17141
972.07673,0.17032
970.14800,0.16929
968.21928,0.16819
966.29056,0.16747
964.36183,0.16708
962.43311,0.16661
960.50439,0.16603
958.57566,0.16534
956.64694,0.16434
954.71821,0.16325
952.78949,0.16219
950.86077,0.16101
948.93204,0.15975
947.00332,0.15819
945.07460,0.15631
943.14587,0.15444
941.21715,0.15254
939.28842,0.15046
937.35970,0.14809
935.43098,0.14539
933.50225,0.14270
931.57353,0.14012
929.64481,0.13735
927.71608,0.13434
925.78736,0.13124
923.85864,0.12795
921.92991,0.12453
920.00119,0.12133
918.07246,0.11831
916.14374,0.11508
914.21502,0.11125
912.28629,0.10705
910.35757,0.10304
908.42885,0.09928
906.50012,0.09559
904.57140,0.09190
902.64268,0.08800
900.71395,0.08395
898.78523,0.08004
896.85650,0.07636
894.92778,0.07275
892.99906,0.06936
891.07033,0.06624
889.14161,0.06297
887.21289,0.05939
885.28416,0.05602
883.35544,0.05324
881.42671,0.05079
879.49799,0.04839
877.56927,0.04580
875.64054,0.04287
873.71182,0.04009
871.78310,0.03785
869.85437,0.03586
867.92565,0.03387
865.99693,0.03192
864.06820,0.02993
862.13948,0.02770
860.21075,0.02543
858.28203,0.02343
856.35331,0.02175
854.42458,0.02041
852.49586,0.01938
850.56714,0.01876
848.63841,0.01900
846.70969,0.02023
844.78097,0.02169
842.85224,0.02305
840.92352,0.02490
838.99479,0.02751
837.06607,0.03063
835.13735,0.03403
833.20862,0.03761
831.27990,0.04125
829.35118,0.04472
827.42245,0.04820
825.49373,0.05202
823.56501,0.05588
821.63628,0.05936
819.70756,0.06247
817.77883,0.06531
815.85011,0.06809
813.92139,0.07123
811.99266,0.07446
810.06394,0.07728
808.13522,0.07994
806.20649,0.08258
804.27777,0.08471
802.34904,0.08612
800.42032,0.08717
798.49160,0.08796
796.56287,0.08810
794.63415,0.08741
792.70543,0.08617
790.77670,0.08449
788.84798,0.08232
786.91926,0.07985
784.99053,0.07715
783.06181,0.07428
781.13308,0.07122
779.20436,0.06766
777.27564,0.06357
775.34691,0.05945
773.41819,0.05573
771.48947,0.05232
769.56074,0.04919
767.63202,0.04668
765.70330,0.04506
763.77457,0.04411
761.84585,0.04336
759.91712,0.04270
757.98840,0.04228
756.05968,0.04188
754.13095,0.04147
752.20223,0.04133
750.27351,0.04121
748.34478,0.04069
746.41606,0.03997
744.48733,0.03931
742.55861,0.03878
740.62989,0.03871
738.70116,0.03909
736.77244,0.03933
734.84372,0.03929
732.91499,0.03952
730.98627,0.04034
729.05755,0.04122
727.12882,0.04142
725.20010,0.04092
723.27137,0.04041
721.34265,0.04037
719.41393,0.04083
717.48520,0.04137
715.55648,0.04168
713.62776,0.04197
711.69903,0.04269
709.77031,0.04371
707.84159,0.04459
705.91286,0.04536
703.98414,0.04633
702.05541,0.04754
700.12669,0.04879
698.19797,0.04967
696.26924,0.05011
694.34052,0.05055
692.41180,0.05086
690.48307,0.05056
688.55435,0.04995
686.62562,0.04980
684.69690,0.05029
682.76818,0.05102
680.83945,0.05142
678.91073,0.05143
676.98201,0.05145
675.05328,0.05157
673.12456,0.05149
671.19584,0.05115
669.26711,0.05091
667.33839,0.05118
665.40966,0.05188
663.48094,0.05274
661.55222,0.05363
659.62349,0.05440
657.69477,0.05482
655.76605,0.05520
653.83732,0.05634
651.90860,0.05806
649.97988,0.05950
648.05115,0.06073
646.12243,0.06220
644.19370,0.06367
642.26498,0.06496
640.33626,0.06620
638.40753,0.06728
636.47881,0.06825
634.55009,0.06931
632.62136,0.07046
630.69264,0.07158
628.76391,0.07246
626.83519,0.07282
624.90647,0.07296
622.97774,0.07346
621.04902,0.07422
619.12030,0.07518
617.19157,0.07698
615.26285,0.07985
613.33413,0.08246
611.40540,0.08343
609.47668,0.08309
607.54795,0.08319
605.61923,0.08497
603.69051,0.08750
601.76178,0.08964
599.83306,0.09167
597.90434,0.09352
595.97561,0.09466
594.04689,0.09543
592.11817,0.09640
590.18944,0.09776
588.26072,0.09946
586.33199,0.10113
584.40327,0.10220
582.47455,0.10297
580.54582,0.10409
578.61710,0.10487
576.68838,0.10448
574.75965,0.10361
572.83093,0.10355
570.90220,0.10489
568.97348,0.10718
567.04476,0.10908
565.11603,0.10960
563.18731,0.10897
561.25859,0.10855
559.32986,0.10919
557.40114,0.11010
555.47242,0.11092
553.54369,0.11204
551.61497,0.11283
549.68624,0.11292
547.75752,0.11324
545.82880,0.11426
543.90007,0.11504
541.97135,0.11498
540.04263,0.11474
538.11390,0.11437
536.18518,0.11328
534.25646,0.11217
532.32773,0.11204
530.39901,0.11243
528.47028,0.11260
526.54156,0.11233
524.61284,0.11111
522.68411,0.10913
520.75539,0.10812
518.82667,0.10944
516.89794,0.11350
514.96922,0.11929
513.04049,0.12389
511.11177,0.12552
509.18305,0.12583
507.25432,0.12764
505.32560,0.13151
503.39688,0.13584
501.46815,0.13994
499.53943,0.14509
497.61071,0.15262
495.68198,0.16154
493.75326,0.16976
491.82453,0.17726
489.89581,0.18472
487.96709,0.19241
486.03836,0.20164
484.10964,0.21270
482.18092,0.22332
480.25219,0.23137
478.32347,0.23675
476.39475,0.24168
474.46602,0.24869
472.53730,0.25672
470.60857,0.26232
468.67985,0.26505
466.75113,0.26621
464.82240,0.26609
462.89368,0.26386
460.96496,0.25780
459.03623,0.24897
457.10751,0.24315
455.17878,0.24200
453.25006,0.23860
451.32134,0.22971
449.39261,0.21981
447.46389,0.21216
445.53517,0.20661
443.60644,0.20346
441.67772,0.20272
439.74900,0.20164
437.82027,0.19641
435.89155,0.18641
433.96282,0.17478
432.03410,0.16396
430.10538,0.15310
428.17665,0.14122
426.24793,0.13044
424.31921,0.12354
422.39048,0.11951
420.46176,0.11654
418.53304,0.11744
416.60431,0.12347
414.67559,0.12698
412.74686,0.12197
410.81814,0.11109
408.88942,0.09952
406.96069,0.08990
405.03197,0.08399
403.10325,0.08090
401.17452,0.07618
399.24580,0.06523
397.31708,0.05098
395.38835,0.04734
393.45963,0.05832
391.53090,0.06782
389.60218,0.06235
387.67346,0.05028
385.74473,0.04314
383.81601,0.03453
381.88729,0.01957
379.95856,0.00620
378.02984,0.00000
376.10111,0.00743
374.17239,0.03735
372.24367,0.05557
370.31494,0.04041
368.38622,0.00000
