3996.31543,0.00018
3994.38671,0.00027
3992.45799,0.00037
3990.52926,0.00033
3988.60054,0.00019
3986.67182,0.00008
3984.74309,0.00000
3982.81437,0.00000
3980.88564,0.00015
3978.95692,0.00040
3977.02820,0.00064
3975.09947,0.00079
3973.17075,0.00083
3971.24203,0.00078
3969.31330,0.00070
3967.38458,0.00070
3965.45586,0.00079
3963.52713,0.00091
3961.59841,0.00098
3959.66968,0.00100
3957.74096,0.00093
3955.81224,0.00076
3953.88351,0.00065
3951.95479,0.00072
3950.02607,0.00086
3948.09734,0.00096
3946.16862,0.00100
3944.23990,0.00101
3942.31117,0.00099
3940.38245,0.00087
3938.45372,0.00069
3936.52500,0.00058
3934.59628,0.00064
3932.66755,0.00081
3930.73883,0.00090
3928.81011,0.00093
3926.88138,0.00106
3924.95266,0.00120
3923.02393,0.00108
3921.09521,0.00079
3919.16649,0.00063
3917.23776,0.00065
3915.30904,0.00062
3913.38032,0.00041
3911.45159,0.00016
3909.52287,0.00008
3907.59415,0.00018
3905.66542,0.00032
3903.73670,0.00047
3901.80797,0.00068
3899.87925,0.00087
3897.95053,0.00083
3896.02180,0.00060
3894.09308,0.00045
3892.16436,0.00048
3890.23563,0.00050
3888.30691,0.00041
3886.37819,0.00035
3884.44946,0.00035
3882.52074,0.00036
3880.59201,0.00043
3878.66329,0.00046
3876.73457,0.00047
3874.80584,0.00064
3872.87712,0.00095
3870.94840,0.00121
3869.01967,0.00118
3867.09095,0.00089
3865.16222,0.00069
3863.23350,0.00071
3861.30478,0.00065
3859.37605,0.00034
3857.44733,0.00000
3855.51861,0.00011
3853.58988,0.00099
3851.66116,0.00166
3849.73244,0.00126
3847.80371,0.00040
3845.87499,-0.00010
3843.94626,0.00001
3842.01754,0.00040
3840.08882,0.00067
3838.16009,0.00084
3836.23137,0.00104
3834.30265,0.00118
3832.37392,0.00112
3830.44520,0.00079
3828.51648,0.00036
3826.58775,0.00007
3824.65903,0.00007
3822.73030,0.00050
3820.80158,0.00119
3818.87286,0.00152
3816.94413,0.00140
3815.01541,0.00123
3813.08669,0.00109
3811.15796,0.00091
3809.22924,0.00080
3807.30052,0.00094
3805.37179,0.00131
3803.44307,0.00176
3801.51434,0.00210
3799.58562,0.00210
3797.65690,0.00194
3795.72817,0.00192
3793.79945,0.00195
3791.87073,0.00197
3789.94200,0.00214
3788.01328,0.00247
3786.08455,0.00284
3784.15583,0.00308
3782.22711,0.00321
3780.29838,0.00342
3778.36966,0.00366
3776.44094,0.00374
3774.51221,0.00379
3772.58349,0.00405
3770.65477,0.00450
3768.72604,0.00501
3766.79732,0.00556
3764.86859,0.00610
3762.93987,0.00653
3761.01115,0.00694
3759.08242,0.00754
3757.15370,0.00814
3755.22498,0.00861
3753.29625,0.00938
3751.36753,0.01072
3749.43881,0.01192
3747.51008,0.01251
3745.58136,0.01316
3743.65263,0.01418
3741.72391,0.01499
3739.79519,0.01553
3737.86646,0.01644
3735.93774,0.01823
3734.00902,0.02037
3732.08029,0.02194
3730.15157,0.02292
3728.22284,0.02406
3726.29412,0.02581
3724.36540,0.02803
3722.43667,0.03039
3720.50795,0.03274
3718.57923,0.03505
3716.65050,0.03739
3714.72178,0.04006
3712.79306,0.04351
3710.86433,0.04761
3708.93561,0.05125
3707.00688,0.05403
3705.07816,0.05662
3703.14944,0.05988
3701.22071,0.06402
3699.29199,0.06818
3697.36327,0.07173
3695.43454,0.07487
3693.50582,0.07802
3691.57710,0.08183
3689.64837,0.08668
3687.71965,0.09162
3685.79092,0.09561
3683.86220,0.09895
3681.93348,0.10234
3680.00475,0.10605
3678.07603,0.11036
3676.14731,0.11593
3674.21858,0.12176
3672.28986,0.12619
3670.36113,0.13040
3668.43241,0.13511
3666.50369,0.13918
3664.57496,0.14268
3662.64624,0.14623
3660.71752,0.14976
3658.78879,0.15330
3656.86007,0.15713
3654.93135,0.16081
3653.00262,0.16380
3651.07390,0.16721
3649.14517,0.17206
3647.21645,0.17671
3645.28773,0.17956
3643.35900,0.18145
3641.43028,0.18362
3639.50156,0.18632
3637.57283,0.18914
3635.64411,0.19178
3633.71539,0.19406
3631.78666,0.19608
3629.85794,0.19875
3627.92921,0.20239
3626.00049,0.20539
3624.07177,0.20721
3622.14304,0.20892
3620.21432,0.21124
3618.28560,0.21366
3616.35687,0.21537
3614.42815,0.21670
3612.49942,0.21824
3610.57070,0.22002
3608.64198,0.22194
3606.71325,0.22375
3604.78453,0.22518
3602.85581,0.22648
3600.92708,0.22802
3598.99836,0.22981
3597.06964,0.23164
3595.14091,0.23351
3593.21219,0.23521
3591.28346,0.23654
3589.35474,0.23801
3587.42602,0.24004
3585.49729,0.24200
3583.56857,0.24338
3581.63985,0.24456
3579.71112,0.24581
3577.78240,0.24706
3575.85368,0.24831
3573.92495,0.24954
3571.99623,0.25067
3570.06750,0.25182
3568.13878,0.25327
3566.21006,0.25497
3564.28133,0.25648
3562.35261,0.25766
3560.42389,0.25867
3558.49516,0.25967
3556.56644,0.26078
3554.63771,0.26206
3552.70899,0.26336
3550.78027,0.26440
3548.85154,0.26524
3546.92282,0.26630
3544.99410,0.26771
3543.06537,0.26906
3541.13665,0.27007
3539.20793,0.27090
3537.27920,0.27183
3535.35048,0.27290
3533.42175,0.27389
3531.49303,0.27478
3529.56431,0.27582
3527.63558,0.27698
3525.70686,0.27805
3523.77814,0.27907
3521.84941,0.28007
3519.92069,0.28092
3517.99197,0.28161
3516.06324,0.28229
3514.13452,0.28309
3512.20579,0.28403
3510.27707,0.28495
3508.34835,0.28568
3506.41962,0.28632
3504.49090,0.28718
3502.56218,0.28829
3500.63345,0.28935
3498.70473,0.29021
3496.77600,0.29094
3494.84728,0.29142
3492.91856,0.29167
3490.98983,0.29208
3489.06111,0.29297
3487.13239,0.29406
3485.20366,0.29483
3483.27494,0.29532
3481.34622,0.29599
3479.41749,0.29683
3477.48877,0.29752
3475.56004,0.29811
3473.63132,0.29857
3471.70260,0.29886
3469.77387,0.29922
3467.84515,0.29965
3465.91643,0.30000
3463.98770,0.30045
3462.05898,0.30124
3460.13026,0.30214
3458.20153,0.30285
3456.27281,0.30332
3454.34408,0.30364
3452.41536,0.30399
3450.48664,0.30443
3448.55791,0.30481
3446.62919,0.30509
3444.70047,0.30543
3442.77174,0.30592
3440.84302,0.30639
3438.91429,0.30664
3436.98557,0.30678
3435.05685,0.30711
3433.12812,0.30758
3431.19940,0.30800
3429.27068,0.30831
3427.34195,0.30856
3425.41323,0.30878
3423.48451,0.30901
3421.55578,0.30930
3419.62706,0.30962
3417.69833,0.30970
3415.76961,0.30959
3413.84089,0.30977
3411.91216,0.31021
3409.98344,0.31051
3408.05472,0.31065
3406.12599,0.31081
3404.19727,0.31091
3402.26855,0.31079
3400.33982,0.31066
3398.41110,0.31072
3396.48237,0.31086
3394.55365,0.31088
3392.62493,0.31074
3390.69620,0.31053
3388.76748,0.31044
3386.83876,0.31052
3384.91003,0.31053
3382.98131,0.31033
3381.05259,0.31011
3379.12386,0.30999
3377.19514,0.30992
3375.26641,0.30981
3373.33769,0.30962
3371.40897,0.30934
3369.48024,0.30907
3367.55152,0.30886
3365.62280,0.30864
3363.69407,0.30837
3361.76535,0.30816
3359.83662,0.30803
3357.90790,0.30800
3355.97918,0.30806
3354.05045,0.30799
3352.12173,0.30772
3350.19301,0.30747
3348.26428,0.30742
3346.33556,0.30739
3344.40684,0.30707
3342.47811,0.30645
3340.54939,0.30578
3338.62066,0.30527
3336.69194,0.30485
3334.76322,0.30447
3332.83449,0.30419
3330.90577,0.30392
3328.97705,0.30340
3327.04832,0.30271
3325.11960,0.30220
3323.19088,0.30201
3321.26215,0.30190
3319.33343,0.30163
3317.40470,0.30127
3315.47598,0.30095
3313.54726,0.30070
3311.61853,0.30046
3309.68981,0.30026
3307.76109,0.30012
3305.83236,0.29996
3303.90364,0.29965
3301.97491,0.29924
3300.04619,0.29878
3298.11747,0.29833
3296.18874,0.29795
3294.26002,0.29764
3292.33130,0.29737
3290.40257,0.29710
3288.47385,0.29671
3286.54513,0.29615
3284.61640,0.29559
3282.68768,0.29522
3280.75895,0.29499
3278.83023,0.29462
3276.90151,0.29405
3274.97278,0.29354
3273.04406,0.29325
3271.11534,0.29305
3269.18661,0.29267
3267.25789,0.29203
3265.32917,0.29130
3263.40044,0.29072
3261.47172,0.29026
3259.54299,0.28979
3257.61427,0.28921
3255.68555,0.28851
3253.75682,0.28793
3251.82810,0.28760
3249.89938,0.28738
3247.97065,0.28699
3246.04193,0.28629
3244.11320,0.28551
3242.18448,0.28500
3240.25576,0.28468
3238.32703,0.28435
3236.39831,0.28385
3234.46959,0.28316
3232.54086,0.28239
3230.61214,0.28168
3228.68342,0.28106
3226.75469,0.28045
3224.82597,0.27982
3222.89724,0.27908
3220.96852,0.27818
3219.03980,0.27733
3217.11107,0.27670
3215.18235,0.27623
3213.25363,0.27566
3211.32490,0.27489
3209.39618,0.27411
3207.46746,0.27351
3205.53873,0.27299
3203.61001,0.27237
3201.68128,0.27163
3199.75256,0.27076
3197.82384,0.26980
3195.89511,0.26893
3193.96639,0.26817
3192.03767,0.26737
3190.10894,0.26648
3188.18022,0.26555
3186.25149,0.26468
3184.32277,0.26392
3182.39405,0.26318
3180.46532,0.26236
3178.53660,0.26143
3176.60788,0.26052
3174.67915,0.25967
3172.75043,0.25871
3170.82171,0.25760
3168.89298,0.25650
3166.96426,0.25547
3165.03553,0.25453
3163.10681,0.25368
3161.17809,0.25281
3159.24936,0.25188
3157.32064,0.25102
3155.39192,0.25019
3153.46319,0.24924
3151.53447,0.24810
3149.60575,0.24701
3147.67702,0.24622
3145.74830,0.24566
3143.81957,0.24502
3141.89085,0.24413
3139.96213,0.24309
3138.03340,0.24212
3136.10468,0.24128
3134.17596,0.24042
3132.24723,0.23941
3130.31851,0.23829
3128.38978,0.23729
3126.46106,0.23654
3124.53234,0.23590
3122.60361,0.23506
3120.67489,0.23401
3118.74617,0.23288
3116.81744,0.23175
3114.88872,0.23069
3112.96000,0.22974
3111.03127,0.22883
3109.10255,0.22781
3107.17382,0.22670
3105.24510,0.22568
3103.31638,0.22468
3101.38765,0.22357
3099.45893,0.22240
3097.53021,0.22127
3095.60148,0.22021
3093.67276,0.21926
3091.74404,0.21840
3089.81531,0.21753
3087.88659,0.21654
3085.95786,0.21536
3084.02914,0.21410
3082.10042,0.21290
3080.17169,0.21177
3078.24297,0.21071
3076.31425,0.20969
3074.38552,0.20858
3072.45680,0.20734
3070.52807,0.20618
3068.59935,0.20509
3066.67063,0.20395
3064.74190,0.20279
3062.81318,0.20167
3060.88446,0.20058
3058.95573,0.19957
3057.02701,0.19861
3055.09829,0.19760
3053.16956,0.19658
3051.24084,0.19565
3049.31211,0.19472
3047.38339,0.19375
3045.45467,0.19283
3043.52594,0.19200
3041.59722,0.19119
3039.66850,0.19036
3037.73977,0.18942
3035.81105,0.18836
3033.88233,0.18742
3031.95360,0.18673
3030.02488,0.18604
3028.09615,0.18515
3026.16743,0.18411
3024.23871,0.18304
3022.30998,0.18198
3020.38126,0.18142
3018.45254,0.18214
3016.52381,0.18351
3014.59509,0.18296
3012.66636,0.18015
3010.73764,0.17763
3008.80892,0.17652
3006.88019,0.17600
3004.95147,0.17550
3003.02275,0.17499
3001.09402,0.17452
2999.16530,0.17411
2997.23658,0.17370
2995.30785,0.17318
2993.37913,0.17249
2991.45040,0.17171
2989.52168,0.17096
2987.59296,0.17015
2985.66423,0.16929
2983.73551,0.16859
2981.80679,0.16826
2979.87806,0.16879
2977.94934,0.17110
2976.02062,0.17430
2974.09189,0.17473
2972.16317,0.17196
2970.23444,0.16958
2968.30572,0.16899
2966.37700,0.16930
2964.44827,0.16971
2962.51955,0.17001
2960.59083,0.17023
2958.66210,0.17027
2956.73338,0.17006
2954.80466,0.16963
2952.87593,0.16900
2950.94721,0.16838
2949.01848,0.16800
2947.08976,0.16788
2945.16104,0.16799
2943.23231,0.16835
2941.30359,0.16894
2939.37487,0.16972
2937.44614,0.17060
2935.51742,0.17154
2933.58869,0.17252
2931.65997,0.17344
2929.73125,0.17414
2927.80252,0.17443
2925.87380,0.17420
2923.94508,0.17338
2922.01635,0.17187
2920.08763,0.16961
2918.15891,0.16676
2916.23018,0.16371
2914.30146,0.16073
2912.37273,0.15788
2910.44401,0.15523
2908.51529,0.15283
2906.58656,0.15070
2904.65784,0.14872
2902.72912,0.14683
2900.80039,0.14511
2898.87167,0.14359
2896.94295,0.14221
2895.01422,0.14087
2893.08550,0.13935
2891.15677,0.13765
2889.22805,0.13606
2887.29933,0.13475
2885.37060,0.13364
2883.44188,0.13265
2881.51316,0.13184
2879.58443,0.13121
2877.65571,0.13058
2875.72698,0.12984
2873.79826,0.12902
2871.86954,0.12821
2869.94081,0.12751
2868.01209,0.12697
2866.08337,0.12654
2864.15464,0.12633
2862.22592,0.12651
2860.29720,0.12711
2858.36847,0.12801
2856.43975,0.12887
2854.51102,0.12925
2852.58230,0.12864
2850.65358,0.12670
2848.72485,0.12350
2846.79613,0.11967
2844.86741,0.11590
2842.93868,0.11243
2841.00996,0.10936
2839.08124,0.10681
2837.15251,0.10481
2835.22379,0.10316
2833.29506,0.10172
2831.36634,0.10038
2829.43762,0.09904
2827.50889,0.09778
2825.58017,0.09664
2823.65145,0.09556
2821.72272,0.09449
2819.79400,0.09348
2817.86527,0.09254
2815.93655,0.09161
2814.00783,0.09076
2812.07910,0.08997
2810.15038,0.08916
2808.22166,0.08831
2806.29293,0.08742
2804.36421,0.08655
2802.43549,0.08577
2800.50676,0.08502
2798.57804,0.08422
2796.64931,0.08331
2794.72059,0.08238
2792.79187,0.08162
2790.86314,0.08098
2788.93442,0.08027
2787.00570,0.07942
2785.07697,0.07857
2783.14825,0.07785
2781.21953,0.07721
2779.29080,0.07651
2777.36208,0.07574
2775.43335,0.07494
2773.50463,0.07415
2771.57591,0.07345
2769.64718,0.07282
2767.71846,0.07219
2765.78974,0.07155
2763.86101,0.07094
2761.93229,0.07037
2760.00356,0.06976
2758.07484,0.06901
2756.14612,0.06818
2754.21739,0.06748
2752.28867,0.06700
2750.35995,0.06654
2748.43122,0.06598
2746.50250,0.06538
2744.57378,0.06475
2742.64505,0.06409
2740.71633,0.06340
2738.78760,0.06275
2736.85888,0.06215
2734.93016,0.06156
2733.00143,0.06096
2731.07271,0.06036
2729.14399,0.05982
2727.21526,0.05934
2725.28654,0.05883
2723.35782,0.05820
2721.42909,0.05755
2719.50037,0.05696
2717.57164,0.05637
2715.64292,0.05576
2713.71420,0.05514
2711.78547,0.05455
2709.85675,0.05393
2707.92803,0.05325
2705.99930,0.05263
2704.07058,0.05213
2702.14185,0.05167
2700.21313,0.05113
2698.28441,0.05055
2696.35568,0.05000
2694.42696,0.04952
2692.49824,0.04910
2690.56951,0.04863
2688.64079,0.04808
2686.71207,0.04751
2684.78334,0.04702
2682.85462,0.04662
2680.92589,0.04620
2678.99717,0.04572
2677.06845,0.04523
2675.13972,0.04472
2673.21100,0.04416
2671.28228,0.04362
2669.35355,0.04307
2667.42483,0.04247
2665.49611,0.04188
2663.56738,0.04138
2661.63866,0.04099
2659.70993,0.04061
2657.78121,0.04015
2655.85249,0.03964
2653.92376,0.03912
2651.99504,0.03861
2650.06632,0.03812
2648.13759,0.03766
2646.20887,0.03722
2644.28014,0.03680
2642.35142,0.03644
2640.42270,0.03611
2638.49397,0.03574
2636.56525,0.03532
2634.63653,0.03487
2632.70780,0.03446
2630.77908,0.03409
2628.85036,0.03362
2626.92163,0.03306
2624.99291,0.03258
2623.06418,0.03222
2621.13546,0.03189
2619.20674,0.03148
2617.27801,0.03103
2615.34929,0.03065
2613.42057,0.03027
2611.49184,0.02986
2609.56312,0.02953
2607.63440,0.02924
2605.70567,0.02885
2603.77695,0.02839
2601.84822,0.02799
2599.91950,0.02767
2597.99078,0.02738
2596.06205,0.02708
2594.13333,0.02672
2592.20461,0.02632
2590.27588,0.02588
2588.34716,0.02547
2586.41843,0.02517
2584.48971,0.02488
2582.56099,0.02459
2580.63226,0.02434
2578.70354,0.02408
2576.77482,0.02376
2574.84609,0.02340
2572.91737,0.02307
2570.98865,0.02281
2569.05992,0.02258
2567.13120,0.02232
2565.20247,0.02204
2563.27375,0.02176
2561.34503,0.02146
2559.41630,0.02119
2557.48758,0.02099
2555.55886,0.02075
2553.63013,0.02047
2551.70141,0.02025
2549.77269,0.02004
2547.84396,0.01979
2545.91524,0.01951
2543.98651,0.01922
2542.05779,0.01895
2540.12907,0.01873
2538.20034,0.01855
2536.27162,0.01840
2534.34290,0.01823
2532.41417,0.01801
2530.48545,0.01778
2528.55673,0.01753
2526.62800,0.01729
2524.69928,0.01706
2522.77055,0.01683
2520.84183,0.01656
2518.91311,0.01626
2516.98438,0.01602
2515.05566,0.01585
2513.12694,0.01569
2511.19821,0.01551
2509.26949,0.01529
2507.34076,0.01507
2505.41204,0.01488
2503.48332,0.01474
2501.55459,0.01461
2499.62587,0.01437
2497.69715,0.01403
2495.76842,0.01376
2493.83970,0.01366
2491.91098,0.01362
2489.98225,0.01346
2488.05353,0.01313
2486.12480,0.01277
2484.19608,0.01250
2482.26736,0.01231
2480.33863,0.01212
2478.40991,0.01194
2476.48119,0.01183
2474.55246,0.01174
2472.62374,0.01157
2470.69502,0.01132
2468.76629,0.01107
2466.83757,0.01086
2464.90884,0.01068
2462.98012,0.01046
2461.05140,0.01022
2459.12267,0.01007
2457.19395,0.00997
2455.26523,0.00981
2453.33650,0.00963
2451.40778,0.00953
2449.47905,0.00942
2447.55033,0.00915
2445.62161,0.00879
2443.69288,0.00848
2441.76416,0.00830
2439.83544,0.00821
2437.90671,0.00809
2435.97799,0.00790
2434.04927,0.00771
2432.12054,0.00755
2430.19182,0.00739
2428.26309,0.00721
2426.33437,0.00699
2424.40565,0.00672
2422.47692,0.00652
2420.54820,0.00647
2418.61948,0.00644
2416.69075,0.00626
2414.76203,0.00604
2412.83331,0.00589
2410.90458,0.00575
2408.97586,0.00559
2407.04713,0.00545
2405.11841,0.00532
2403.18969,0.00520
2401.26096,0.00508
2399.33224,0.00494
2397.40352,0.00477
2395.47479,0.00457
2393.54607,0.00440
2391.61734,0.00431
2389.68862,0.00427
2387.75990,0.00419
2385.83117,0.00409
2383.90245,0.00401
2381.97373,0.00397
2380.04500,0.00395
2378.11628,0.00392
2376.18756,0.00385
2374.25883,0.00380
2372.33011,0.00390
2370.40138,0.00404
2368.47266,0.00406
2366.54394,0.00407
2364.61521,0.00412
2362.68649,0.00421
2360.75777,0.00427
2358.82904,0.00414
2356.90032,0.00382
2354.97160,0.00354
2353.04287,0.00360
2351.11415,0.00399
2349.18542,0.00411
2347.25670,0.00354
2345.32798,0.00292
2343.39925,0.00285
2341.47053,0.00307
2339.54181,0.00322
2337.61308,0.00331
2335.68436,0.00335
2333.75563,0.00338
2331.82691,0.00336
2329.89819,0.00317
2327.96946,0.00285
2326.04074,0.00257
2324.11202,0.00242
2322.18329,0.00230
2320.25457,0.00219
2318.32585,0.00212
2316.39712,0.00207
2314.46840,0.00202
2312.53967,0.00198
2310.61095,0.00191
2308.68223,0.00182
2306.75350,0.00172
2304.82478,0.00162
2302.89606,0.00156
2300.96733,0.00152
2299.03861,0.00148
2297.10989,0.00142
2295.18116,0.00135
2293.25244,0.00125
2291.32371,0.00113
2289.39499,0.00108
2287.46627,0.00107
2285.53754,0.00104
2283.60882,0.00098
2281.68010,0.00096
2279.75137,0.00101
2277.82265,0.00106
2275.89392,0.00104
2273.96520,0.00101
2272.03648,0.00099
2270.10775,0.00098
2268.17903,0.00095
2266.25031,0.00086
2264.32158,0.00083
2262.39286,0.00089
2260.46414,0.00089
2258.53541,0.00077
2256.60669,0.00065
2254.67796,0.00060
2252.74924,0.00059
2250.82052,0.00056
2248.89179,0.00046
2246.96307,0.00037
2245.03435,0.00036
2243.10562,0.00039
2241.17690,0.00040
2239.24818,0.00037
2237.31945,0.00032
2235.39073,0.00031
2233.46200,0.00035
2231.53328,0.00033
2229.60456,0.00024
2227.67583,0.00017
2225.74711,0.00013
2223.81839,0.00007
2221.88966,-0.00000
2219.96094,-0.00004
2218.03221,-0.00003
2216.10349,0.00001
2214.17477,0.00003
2212.24604,0.00000
2210.31732,-0.00003
2208.38860,0.00005
2206.45987,0.00016
2204.53115,0.00015
2202.60243,0.00006
2200.67370,0.00000
2198.74498,0.00003
2196.81625,0.00011
2194.88753,0.00012
2192.95881,0.00008
2191.03008,0.00007
2189.10136,0.00006
2187.17264,0.00002
2185.24391,-0.00001
2183.31519,0.00001
2181.38647,0.00005
2179.45774,0.00002
2177.52902,-0.00005
2175.60029,-0.00009
2173.67157,-0.00012
2171.74285,-0.00018
2169.81412,-0.00020
2167.88540,-0.00014
2165.95668,-0.00003
2164.02795,0.00003
2162.09923,0.00003
2160.17050,0.00001
2158.24178,0.00006
2156.31306,0.00018
2154.38433,0.00024
2152.45561,0.00022
2150.52689,0.00023
2148.59816,0.00028
2146.66944,0.00028
2144.74072,0.00020
2142.81199,0.00013
2140.88327,0.00009
2138.95454,0.00010
2137.02582,0.00018
2135.09710,0.00029
2133.16837,0.00037
2131.23965,0.00039
2129.31093,0.00034
2127.38220,0.00026
2125.45348,0.00023
2123.52476,0.00026
2121.59603,0.00032
2119.66731,0.00035
2117.73858,0.00032
2115.80986,0.00029
2113.88114,0.00029
2111.95241,0.00027
2110.02369,0.00021
2108.09497,0.00016
2106.16624,0.00011
2104.23752,0.00008
2102.30880,0.00004
2100.38007,-0.00000
2098.45135,-0.00003
2096.52262,-0.00003
2094.59390,0.00000
2092.66518,-0.00001
2090.73645,-0.00000
2088.80773,0.00004
2086.87901,0.00007
2084.95028,0.00002
2083.02156,-0.00008
2081.09283,-0.00014
2079.16411,-0.00014
2077.23539,-0.00014
2075.30666,-0.00015
2073.37794,-0.00012
2071.44922,-0.00003
2069.52049,0.00004
2067.59177,0.00002
2065.66305,-0.00002
2063.73432,-0.00002
2061.80560,0.00004
2059.87687,0.00014
2057.94815,0.00024
2056.01943,0.00032
2054.09070,0.00044
2052.16198,0.00059
2050.23326,0.00072
2048.30453,0.00082
2046.37581,0.00090
2044.44709,0.00104
2042.51836,0.00124
2040.58964,0.00147
2038.66091,0.00173
2036.73219,0.00194
2034.80347,0.00205
2032.87474,0.00217
2030.94602,0.00238
2029.01730,0.00259
2027.08857,0.00276
2025.15985,0.00293
2023.23112,0.00313
2021.30240,0.00329
2019.37368,0.00341
2017.44495,0.00353
2015.51623,0.00368
2013.58751,0.00382
2011.65878,0.00395
2009.73006,0.00407
2007.80134,0.00422
2005.87261,0.00440
2003.94389,0.00455
2002.01516,0.00459
2000.08644,0.00454
1998.15772,0.00448
1996.22899,0.00442
1994.30027,0.00440
1992.37155,0.00441
1990.44282,0.00437
1988.51410,0.00424
1986.58538,0.00412
1984.65665,0.00404
1982.72793,0.00397
1980.79920,0.00387
1978.87048,0.00374
1976.94176,0.00357
1975.01303,0.00339
1973.08431,0.00321
1971.15559,0.00307
1969.22686,0.00299
1967.29814,0.00292
1965.36941,0.00277
1963.44069,0.00254
1961.51197,0.00224
1959.58324,0.00193
1957.65452,0.00171
1955.72580,0.00160
1953.79707,0.00152
1951.86835,0.00138
1949.93963,0.00118
1948.01090,0.00095
1946.08218,0.00072
1944.15345,0.00056
1942.22473,0.00052
1940.29601,0.00044
1938.36728,0.00028
1936.43856,0.00014
1934.50984,0.00004
1932.58111,-0.00001
1930.65239,-0.00004
1928.72367,-0.00003
1926.79494,0.00000
1924.86622,0.00009
1922.93749,0.00024
1921.00877,0.00038
1919.08005,0.00056
1917.15132,0.00080
1915.22260,0.00102
1913.29388,0.00128
1911.36515,0.00166
1909.43643,0.00214
1907.50770,0.00261
1905.57898,0.00301
1903.65026,0.00339
1901.72153,0.00383
1899.79281,0.00435
1897.86409,0.00491
1895.93536,0.00549
1894.00664,0.00602
1892.07792,0.00649
1890.14919,0.00694
1888.22047,0.00732
1886.29174,0.00755
1884.36302,0.00772
1882.43430,0.00797
1880.50557,0.00825
1878.57685,0.00846
1876.64813,0.00853
1874.71940,0.00851
1872.79068,0.00854
1870.86196,0.00865
1868.93323,0.00867
1867.00451,0.00840
1865.07578,0.00794
1863.14706,0.00750
1861.21834,0.00708
1859.28961,0.00663
1857.36089,0.00614
1855.43217,0.00560
1853.50344,0.00506
1851.57472,0.00455
1849.64599,0.00410
1847.71727,0.00368
1845.78855,0.00331
1843.85982,0.00296
1841.93110,0.00253
1840.00238,0.00205
1838.07365,0.00161
1836.14493,0.00119
1834.21621,0.00081
1832.28748,0.00061
1830.35876,0.00061
1828.43003,0.00059
1826.50131,0.00043
1824.57259,0.00025
1822.64386,0.00011
1820.71514,-0.00000
1818.78642,-0.00008
1816.85769,-0.00009
1814.92897,0.00000
1813.00025,0.00001
1811.07152,0.00009
1809.14280,0.00013
1807.21407,0.00010
1805.28535,0.00006
1803.35663,0.00012
1801.42790,0.00035
1799.49918,0.00069
1797.57046,0.00103
1795.64173,0.00141
1793.71301,0.00204
1791.78428,0.00287
1789.85556,0.00352
1787.92684,0.00395
1785.99811,0.00452
1784.06939,0.00531
1782.14067,0.00620
1780.21194,0.00708
1778.28322,0.00785
1776.35450,0.00856
1774.42577,0.00948
1772.49705,0.01070
1770.56832,0.01182
1768.63960,0.01259
1766.71088,0.01319
1764.78215,0.01384
1762.85343,0.01473
1760.92471,0.01582
1758.99598,0.01686
1757.06726,0.01783
1755.13854,0.01872
1753.20981,0.01959
1751.28109,0.02075
1749.35236,0.02233
1747.42364,0.02399
1745.49492,0.02551
1743.56619,0.02699
1741.63747,0.02861
1739.70875,0.03038
1737.78002,0.03205
1735.85130,0.03384
1733.92257,0.03635
1731.99385,0.03895
1730.06513,0.04090
1728.13640,0.04254
1726.20768,0.04421
1724.27896,0.04598
1722.35023,0.04771
1720.42151,0.04942
1718.49279,0.05166
1716.56406,0.05453
1714.63534,0.05706
1712.70661,0.05893
1710.77789,0.06065
1708.84917,0.06264
1706.92044,0.06514
1704.99172,0.06786
1703.06300,0.07037
1701.13427,0.07343
1699.20555,0.07756
1697.27683,0.08173
1695.34810,0.08540
1693.41938,0.08844
1691.49065,0.09122
1689.56193,0.09429
1687.63321,0.09753
1685.70448,0.10142
1683.77576,0.10660
1681.84704,0.11121
1679.91831,0.11426
1677.98959,0.11687
1676.06087,0.12011
1674.13214,0.12378
1672.20342,0.12721
1670.27469,0.13071
1668.34597,0.13419
1666.41725,0.13682
1664.48852,0.13913
1662.55980,0.14187
1660.63108,0.14443
1658.70235,0.14616
1656.77363,0.14743
1654.84490,0.14915
1652.91618,0.15166
1650.98746,0.15353
1649.05873,0.15447
1647.13001,0.15552
1645.20129,0.15652
1643.27256,0.15692
1641.34384,0.15708
1639.41512,0.15736
1637.48639,0.15783
1635.55767,0.15825
1633.62894,0.15812
1631.70022,0.15747
1629.77150,0.15660
1627.84277,0.15557
1625.91405,0.15430
1623.98533,0.15265
1622.05660,0.15064
1620.12788,0.14845
1618.19916,0.14601
1616.27043,0.14312
1614.34171,0.14016
1612.41298,0.13742
1610.48426,0.13472
1608.55554,0.13192
1606.62681,0.12907
1604.69809,0.12621
1602.76937,0.12333
1600.84064,0.12049
1598.91192,0.11783
1596.98319,0.11540
1595.05447,0.11309
1593.12575,0.11082
1591.19702,0.10861
1589.26830,0.10643
1587.33958,0.10422
1585.41085,0.10203
1583.48213,0.09988
1581.55341,0.09781
1579.62468,0.09592
1577.69596,0.09424
1575.76723,0.09268
1573.83851,0.09130
1571.90979,0.09015
1569.98106,0.08911
1568.05234,0.08809
1566.12362,0.08714
1564.19489,0.08629
1562.26617,0.08555
1560.33745,0.08491
1558.40872,0.08423
1556.48000,0.08336
1554.55127,0.08234
1552.62255,0.08125
1550.69383,0.08005
1548.76510,0.07873
1546.83638,0.07739
1544.90766,0.07606
1542.97893,0.07455
1541.05021,0.07269
1539.12148,0.07071
1537.19276,0.06912
1535.26404,0.06773
1533.33531,0.06607
1531.40659,0.06418
1529.47787,0.06236
1527.54914,0.06051
1525.62042,0.05846
1523.69170,0.05625
1521.76297,0.05396
1519.83425,0.05184
1517.90552,0.04992
1515.97680,0.04783
1514.04808,0.04554
1512.11935,0.04332
1510.19063,0.04121
1508.26191,0.03879
1506.33318,0.03571
1504.40446,0.03280
1502.47574,0.03046
1500.54701,0.02831
1498.61829,0.02614
1496.68956,0.02402
1494.76084,0.02213
1492.83212,0.02065
1490.90339,0.01955
1488.97467,0.01869
1487.04595,0.01804
1485.11722,0.01763
1483.18850,0.01758
1481.25977,0.01795
1479.33105,0.01868
1477.40233,0.01983
1475.47360,0.02166
1473.54488,0.02445
1471.61616,0.02779
1469.68743,0.03052
1467.75871,0.03247
1465.82999,0.03415
1463.90126,0.03554
1461.97254,0.03639
1460.04381,0.03710
1458.11509,0.03824
1456.18637,0.03937
1454.25764,0.03969
1452.32892,0.03960
1450.40020,0.03968
1448.47147,0.04005
1446.54275,0.04050
1444.61403,0.04091
1442.68530,0.04135
1440.75658,0.04189
1438.82785,0.04271
1436.89913,0.04397
1434.97041,0.04535
1433.04168,0.04656
1431.11296,0.04787
1429.18424,0.04935
1427.25551,0.05063
1425.32679,0.05159
1423.39806,0.05230
1421.46934,0.05293
1419.54062,0.05375
1417.61189,0.05493
1415.68317,0.05651
1413.75445,0.05830
1411.82572,0.05940
1409.89700,0.05951
1407.96828,0.05970
1406.03955,0.06065
1404.11083,0.06179
1402.18210,0.06228
1400.25338,0.06180
1398.32466,0.06025
1396.39593,0.05760
1394.46721,0.05419
1392.53849,0.05080
1390.60976,0.04793
1388.68104,0.04538
1386.75232,0.04302
1384.82359,0.04106
1382.89487,0.03962
1380.96614,0.03854
1379.03742,0.03758
1377.10870,0.03665
1375.17997,0.03573
1373.25125,0.03482
1371.32253,0.03380
1369.39380,0.03251
1367.46508,0.03095
1365.53635,0.02940
1363.60763,0.02802
1361.67891,0.02669
1359.75018,0.02543
1357.82146,0.02436
1355.89274,0.02342
1353.96401,0.02248
1352.03529,0.02157
1350.10657,0.02077
1348.17784,0.02003
1346.24912,0.01927
1344.32039,0.01855
1342.39167,0.01800
1340.46295,0.01761
1338.53422,0.01724
1336.60550,0.01686
1334.67678,0.01647
1332.74805,0.01605
1330.81933,0.01566
1328.89061,0.01539
1326.96188,0.01525
1325.03316,0.01519
1323.10443,0.01519
1321.17571,0.01524
1319.24699,0.01535
1317.31826,0.01553
1315.38954,0.01575
1313.46082,0.01602
1311.53209,0.01631
1309.60337,0.01668
1307.67464,0.01716
1305.74592,0.01769
1303.81720,0.01819
1301.88847,0.01886
1299.95975,0.01982
1298.03103,0.02099
1296.10230,0.02226
1294.17358,0.02365
1292.24486,0.02522
1290.31613,0.02697
1288.38741,0.02895
1286.45868,0.03122
1284.52996,0.03379
1282.60124,0.03658
1280.67251,0.03951
1278.74379,0.04259
1276.81507,0.04602
1274.88634,0.05000
1272.95762,0.05460
1271.02890,0.05974
1269.10017,0.06525
1267.17145,0.07125
1265.24272,0.07800
1263.31400,0.08557
1261.38528,0.09409
1259.45655,0.10366
1257.52783,0.11402
1255.59911,0.12488
1253.67038,0.13620
1251.74166,0.14779
1249.81294,0.15912
1247.88421,0.16977
1245.95549,0.17964
1244.02676,0.18866
1242.09804,0.19689
1240.16932,0.20442
1238.24059,0.21124
1236.31187,0.21742
1234.38315,0.22327
1232.45442,0.22879
1230.52570,0.23364
1228.59697,0.23778
1226.66825,0.24154
1224.73953,0.24505
1222.81080,0.24822
1220.88208,0.25112
1218.95336,0.25388
1217.02463,0.25645
1215.09591,0.25894
1213.16719,0.26164
1211.23846,0.26442
1209.30974,0.26686
1207.38101,0.26897
1205.45229,0.27102
1203.52357,0.27306
1201.59484,0.27499
1199.66612,0.27680
1197.73740,0.27868
1195.80867,0.28069
1193.87995,0.28270
1191.95123,0.28486
1190.02250,0.28720
1188.09378,0.28937
1186.16505,0.29115
1184.23633,0.29291
1182.30761,0.29475
1180.37888,0.29656
1178.45016,0.29844
1176.52144,0.30046
1174.59271,0.30283
1172.66399,0.30563
1170.73526,0.30820
1168.80654,0.31016
1166.87782,0.31204
1164.94909,0.31390
1163.02037,0.31542
1161.09165,0.31724
1159.16292,0.31984
1157.23420,0.32271
1155.30548,0.32551
1153.37675,0.32854
1151.44803,0.33233
1149.51930,0.33786
1147.59058,0.34656
1145.66186,0.35857
1143.73313,0.37246
1141.80441,0.38674
1139.87569,0.39813
1137.94696,0.40188
1136.01824,0.39954
1134.08952,0.39569
1132.16079,0.39221
1130.23207,0.38932
1128.30334,0.38685
1126.37462,0.38457
1124.44590,0.38227
1122.51717,0.38073
1120.58845,0.38093
1118.65973,0.38251
1116.73100,0.38481
1114.80228,0.38785
1112.87355,0.39207
1110.94483,0.39740
1109.01611,0.40310
1107.08738,0.40867
1105.15866,0.41395
1103.22994,0.41887
1101.30121,0.42342
1099.37249,0.42755
1097.44377,0.43077
1095.51504,0.43231
1093.58632,0.43229
1091.65759,0.43191
1089.72887,0.43207
1087.80015,0.43215
1085.87142,0.43133
1083.94270,0.42993
1082.01398,0.42832
1080.08525,0.42659
1078.15653,0.42478
1076.22781,0.42268
1074.29908,0.41965
1072.37036,0.41545
1070.44163,0.41071
1068.51291,0.40611
1066.58419,0.40174
1064.65546,0.39727
1062.72674,0.39239
1060.79802,0.38705
1058.86929,0.38132
1056.94057,0.37495
1055.01184,0.36809
1053.08312,0.36180
1051.15440,0.35623
1049.22567,0.35014
1047.29695,0.34296
1045.36823,0.33540
1043.43950,0.32822
1041.51078,0.32146
1039.58206,0.31472
1037.65333,0.30763
1035.72461,0.30018
1033.79588,0.29269
1031.86716,0.28549
1029.93844,0.27866
1028.00971,0.27208
1026.08099,0.26563
1024.15227,0.25942
1022.22354,0.25323
1020.29482,0.24680
1018.36610,0.24074
1016.43737,0.23544
1014.50865,0.23049
1012.57992,0.22566
1010.65120,0.22106
1008.72248,0.21658
1006.79375,0.21203
1004.86503,0.20769
1002.93631,0.20392
1001.00758,0.20041
999.07886,0.19659
997.15013,0.19255
995.22141,0.18873
993.29269,0.18532
991.36396,0.18222
989.43524,0.17915
987.50652,0.17600
985.57779,0.17320
983.64907,0.17095
981.72035,0.16896
979.79162,0.16712
977.86290,0.16559
975.93417,0.16451
974.00545,0.16404
972.07673,0.16400
970.14800,0.16375
968.21928,0.16311
966.29056,0.16266
964.36183,0.16279
962.43311,0.16323
960.50439,0.16351
958.57566,0.16336
956.64694,0.16280
954.71821,0.16216
952.78949,0.16144
950.86077,0.16028
948.93204,0.15871
947.00332,0.15715
945.07460,0.15562
943.14587,0.15368
941.21715,0.15158
939.28842,0.14980
937.35970,0.14792
935.43098,0.14542
933.50225,0.14243
931.57353,0.13924
929.64481,0.13596
927.71608,0.13240
925.78736,0.12846
923.85864,0.12433
921.92991,0.12031
920.00119,0.11629
918.07246,0.11201
916.14374,0.10771
914.21502,0.10361
912.28629,0.09966
910.35757,0.09587
908.42885,0.09214
906.50012,0.08824
904.57140,0.08420
902.64268,0.08019
900.71395,0.07631
898.78523,0.07249
896.85650,0.06882
894.92778,0.06546
892.99906,0.06240
891.07033,0.05941
889.14161,0.05625
887.21289,0.05298
885.28416,0.05005
883.35544,0.04759
881.42671,0.04521
879.49799,0.04262
877.56927,0.03995
875.64054,0.03766
873.71182,0.03584
871.78310,0.03416
869.85437,0.03263
867.92565,0.03098
865.99693,0.02874
864.06820,0.02626
862.13948,0.02421
860.21075,0.02273
858.28203,0.02162
856.35331,0.02069
854.42458,0.01991
852.49586,0.01940
850.56714,0.01923
848.63841,0.01928
846.70969,0.01950
844.78097,0.02019
842.85224,0.02154
840.92352,0.02352
838.99479,0.02610
837.06607,0.02914
835.13735,0.03237
833.20862,0.03572
831.27990,0.03913
829.35118,0.04231
827.42245,0.04527
825.49373,0.04831
823.56501,0.05144
821.63628,0.05461
819.70756,0.05802
817.77883,0.06156
815.85011,0.06489
813.92139,0.06775
811.99266,0.07020
810.06394,0.07260
808.13522,0.07525
806.20649,0.07780
804.27777,0.07980
802.34904,0.08104
800.42032,0.08154
798.49160,0.08183
796.56287,0.08205
794.63415,0.08154
792.70543,0.08015
790.77670,0.07846
788.84798,0.07675
786.91926,0.07482
784.99053,0.07219
783.06181,0.06884
781.13308,0.06529
779.20436,0.06158
777.27564,0.05753
775.34691,0.05353
773.41819,0.04983
771.48947,0.04629
769.56074,0.04308
767.63202,0.04069
765.70330,0.03916
763.77457,0.03841
761.84585,0.03817
759.91712,0.03787
757.98840,0.03738
756.05968,0.03682
754.13095,0.03612
752.20223,0.03564
750.27351,0.03556
748.34478,0.03540
746.41606,0.03493
744.48733,0.03434
742.55861,0.03382
740.62989,0.03357
738.70116,0.03352
736.77244,0.03340
734.84372,0.03326
732.91499,0.03331
730.98627,0.03349
729.05755,0.03375
727.12882,0.03433
725.20010,0.03499
723.27137,0.03518
721.34265,0.03512
719.41393,0.03537
717.48520,0.03592
715.55648,0.03650
713.62776,0.03692
711.69903,0.03712
709.77031,0.03732
707.84159,0.03804
705.91286,0.03933
703.98414,0.04066
702.05541,0.04176
700.12669,0.04283
698.19797,0.04374
696.26924,0.04421
694.34052,0.04446
692.41180,0.04482
690.48307,0.04523
688.55435,0.04558
686.62562,0.04586
684.69690,0.04597
682.76818,0.04602
680.83945,0.04648
678.91073,0.04729
676.98201,0.04778
675.05328,0.04781
673.12456,0.04807
671.19584,0.04838
669.26711,0.04828
667.33839,0.04886
665.40966,0.05020
663.48094,0.05090
661.55222,0.05116
659.62349,0.05156
657.69477,0.05187
655.76605,0.05246
653.83732,0.05399
651.90860,0.05603
649.97988,0.05743
648.05115,0.05766
646.12243,0.05730
644.19370,0.05743
642.26498,0.05844
640.33626,0.05970
638.40753,0.06085
636.47881,0.06223
634.55009,0.06377
632.62136,0.06502
630.69264,0.06621
628.76391,0.06761
626.83519,0.06903
624.90647,0.07022
622.97774,0.07124
621.04902,0.07217
619.12030,0.07321
617.19157,0.07434
615.26285,0.07552
613.33413,0.07666
611.40540,0.07742
609.47668,0.07823
607.54795,0.07975
605.61923,0.08167
603.69051,0.08316
601.76178,0.08450
599.83306,0.08644
597.90434,0.08849
595.97561,0.08988
594.04689,0.09044
592.11817,0.09073
590.18944,0.09183
588.26072,0.09371
586.33199,0.09548
584.40327,0.09688
582.47455,0.09795
580.54582,0.09883
578.61710,0.09971
576.68838,0.10040
574.75965,0.10113
572.83093,0.10257
570.90220,0.10427
568.97348,0.10508
567.04476,0.10471
565.11603,0.10376
563.18731,0.10305
561.25859,0.10339
559.32986,0.10484
557.40114,0.10682
555.47242,0.10880
553.54369,0.11023
551.61497,0.11078
549.68624,0.11046
547.75752,0.10985
545.82880,0.11009
543.90007,0.11125
541.97135,0.11148
540.04263,0.11034
538.11390,0.11013
536.18518,0.11140
534.25646,0.11136
532.32773,0.10873
530.39901,0.10599
528.47028,0.10581
526.54156,0.10811
524.61284,0.11035
522.68411,0.11027
520.75539,0.10855
518.82667,0.10768
516.89794,0.10880
514.96922,0.11068
513.04049,0.11233
511.11177,0.11440
509.18305,0.11730
507.25432,0.12083
505.32560,0.12581
503.39688,0.13273
501.46815,0.13995
499.53943,0.14556
497.61071,0.15098
495.68198,0.15917
493.75326,0.16886
491.82453,0.17601
489.89581,0.18141
487.96709,0.18882
486.03836,0.19758
484.10964,0.20486
482.18092,0.21143
480.25219,0.21959
478.32347,0.22788
476.39475,0.23321
474.46602,0.23696
472.53730,0.24299
470.60857,0.25026
468.67985,0.25418
466.75113,0.25409
464.82240,0.25284
462.89368,0.25203
460.96496,0.25118
459.03623,0.24958
457.10751,0.24602
455.17878,0.23885
453.25006,0.22856
451.32134,0.21848
449.39261,0.21110
447.46389,0.20580
445.53517,0.20083
443.60644,0.19481
441.67772,0.18893
439.74900,0.18469
437.82027,0.17976
435.89155,0.17330
433.96282,0.16740
432.03410,0.16114
430.10538,0.15278
428.17665,0.14479
426.24793,0.14068
424.31921,0.13991
422.39048,0.13824
420.46176,0.13042
418.53304,0.11448
416.60431,0.09884
414.67559,0.09197
412.74686,0.09145
410.81814,0.09012
408.88942,0.08451
406.96069,0.07900
405.03197,0.07911
403.10325,0.08232
401.17452,0.08246
399.24580,0.07729
397.31708,0.06760
395.38835,0.05608
393.45963,0.04640
391.53090,0.04465
389.60218,0.05496
387.67346,0.06853
385.74473,0.07389
383.81601,0.07500
381.88729,0.07462
379.95856,0.06776
378.02984,0.06394
376.10111,0.06571
374.17239,0.04885
372.24367,0.01615
370.31494,0.00000
368.38622,0.00000
