3996.31543,0.00000
3994.38671,0.00014
3992.45799,0.00027
3990.52926,0.00037
3988.60054,0.00035
3986.67182,0.00025
3984.74309,0.00026
3982.81437,0.00040
3980.88564,0.00045
3978.95692,0.00035
3977.02820,0.00035
3975.09947,0.00057
3973.17075,0.00079
3971.24203,0.00080
3969.31330,0.00068
3967.38458,0.00052
3965.45586,0.00039
3963.52713,0.00037
3961.59841,0.00048
3959.66968,0.00058
3957.74096,0.00058
3955.81224,0.00060
3953.88351,0.00072
3951.95479,0.00087
3950.02607,0.00098
3948.09734,0.00107
3946.16862,0.00113
3944.23990,0.00115
3942.31117,0.00104
3940.38245,0.00082
3938.45372,0.00063
3936.52500,0.00056
3934.59628,0.00063
3932.66755,0.00070
3930.73883,0.00072
3928.81011,0.00076
3926.88138,0.00086
3924.95266,0.00082
3923.02393,0.00062
3921.09521,0.00051
3919.16649,0.00058
3917.23776,0.00058
3915.30904,0.00040
3913.38032,0.00018
3911.45159,0.00004
3909.52287,0.00006
3907.59415,0.00023
3905.66542,0.00040
3903.73670,0.00041
3901.80797,0.00038
3899.87925,0.00034
3897.95053,0.00019
3896.02180,0.00003
3894.09308,0.00001
3892.16436,0.00013
3890.23563,0.00018
3888.30691,0.00009
3886.37819,0.00007
3884.44946,0.00026
3882.52074,0.00056
3880.59201,0.00072
3878.66329,0.00064
3876.73457,0.00049
3874.80584,0.00051
3872.87712,0.00067
3870.94840,0.00071
3869.01967,0.00045
3867.09095,0.00017
3865.16222,0.00013
3863.23350,0.00013
3861.30478,0.00000
3859.37605,-0.00001
3857.44733,0.00036
3855.51861,0.00088
3853.58988,0.00101
3851.66116,0.00052
3849.73244,-0.00002
3847.80371,-0.00027
3845.87499,-0.00031
3843.94626,-0.00026
3842.01754,-0.00015
3840.08882,0.00003
3838.16009,0.00011
3836.23137,-0.00002
3834.30265,-0.00021
3832.37392,-0.00023
3830.44520,-0.00010
3828.51648,0.00004
3826.58775,0.00008
3824.65903,0.00011
3822.73030,0.00021
3820.80158,0.00030
3818.87286,0.00025
3816.94413,0.00019
3815.01541,0.00020
3813.08669,0.00019
3811.15796,0.00022
3809.22924,0.00037
3807.30052,0.00054
3805.37179,0.00062
3803.44307,0.00077
3801.51434,0.00110
3799.58562,0.00142
3797.65690,0.00159
3795.72817,0.00160
3793.79945,0.00152
3791.87073,0.00149
3789.94200,0.00160
3788.01328,0.00179
3786.08455,0.00202
3784.15583,0.00226
3782.22711,0.00247
3780.29838,0.00258
3778.36966,0.00266
3776.44094,0.00282
3774.51221,0.00304
3772.58349,0.00336
3770.65477,0.00382
3768.72604,0.00437
3766.79732,0.00484
3764.86859,0.00521
3762.93987,0.00558
3761.01115,0.00605
3759.08242,0.00653
3757.15370,0.00692
3755.22498,0.00745
3753.29625,0.00830
3751.36753,0.00922
3749.43881,0.00989
3747.51008,0.01040
3745.58136,0.01114
3743.65263,0.01211
3741.72391,0.01289
3739.79519,0.01350
3737.86646,0.01438
3735.93774,0.01582
3734.00902,0.01749
3732.08029,0.01899
3730.15157,0.02031
3728.22284,0.02166
3726.29412,0.02326
3724.36540,0.02518
3722.43667,0.02736
3720.50795,0.02962
3718.57923,0.03183
3716.65050,0.03397
3714.72178,0.03632
3712.79306,0.03934
3710.86433,0.04293
3708.93561,0.04623
3707.00688,0.04898
3705.07816,0.05170
3703.14944,0.05491
3701.22071,0.05852
3699.29199,0.06199
3697.36327,0.06519
3695.43454,0.06829
3693.50582,0.07137
3691.57710,0.07479
3689.64837,0.07909
3687.71965,0.08374
3685.79092,0.08765
3683.86220,0.09087
3681.93348,0.09412
3680.00475,0.09776
3678.07603,0.10203
3676.14731,0.10730
3674.21858,0.11270
3672.28986,0.11701
3670.36113,0.12110
3668.43241,0.12538
3666.50369,0.12908
3664.57496,0.13245
3662.64624,0.13595
3660.71752,0.13941
3658.78879,0.14270
3656.86007,0.14623
3654.93135,0.14985
3653.00262,0.15293
3651.07390,0.15600
3649.14517,0.15988
3647.21645,0.16386
3645.28773,0.16698
3643.35900,0.16949
3641.43028,0.17199
3639.50156,0.17456
3637.57283,0.17703
3635.64411,0.17934
3633.71539,0.18156
3631.78666,0.18371
3629.85794,0.18612
3627.92921,0.18906
3626.00049,0.19182
3624.07177,0.19400
3622.14304,0.19586
3620.21432,0.19770
3618.28560,0.19947
3616.35687,0.20092
3614.42815,0.20236
3612.49942,0.20413
3610.57070,0.20613
3608.64198,0.20822
3606.71325,0.21014
3604.78453,0.21154
3602.85581,0.21264
3600.92708,0.21394
3598.99836,0.21547
3597.06964,0.21702
3595.14091,0.21861
3593.21219,0.22023
3591.28346,0.22176
3589.35474,0.22333
3587.42602,0.22501
3585.49729,0.22642
3583.56857,0.22743
3581.63985,0.22838
3579.71112,0.22948
3577.78240,0.23070
3575.85368,0.23196
3573.92495,0.23322
3571.99623,0.23437
3570.06750,0.23536
3568.13878,0.23649
3566.21006,0.23785
3564.28133,0.23908
3562.35261,0.24014
3560.42389,0.24116
3558.49516,0.24209
3556.56644,0.24302
3554.63771,0.24409
3552.70899,0.24534
3550.78027,0.24670
3548.85154,0.24793
3546.92282,0.24888
3544.99410,0.24974
3543.06537,0.25079
3541.13665,0.25188
3539.20793,0.25271
3537.27920,0.25336
3535.35048,0.25411
3533.42175,0.25506
3531.49303,0.25600
3529.56431,0.25678
3527.63558,0.25745
3525.70686,0.25807
3523.77814,0.25881
3521.84941,0.25985
3519.92069,0.26105
3517.99197,0.26201
3516.06324,0.26259
3514.13452,0.26310
3512.20579,0.26386
3510.27707,0.26475
3508.34835,0.26550
3506.41962,0.26612
3504.49090,0.26686
3502.56218,0.26774
3500.63345,0.26852
3498.70473,0.26912
3496.77600,0.26971
3494.84728,0.27037
3492.91856,0.27093
3490.98983,0.27144
3489.06111,0.27214
3487.13239,0.27309
3485.20366,0.27400
3483.27494,0.27461
3481.34622,0.27505
3479.41749,0.27548
3477.48877,0.27587
3475.56004,0.27624
3473.63132,0.27664
3471.70260,0.27709
3469.77387,0.27763
3467.84515,0.27827
3465.91643,0.27877
3463.98770,0.27903
3462.05898,0.27927
3460.13026,0.27969
3458.20153,0.28015
3456.27281,0.28047
3454.34408,0.28085
3452.41536,0.28150
3450.48664,0.28215
3448.55791,0.28244
3446.62919,0.28252
3444.70047,0.28270
3442.77174,0.28299
3440.84302,0.28326
3438.91429,0.28351
3436.98557,0.28362
3435.05685,0.28362
3433.12812,0.28379
3431.19940,0.28427
3429.27068,0.28477
3427.34195,0.28508
3425.41323,0.28529
3423.48451,0.28558
3421.55578,0.28595
3419.62706,0.28630
3417.69833,0.28654
3415.76961,0.28669
3413.84089,0.28687
3411.91216,0.28711
3409.98344,0.28724
3408.05472,0.28712
3406.12599,0.28682
3404.19727,0.28664
3402.26855,0.28678
3400.33982,0.28702
3398.41110,0.28703
3396.48237,0.28698
3394.55365,0.28696
3392.62493,0.28697
3390.69620,0.28703
3388.76748,0.28704
3386.83876,0.28685
3384.91003,0.28651
3382.98131,0.28630
3381.05259,0.28639
3379.12386,0.28666
3377.19514,0.28678
3375.26641,0.28655
3373.33769,0.28603
3371.40897,0.28559
3369.48024,0.28542
3367.55152,0.28539
3365.62280,0.28535
3363.69407,0.28516
3361.76535,0.28471
3359.83662,0.28422
3357.90790,0.28391
3355.97918,0.28370
3354.05045,0.28355
3352.12173,0.28346
3350.19301,0.28322
3348.26428,0.28286
3346.33556,0.28271
3344.40684,0.28273
3342.47811,0.28253
3340.54939,0.28208
3338.62066,0.28164
3336.69194,0.28123
3334.76322,0.28077
3332.83449,0.28027
3330.90577,0.27984
3328.97705,0.27958
3327.04832,0.27948
3325.11960,0.27932
3323.19088,0.27901
3321.26215,0.27875
3319.33343,0.27858
3317.40470,0.27836
3315.47598,0.27807
3313.54726,0.27780
3311.61853,0.27757
3309.68981,0.27730
3307.76109,0.27702
3305.83236,0.27684
3303.90364,0.27674
3301.97491,0.27650
3300.04619,0.27599
3298.11747,0.27545
3296.18874,0.27505
3294.26002,0.27468
3292.33130,0.27433
3290.40257,0.27415
3288.47385,0.27406
3286.54513,0.27382
3284.61640,0.27338
3282.68768,0.27302
3280.75895,0.27278
3278.83023,0.27254
3276.90151,0.27234
3274.97278,0.27218
3273.04406,0.27181
3271.11534,0.27120
3269.18661,0.27063
3267.25789,0.27029
3265.32917,0.27013
3263.40044,0.26995
3261.47172,0.26957
3259.54299,0.26893
3257.61427,0.26832
3255.68555,0.26794
3253.75682,0.26756
3251.82810,0.26707
3249.89938,0.26664
3247.97065,0.26630
3246.04193,0.26587
3244.11320,0.26532
3242.18448,0.26488
3240.25576,0.26458
3238.32703,0.26422
3236.39831,0.26378
3234.46959,0.26343
3232.54086,0.26316
3230.61214,0.26281
3228.68342,0.26232
3226.75469,0.26169
3224.82597,0.26098
3222.89724,0.26023
3220.96852,0.25952
3219.03980,0.25891
3217.11107,0.25839
3215.18235,0.25783
3213.25363,0.25726
3211.32490,0.25670
3209.39618,0.25604
3207.46746,0.25531
3205.53873,0.25472
3203.61001,0.25425
3201.68128,0.25375
3199.75256,0.25312
3197.82384,0.25238
3195.89511,0.25158
3193.96639,0.25071
3192.03767,0.24993
3190.10894,0.24934
3188.18022,0.24876
3186.25149,0.24806
3184.32277,0.24721
3182.39405,0.24627
3180.46532,0.24542
3178.53660,0.24479
3176.60788,0.24420
3174.67915,0.24346
3172.75043,0.24257
3170.82171,0.24165
3168.89298,0.24082
3166.96426,0.24000
3165.03553,0.23912
3163.10681,0.23840
3161.17809,0.23789
3159.24936,0.23732
3157.32064,0.23649
3155.39192,0.23547
3153.46319,0.23450
3151.53447,0.23367
3149.60575,0.23288
3147.67702,0.23208
3145.74830,0.23130
3143.81957,0.23063
3141.89085,0.22994
3139.96213,0.22903
3138.03340,0.22799
3136.10468,0.22708
3134.17596,0.22628
3132.24723,0.22536
3130.31851,0.22445
3128.38978,0.22377
3126.46106,0.22306
3124.53234,0.22214
3122.60361,0.22120
3120.67489,0.22030
3118.74617,0.21935
3116.81744,0.21844
3114.88872,0.21761
3112.96000,0.21680
3111.03127,0.21586
3109.10255,0.21477
3107.17382,0.21362
3105.24510,0.21249
3103.31638,0.21142
3101.38765,0.21036
3099.45893,0.20925
3097.53021,0.20817
3095.60148,0.20718
3093.67276,0.20623
3091.74404,0.20523
3089.81531,0.20417
3087.88659,0.20309
3085.95786,0.20200
3084.02914,0.20086
3082.10042,0.19965
3080.17169,0.19837
3078.24297,0.19715
3076.31425,0.19610
3074.38552,0.19506
3072.45680,0.19392
3070.52807,0.19281
3068.59935,0.19173
3066.67063,0.19061
3064.74190,0.18951
3062.81318,0.18850
3060.88446,0.18750
3058.95573,0.18645
3057.02701,0.18531
3055.09829,0.18407
3053.16956,0.18291
3051.24084,0.18192
3049.31211,0.18100
3047.38339,0.18004
3045.45467,0.17902
3043.52594,0.17800
3041.59722,0.17701
3039.66850,0.17601
3037.73977,0.17498
3035.81105,0.17402
3033.88233,0.17312
3031.95360,0.17223
3030.02488,0.17135
3028.09615,0.17050
3026.16743,0.16967
3024.23871,0.16879
3022.30998,0.16792
3020.38126,0.16714
3018.45254,0.16641
3016.52381,0.16559
3014.59509,0.16474
3012.66636,0.16402
3010.73764,0.16337
3008.80892,0.16257
3006.88019,0.16164
3004.95147,0.16075
3003.02275,0.15999
3001.09402,0.15929
2999.16530,0.15858
2997.23658,0.15794
2995.30785,0.15749
2993.37913,0.15700
2991.45040,0.15635
2989.52168,0.15568
2987.59296,0.15505
2985.66423,0.15452
2983.73551,0.15412
2981.80679,0.15376
2979.87806,0.15342
2977.94934,0.15318
2976.02062,0.15308
2974.09189,0.15309
2972.16317,0.15313
2970.23444,0.15308
2968.30572,0.15296
2966.37700,0.15305
2964.44827,0.15333
2962.51955,0.15352
2960.59083,0.15353
2958.66210,0.15341
2956.73338,0.15321
2954.80466,0.15293
2952.87593,0.15258
2950.94721,0.15226
2949.01848,0.15210
2947.08976,0.15212
2945.16104,0.15224
2943.23231,0.15250
2941.30359,0.15304
2939.37487,0.15380
2937.44614,0.15458
2935.51742,0.15538
2933.58869,0.15617
2931.65997,0.15683
2929.73125,0.15729
2927.80252,0.15754
2925.87380,0.15751
2923.94508,0.15707
2922.01635,0.15623
2920.08763,0.15497
2918.15891,0.15299
2916.23018,0.15035
2914.30146,0.14743
2912.37273,0.14453
2910.44401,0.14190
2908.51529,0.13964
2906.58656,0.13767
2904.65784,0.13590
2902.72912,0.13429
2900.80039,0.13278
2898.87167,0.13126
2896.94295,0.12982
2895.01422,0.12858
2893.08550,0.12734
2891.15677,0.12594
2889.22805,0.12456
2887.29933,0.12337
2885.37060,0.12229
2883.44188,0.12127
2881.51316,0.12033
2879.58443,0.11955
2877.65571,0.11901
2875.72698,0.11857
2873.79826,0.11803
2871.86954,0.11727
2869.94081,0.11644
2868.01209,0.11581
2866.08337,0.11543
2864.15464,0.11520
2862.22592,0.11529
2860.29720,0.11578
2858.36847,0.11646
2856.43975,0.11715
2854.51102,0.11767
2852.58230,0.11757
2850.65358,0.11630
2848.72485,0.11375
2846.79613,0.11031
2844.86741,0.10666
2842.93868,0.10342
2841.00996,0.10074
2839.08124,0.09848
2837.15251,0.09655
2835.22379,0.09492
2833.29506,0.09349
2831.36634,0.09220
2829.43762,0.09113
2827.50889,0.09019
2825.58017,0.08919
2823.65145,0.08821
2821.72272,0.08734
2819.79400,0.08644
2817.86527,0.08545
2815.93655,0.08446
2814.00783,0.08361
2812.07910,0.08289
2810.15038,0.08218
2808.22166,0.08141
2806.29293,0.08061
2804.36421,0.07976
2802.43549,0.07893
2800.50676,0.07819
2798.57804,0.07749
2796.64931,0.07675
2794.72059,0.07598
2792.79187,0.07531
2790.86314,0.07472
2788.93442,0.07403
2787.00570,0.07321
2785.07697,0.07243
2783.14825,0.07173
2781.21953,0.07099
2779.29080,0.07026
2777.36208,0.06973
2775.43335,0.06930
2773.50463,0.06867
2771.57591,0.06788
2769.64718,0.06717
2767.71846,0.06656
2765.78974,0.06595
2763.86101,0.06533
2761.93229,0.06468
2760.00356,0.06399
2758.07484,0.06333
2756.14612,0.06270
2754.21739,0.06209
2752.28867,0.06156
2750.35995,0.06108
2748.43122,0.06059
2746.50250,0.06009
2744.57378,0.05951
2742.64505,0.05885
2740.71633,0.05820
2738.78760,0.05759
2736.85888,0.05704
2734.93016,0.05650
2733.00143,0.05592
2731.07271,0.05536
2729.14399,0.05491
2727.21526,0.05451
2725.28654,0.05405
2723.35782,0.05350
2721.42909,0.05291
2719.50037,0.05229
2717.57164,0.05165
2715.64292,0.05107
2713.71420,0.05051
2711.78547,0.05001
2709.85675,0.04960
2707.92803,0.04919
2705.99930,0.04870
2704.07058,0.04815
2702.14185,0.04756
2700.21313,0.04698
2698.28441,0.04647
2696.35568,0.04600
2694.42696,0.04552
2692.49824,0.04505
2690.56951,0.04453
2688.64079,0.04399
2686.71207,0.04348
2684.78334,0.04308
2682.85462,0.04274
2680.92589,0.04233
2678.99717,0.04180
2677.06845,0.04125
2675.13972,0.04074
2673.21100,0.04027
2671.28228,0.03981
2669.35355,0.03944
2667.42483,0.03912
2665.49611,0.03874
2663.56738,0.03830
2661.63866,0.03786
2659.70993,0.03742
2657.78121,0.03692
2655.85249,0.03639
2653.92376,0.03595
2651.99504,0.03558
2650.06632,0.03520
2648.13759,0.03478
2646.20887,0.03437
2644.28014,0.03396
2642.35142,0.03357
2640.42270,0.03322
2638.49397,0.03290
2636.56525,0.03256
2634.63653,0.03216
2632.70780,0.03174
2630.77908,0.03130
2628.85036,0.03086
2626.92163,0.03048
2624.99291,0.03010
2623.06418,0.02969
2621.13546,0.02925
2619.20674,0.02885
2617.27801,0.02852
2615.34929,0.02820
2613.42057,0.02783
2611.49184,0.02747
2609.56312,0.02715
2607.63440,0.02682
2605.70567,0.02645
2603.77695,0.02614
2601.84822,0.02590
2599.91950,0.02562
2597.99078,0.02526
2596.06205,0.02487
2594.13333,0.02446
2592.20461,0.02405
2590.27588,0.02370
2588.34716,0.02345
2586.41843,0.02323
2584.48971,0.02296
2582.56099,0.02265
2580.63226,0.02234
2578.70354,0.02206
2576.77482,0.02173
2574.84609,0.02136
2572.91737,0.02104
2570.98865,0.02078
2569.05992,0.02053
2567.13120,0.02024
2565.20247,0.01995
2563.27375,0.01972
2561.34503,0.01953
2559.41630,0.01934
2557.48758,0.01913
2555.55886,0.01893
2553.63013,0.01871
2551.70141,0.01847
2549.77269,0.01823
2547.84396,0.01800
2545.91524,0.01776
2543.98651,0.01753
2542.05779,0.01730
2540.12907,0.01707
2538.20034,0.01679
2536.27162,0.01648
2534.34290,0.01621
2532.41417,0.01597
2530.48545,0.01574
2528.55673,0.01555
2526.62800,0.01537
2524.69928,0.01511
2522.77055,0.01486
2520.84183,0.01470
2518.91311,0.01453
2516.98438,0.01428
2515.05566,0.01408
2513.12694,0.01394
2511.19821,0.01379
2509.26949,0.01362
2507.34076,0.01342
2505.41204,0.01322
2503.48332,0.01306
2501.55459,0.01286
2499.62587,0.01260
2497.69715,0.01238
2495.76842,0.01223
2493.83970,0.01209
2491.91098,0.01196
2489.98225,0.01181
2488.05353,0.01161
2486.12480,0.01137
2484.19608,0.01111
2482.26736,0.01090
2480.33863,0.01073
2478.40991,0.01051
2476.48119,0.01031
2474.55246,0.01018
2472.62374,0.01007
2470.69502,0.00991
2468.76629,0.00971
2466.83757,0.00949
2464.90884,0.00930
2462.98012,0.00916
2461.05140,0.00904
2459.12267,0.00892
2457.19395,0.00872
2455.26523,0.00846
2453.33650,0.00824
2451.40778,0.00806
2449.47905,0.00790
2447.55033,0.00773
2445.62161,0.00753
2443.69288,0.00736
2441.76416,0.00725
2439.83544,0.00716
2437.90671,0.00706
2435.97799,0.00696
2434.04927,0.00687
2432.12054,0.00669
2430.19182,0.00641
2428.26309,0.00614
2426.33437,0.00595
2424.40565,0.00584
2422.47692,0.00575
2420.54820,0.00564
2418.61948,0.00550
2416.69075,0.00534
2414.76203,0.00520
2412.83331,0.00508
2410.90458,0.00497
2408.97586,0.00488
2407.04713,0.00477
2405.11841,0.00459
2403.18969,0.00441
2401.26096,0.00433
2399.33224,0.00426
2397.40352,0.00412
2395.47479,0.00395
2393.54607,0.00383
2391.61734,0.00376
2389.68862,0.00371
2387.75990,0.00367
2385.83117,0.00364
2383.90245,0.00363
2381.97373,0.00362
2380.04500,0.00359
2378.11628,0.00352
2376.18756,0.00346
2374.25883,0.00344
2372.33011,0.00349
2370.40138,0.00356
2368.47266,0.00355
2366.54394,0.00349
2364.61521,0.00345
2362.68649,0.00350
2360.75777,0.00358
2358.82904,0.00344
2356.90032,0.00307
2354.97160,0.00280
2353.04287,0.00290
2351.11415,0.00332
2349.18542,0.00340
2347.25670,0.00279
2345.32798,0.00216
2343.39925,0.00216
2341.47053,0.00243
2339.54181,0.00251
2337.61308,0.00239
2335.68436,0.00224
2333.75563,0.00213
2331.82691,0.00204
2329.89819,0.00192
2327.96946,0.00184
2326.04074,0.00182
2324.11202,0.00188
2322.18329,0.00195
2320.25457,0.00194
2318.32585,0.00183
2316.39712,0.00162
2314.46840,0.00142
2312.53967,0.00130
2310.61095,0.00123
2308.68223,0.00112
2306.75350,0.00099
2304.82478,0.00091
2302.89606,0.00083
2300.96733,0.00071
2299.03861,0.00059
2297.10989,0.00056
2295.18116,0.00059
2293.25244,0.00063
2291.32371,0.00063
2289.39499,0.00057
2287.46627,0.00048
2285.53754,0.00043
2283.60882,0.00043
2281.68010,0.00042
2279.75137,0.00040
2277.82265,0.00038
2275.89392,0.00035
2273.96520,0.00028
2272.03648,0.00021
2270.10775,0.00018
2268.17903,0.00023
2266.25031,0.00031
2264.32158,0.00035
2262.39286,0.00040
2260.46414,0.00043
2258.53541,0.00038
2256.60669,0.00030
2254.67796,0.00023
2252.74924,0.00017
2250.82052,0.00015
2248.89179,0.00018
2246.96307,0.00024
2245.03435,0.00023
2243.10562,0.00013
2241.17690,0.00004
2239.24818,0.00000
2237.31945,-0.00002
2235.39073,0.00000
2233.46200,0.00009
2231.53328,0.00013
2229.60456,0.00012
2227.67583,0.00012
2225.74711,0.00015
2223.81839,0.00019
2221.88966,0.00021
2219.96094,0.00019
2218.03221,0.00016
2216.10349,0.00018
2214.17477,0.00020
2212.24604,0.00015
2210.31732,0.00010
2208.38860,0.00014
2206.45987,0.00016
2204.53115,0.00008
2202.60243,0.00000
2200.67370,-0.00005
2198.74498,-0.00009
2196.81625,-0.00011
2194.88753,-0.00006
2192.95881,0.00001
2191.03008,0.00005
2189.10136,0.00009
2187.17264,0.00014
2185.24391,0.00015
2183.31519,0.00011
2181.38647,0.00010
2179.45774,0.00012
2177.52902,0.00012
2175.60029,0.00014
2173.67157,0.00018
2171.74285,0.00021
2169.81412,0.00024
2167.88540,0.00027
2165.95668,0.00026
2164.02795,0.00020
2162.09923,0.00019
2160.17050,0.00028
2158.24178,0.00036
2156.31306,0.00033
2154.38433,0.00025
2152.45561,0.00020
2150.52689,0.00019
2148.59816,0.00020
2146.66944,0.00023
2144.74072,0.00027
2142.81199,0.00029
2140.88327,0.00029
2138.95454,0.00026
2137.02582,0.00020
2135.09710,0.00019
2133.16837,0.00028
2131.23965,0.00040
2129.31093,0.00043
2127.38220,0.00043
2125.45348,0.00042
2123.52476,0.00040
2121.59603,0.00035
2119.66731,0.00032
2117.73858,0.00025
2115.80986,0.00015
2113.88114,0.00005
2111.95241,-0.00002
2110.02369,-0.00005
2108.09497,-0.00001
2106.16624,0.00006
2104.23752,0.00008
2102.30880,0.00007
2100.38007,0.00004
2098.45135,0.00001
2096.52262,-0.00001
2094.59390,0.00000
2092.66518,-0.00000
2090.73645,-0.00002
2088.80773,-0.00009
2086.87901,-0.00019
2084.95028,-0.00026
2083.02156,-0.00030
2081.09283,-0.00029
2079.16411,-0.00028
2077.23539,-0.00031
2075.30666,-0.00034
2073.37794,-0.00037
2071.44922,-0.00038
2069.52049,-0.00033
2067.59177,-0.00024
2065.66305,-0.00016
2063.73432,-0.00006
2061.80560,0.00010
2059.87687,0.00026
2057.94815,0.00034
2056.01943,0.00036
2054.09070,0.00039
2052.16198,0.00049
2050.23326,0.00060
2048.30453,0.00068
2046.37581,0.00074
2044.44709,0.00086
2042.51836,0.00107
2040.58964,0.00129
2038.66091,0.00145
2036.73219,0.00158
2034.80347,0.00176
2032.87474,0.00199
2030.94602,0.00225
2029.01730,0.00246
2027.08857,0.00263
2025.15985,0.00277
2023.23112,0.00288
2021.30240,0.00302
2019.37368,0.00321
2017.44495,0.00339
2015.51623,0.00353
2013.58751,0.00363
2011.65878,0.00372
2009.73006,0.00387
2007.80134,0.00404
2005.87261,0.00418
2003.94389,0.00423
2002.01516,0.00424
2000.08644,0.00424
1998.15772,0.00422
1996.22899,0.00422
1994.30027,0.00426
1992.37155,0.00430
1990.44282,0.00428
1988.51410,0.00420
1986.58538,0.00407
1984.65665,0.00394
1982.72793,0.00386
1980.79920,0.00378
1978.87048,0.00367
1976.94176,0.00357
1975.01303,0.00349
1973.08431,0.00334
1971.15559,0.00312
1969.22686,0.00295
1967.29814,0.00286
1965.36941,0.00270
1963.44069,0.00239
1961.51197,0.00209
1959.58324,0.00192
1957.65452,0.00184
1955.72580,0.00174
1953.79707,0.00159
1951.86835,0.00143
1949.93963,0.00125
1948.01090,0.00108
1946.08218,0.00092
1944.15345,0.00075
1942.22473,0.00056
1940.29601,0.00040
1938.36728,0.00028
1936.43856,0.00019
1934.50984,0.00009
1932.58111,0.00000
1930.65239,-0.00002
1928.72367,-0.00001
1926.79494,0.00000
1924.86622,0.00002
1922.93749,0.00009
1921.00877,0.00020
1919.08005,0.00038
1917.15132,0.00060
1915.22260,0.00082
1913.29388,0.00108
1911.36515,0.00147
1909.43643,0.00193
1907.50770,0.00237
1905.57898,0.00276
1903.65026,0.00320
1901.72153,0.00369
1899.79281,0.00419
1897.86409,0.00468
1895.93536,0.00517
1894.00664,0.00562
1892.07792,0.00600
1890.14919,0.00637
1888.22047,0.00676
1886.29174,0.00711
1884.36302,0.00740
1882.43430,0.00764
1880.50557,0.00785
1878.57685,0.00802
1876.64813,0.00812
1874.71940,0.00817
1872.79068,0.00824
1870.86196,0.00829
1868.93323,0.00818
1867.00451,0.00789
1865.07578,0.00757
1863.14706,0.00728
1861.21834,0.00694
1859.28961,0.00646
1857.36089,0.00590
1855.43217,0.00533
1853.50344,0.00477
1851.57472,0.00423
1849.64599,0.00372
1847.71727,0.00327
1845.78855,0.00281
1843.85982,0.00229
1841.93110,0.00178
1840.00238,0.00140
1838.07365,0.00114
1836.14493,0.00091
1834.21621,0.00064
1832.28748,0.00042
1830.35876,0.00029
1828.43003,0.00016
1826.50131,0.00000
1824.57259,-0.00006
1822.64386,-0.00006
1820.71514,-0.00010
1818.78642,-0.00016
1816.85769,-0.00014
1814.92897,0.00000
1813.00025,0.00010
1811.07152,0.00026
1809.14280,0.00039
1807.21407,0.00047
1805.28535,0.00061
1803.35663,0.00083
1801.42790,0.00109
1799.49918,0.00136
1797.57046,0.00167
1795.64173,0.00210
1793.71301,0.00272
1791.78428,0.00348
1789.85556,0.00410
1787.92684,0.00456
1785.99811,0.00510
1784.06939,0.00585
1782.14067,0.00673
1780.21194,0.00761
1778.28322,0.00841
1776.35450,0.00914
1774.42577,0.01002
1772.49705,0.01116
1770.56832,0.01225
1768.63960,0.01303
1766.71088,0.01368
1764.78215,0.01438
1762.85343,0.01530
1760.92471,0.01636
1758.99598,0.01731
1757.06726,0.01815
1755.13854,0.01899
1753.20981,0.01993
1751.28109,0.02121
1749.35236,0.02281
1747.42364,0.02440
1745.49492,0.02586
1743.56619,0.02734
1741.63747,0.02901
1739.70875,0.03087
1737.78002,0.03263
1735.85130,0.03439
1733.92257,0.03658
1731.99385,0.03878
1730.06513,0.04055
1728.13640,0.04212
1726.20768,0.04370
1724.27896,0.04534
1722.35023,0.04695
1720.42151,0.04861
1718.49279,0.05077
1716.56406,0.05341
1714.63534,0.05573
1712.70661,0.05758
1710.77789,0.05937
1708.84917,0.06129
1706.92044,0.06349
1704.99172,0.06585
1703.06300,0.06822
1701.13427,0.07114
1699.20555,0.07487
1697.27683,0.07865
1695.34810,0.08223
1693.41938,0.08531
1691.49065,0.08795
1689.56193,0.09067
1687.63321,0.09352
1685.70448,0.09694
1683.77576,0.10142
1681.84704,0.10556
1679.91831,0.10853
1677.98959,0.11115
1676.06087,0.11411
1674.13214,0.11725
1672.20342,0.12014
1670.27469,0.12324
1668.34597,0.12649
1666.41725,0.12898
1664.48852,0.13103
1662.55980,0.13344
1660.63108,0.13594
1658.70235,0.13782
1656.77363,0.13914
1654.84490,0.14068
1652.91618,0.14295
1650.98746,0.14475
1649.05873,0.14566
1647.13001,0.14658
1645.20129,0.14758
1643.27256,0.14821
1641.34384,0.14858
1639.41512,0.14890
1637.48639,0.14936
1635.55767,0.14999
1633.62894,0.15028
1631.70022,0.14997
1629.77150,0.14928
1627.84277,0.14838
1625.91405,0.14728
1623.98533,0.14583
1622.05660,0.14402
1620.12788,0.14216
1618.19916,0.14009
1616.27043,0.13741
1614.34171,0.13458
1612.41298,0.13204
1610.48426,0.12959
1608.55554,0.12700
1606.62681,0.12435
1604.69809,0.12174
1602.76937,0.11916
1600.84064,0.11669
1598.91192,0.11437
1596.98319,0.11219
1595.05447,0.11007
1593.12575,0.10801
1591.19702,0.10600
1589.26830,0.10402
1587.33958,0.10212
1585.41085,0.10034
1583.48213,0.09867
1581.55341,0.09712
1579.62468,0.09570
1577.69596,0.09428
1575.76723,0.09275
1573.83851,0.09146
1571.90979,0.09054
1569.98106,0.08972
1568.05234,0.08882
1566.12362,0.08791
1564.19489,0.08711
1562.26617,0.08642
1560.33745,0.08570
1558.40872,0.08484
1556.48000,0.08402
1554.55127,0.08323
1552.62255,0.08243
1550.69383,0.08167
1548.76510,0.08088
1546.83638,0.07999
1544.90766,0.07901
1542.97893,0.07791
1541.05021,0.07648
1539.12148,0.07467
1537.19276,0.07308
1535.26404,0.07170
1533.33531,0.07003
1531.40659,0.06817
1529.47787,0.06645
1527.54914,0.06474
1525.62042,0.06288
1523.69170,0.06096
1521.76297,0.05894
1519.83425,0.05688
1517.90552,0.05489
1515.97680,0.05284
1514.04808,0.05080
1512.11935,0.04886
1510.19063,0.04690
1508.26191,0.04450
1506.33318,0.04157
1504.40446,0.03913
1502.47574,0.03737
1500.54701,0.03567
1498.61829,0.03381
1496.68956,0.03203
1494.76084,0.03062
1492.83212,0.02957
1490.90339,0.02867
1488.97467,0.02789
1487.04595,0.02736
1485.11722,0.02721
1483.18850,0.02745
1481.25977,0.02802
1479.33105,0.02882
1477.40233,0.02985
1475.47360,0.03141
1473.54488,0.03385
1471.61616,0.03677
1469.68743,0.03904
1467.75871,0.04052
1465.82999,0.04177
1463.90126,0.04291
1461.97254,0.04376
1460.04381,0.04451
1458.11509,0.04554
1456.18637,0.04655
1454.25764,0.04701
1452.32892,0.04716
1450.40020,0.04741
1448.47147,0.04779
1446.54275,0.04819
1444.61403,0.04858
1442.68530,0.04896
1440.75658,0.04935
1438.82785,0.04972
1436.89913,0.05013
1434.97041,0.05060
1433.04168,0.05111
1431.11296,0.05179
1429.18424,0.05260
1427.25551,0.05339
1425.32679,0.05413
1423.39806,0.05488
1421.46934,0.05564
1419.54062,0.05669
1417.61189,0.05804
1415.68317,0.05928
1413.75445,0.06046
1411.82572,0.06192
1409.89700,0.06361
1407.96828,0.06530
1406.03955,0.06685
1404.11083,0.06807
1402.18210,0.06864
1400.25338,0.06831
1398.32466,0.06702
1396.39593,0.06492
1394.46721,0.06229
1392.53849,0.05960
1390.60976,0.05722
1388.68104,0.05510
1386.75232,0.05319
1384.82359,0.05154
1382.89487,0.05006
1380.96614,0.04856
1379.03742,0.04705
1377.10870,0.04558
1375.17997,0.04423
1373.25125,0.04297
1371.32253,0.04171
1369.39380,0.04039
1367.46508,0.03909
1365.53635,0.03790
1363.60763,0.03672
1361.67891,0.03557
1359.75018,0.03458
1357.82146,0.03373
1355.89274,0.03297
1353.96401,0.03229
1352.03529,0.03169
1350.10657,0.03113
1348.17784,0.03065
1346.24912,0.03022
1344.32039,0.02978
1342.39167,0.02940
1340.46295,0.02912
1338.53422,0.02889
1336.60550,0.02865
1334.67678,0.02840
1332.74805,0.02820
1330.81933,0.02808
1328.89061,0.02805
1326.96188,0.02803
1325.03316,0.02798
1323.10443,0.02793
1321.17571,0.02793
1319.24699,0.02798
1317.31826,0.02801
1315.38954,0.02801
1313.46082,0.02799
1311.53209,0.02797
1309.60337,0.02793
1307.67464,0.02785
1305.74592,0.02764
1303.81720,0.02739
1301.88847,0.02749
1299.95975,0.02822
1298.03103,0.02933
1296.10230,0.03049
1294.17358,0.03171
1292.24486,0.03321
1290.31613,0.03510
1288.38741,0.03736
1286.45868,0.03983
1284.52996,0.04238
1282.60124,0.04507
1280.67251,0.04805
1278.74379,0.05132
1276.81507,0.05488
1274.88634,0.05871
1272.95762,0.06275
1271.02890,0.06713
1269.10017,0.07207
1267.17145,0.07767
1265.24272,0.08389
1263.31400,0.09070
1261.38528,0.09825
1259.45655,0.10674
1257.52783,0.11603
1255.59911,0.12570
1253.67038,0.13557
1251.74166,0.14563
1249.81294,0.15575
1247.88421,0.16561
1245.95549,0.17478
1244.02676,0.18295
1242.09804,0.19025
1240.16932,0.19703
1238.24059,0.20341
1236.31187,0.20913
1234.38315,0.21413
1232.45442,0.21869
1230.52570,0.22288
1228.59697,0.22656
1226.66825,0.22987
1224.73953,0.23302
1222.81080,0.23590
1220.88208,0.23847
1218.95336,0.24086
1217.02463,0.24332
1215.09591,0.24586
1213.16719,0.24814
1211.23846,0.24998
1209.30974,0.25155
1207.38101,0.25305
1205.45229,0.25473
1203.52357,0.25674
1201.59484,0.25879
1199.66612,0.26039
1197.73740,0.26134
1195.80867,0.26182
1193.87995,0.26236
1191.95123,0.26330
1190.02250,0.26493
1188.09378,0.26705
1186.16505,0.26900
1184.23633,0.27080
1182.30761,0.27273
1180.37888,0.27465
1178.45016,0.27660
1176.52144,0.27875
1174.59271,0.28096
1172.66399,0.28304
1170.73526,0.28527
1168.80654,0.28786
1166.87782,0.29025
1164.94909,0.29208
1163.02037,0.29376
1161.09165,0.29570
1159.16292,0.29767
1157.23420,0.29923
1155.30548,0.30044
1153.37675,0.30180
1151.44803,0.30325
1149.51930,0.30468
1147.59058,0.30634
1145.66186,0.30811
1143.73313,0.30965
1141.80441,0.31119
1139.87569,0.31295
1137.94696,0.31482
1136.01824,0.31686
1134.08952,0.31920
1132.16079,0.32157
1130.23207,0.32389
1128.30334,0.32641
1126.37462,0.32926
1124.44590,0.33250
1122.51717,0.33608
1120.58845,0.33981
1118.65973,0.34383
1116.73100,0.34845
1114.80228,0.35335
1112.87355,0.35834
1110.94483,0.36377
1109.01611,0.36965
1107.08738,0.37561
1105.15866,0.38105
1103.22994,0.38558
1101.30121,0.38973
1099.37249,0.39391
1097.44377,0.39746
1095.51504,0.39997
1093.58632,0.40194
1091.65759,0.40334
1089.72887,0.40383
1087.80015,0.40379
1085.87142,0.40346
1083.94270,0.40236
1082.01398,0.40076
1080.08525,0.39959
1078.15653,0.39872
1076.22781,0.39735
1074.29908,0.39517
1072.37036,0.39260
1070.44163,0.38966
1068.51291,0.38597
1066.58419,0.38178
1064.65546,0.37746
1062.72674,0.37307
1060.79802,0.36852
1058.86929,0.36377
1056.94057,0.35879
1055.01184,0.35364
1053.08312,0.34845
1051.15440,0.34280
1049.22567,0.33644
1047.29695,0.32987
1045.36823,0.32351
1043.43950,0.31738
1041.51078,0.31130
1039.58206,0.30505
1037.65333,0.29864
1035.72461,0.29213
1033.79588,0.28560
1031.86716,0.27936
1029.93844,0.27344
1028.00971,0.26737
1026.08099,0.26099
1024.15227,0.25471
1022.22354,0.24902
1020.29482,0.24390
1018.36610,0.23889
1016.43737,0.23380
1014.50865,0.22875
1012.57992,0.22388
1010.65120,0.21936
1008.72248,0.21509
1006.79375,0.21077
1004.86503,0.20655
1002.93631,0.20263
1001.00758,0.19878
999.07886,0.19487
997.15013,0.19110
995.22141,0.18760
993.29269,0.18439
991.36396,0.18124
989.43524,0.17798
987.50652,0.17479
985.57779,0.17191
983.64907,0.16940
981.72035,0.16720
979.79162,0.16538
977.86290,0.16402
975.93417,0.16287
974.00545,0.16172
972.07673,0.16080
970.14800,0.16025
968.21928,0.15987
966.29056,0.15941
964.36183,0.15884
962.43311,0.15823
960.50439,0.15768
958.57566,0.15713
956.64694,0.15640
954.71821,0.15564
952.78949,0.15507
950.86077,0.15433
948.93204,0.15291
947.00332,0.15120
945.07460,0.14986
943.14587,0.14867
941.21715,0.14718
939.28842,0.14547
937.35970,0.14386
935.43098,0.14215
933.50225,0.13989
931.57353,0.13720
929.64481,0.13452
927.71608,0.13202
925.78736,0.12944
923.85864,0.12659
921.92991,0.12365
920.00119,0.12071
918.07246,0.11769
916.14374,0.11446
914.21502,0.11110
912.28629,0.10804
910.35757,0.10526
908.42885,0.10223
906.50012,0.09887
904.57140,0.09572
902.64268,0.09294
900.71395,0.09015
898.78523,0.08705
896.85650,0.08357
894.92778,0.08016
892.99906,0.07740
891.07033,0.07500
889.14161,0.07238
887.21289,0.06955
885.28416,0.06691
883.35544,0.06451
881.42671,0.06208
879.49799,0.05965
877.56927,0.05751
875.64054,0.05547
873.71182,0.05338
871.78310,0.05148
869.85437,0.04998
867.92565,0.04880
865.99693,0.04762
864.06820,0.04613
862.13948,0.04444
860.21075,0.04294
858.28203,0.04188
856.35331,0.04116
854.42458,0.04041
852.49586,0.03962
850.56714,0.03903
848.63841,0.03888
846.70969,0.03945
844.78097,0.04060
842.85224,0.04204
840.92352,0.04381
838.99479,0.04608
837.06607,0.04870
835.13735,0.05119
833.20862,0.05360
831.27990,0.05637
829.35118,0.05979
827.42245,0.06354
825.49373,0.06683
823.56501,0.06946
821.63628,0.07198
819.70756,0.07467
817.77883,0.07726
815.85011,0.07968
813.92139,0.08220
811.99266,0.08473
810.06394,0.08719
808.13522,0.08962
806.20649,0.09187
804.27777,0.09368
802.34904,0.09497
800.42032,0.09581
798.49160,0.09619
796.56287,0.09614
794.63415,0.09559
792.70543,0.09430
790.77670,0.09267
788.84798,0.09132
786.91926,0.09006
784.99053,0.08820
783.06181,0.08546
781.13308,0.08222
779.20436,0.07871
777.27564,0.07488
775.34691,0.07105
773.41819,0.06774
771.48947,0.06519
769.56074,0.06319
767.63202,0.06140
765.70330,0.05999
763.77457,0.05917
761.84585,0.05859
759.91712,0.05800
757.98840,0.05748
756.05968,0.05713
754.13095,0.05691
752.20223,0.05654
750.27351,0.05601
748.34478,0.05566
746.41606,0.05559
744.48733,0.05565
742.55861,0.05558
740.62989,0.05523
738.70116,0.05501
736.77244,0.05523
734.84372,0.05551
732.91499,0.05557
730.98627,0.05544
729.05755,0.05525
727.12882,0.05514
725.20010,0.05532
723.27137,0.05573
721.34265,0.05601
719.41393,0.05600
717.48520,0.05598
715.55648,0.05627
713.62776,0.05695
711.69903,0.05791
709.77031,0.05888
707.84159,0.05955
705.91286,0.05998
703.98414,0.06061
702.05541,0.06156
700.12669,0.06228
698.19797,0.06265
696.26924,0.06317
694.34052,0.06390
692.41180,0.06435
690.48307,0.06434
688.55435,0.06440
686.62562,0.06497
684.69690,0.06577
682.76818,0.06620
680.83945,0.06622
678.91073,0.06611
676.98201,0.06604
675.05328,0.06608
673.12456,0.06619
671.19584,0.06582
669.26711,0.06522
667.33839,0.06599
665.40966,0.06737
663.48094,0.06755
661.55222,0.06741
659.62349,0.06827
657.69477,0.06949
655.76605,0.07035
653.83732,0.07135
651.90860,0.07276
649.97988,0.07395
648.05115,0.07457
646.12243,0.07508
644.19370,0.07581
642.26498,0.07686
640.33626,0.07847
638.40753,0.08023
636.47881,0.08118
634.55009,0.08132
632.62136,0.08161
630.69264,0.08232
628.76391,0.08292
626.83519,0.08321
624.90647,0.08399
622.97774,0.08557
621.04902,0.08724
619.12030,0.08856
617.19157,0.08968
615.26285,0.09080
613.33413,0.09194
611.40540,0.09278
609.47668,0.09328
607.54795,0.09407
605.61923,0.09531
603.69051,0.09645
601.76178,0.09749
599.83306,0.09886
597.90434,0.10051
595.97561,0.10207
594.04689,0.10328
592.11817,0.10439
590.18944,0.10550
588.26072,0.10637
586.33199,0.10719
584.40327,0.10833
582.47455,0.10959
580.54582,0.11054
578.61710,0.11102
576.68838,0.11080
574.75965,0.11010
572.83093,0.11015
570.90220,0.11141
568.97348,0.11267
567.04476,0.11276
565.11603,0.11200
563.18731,0.11124
561.25859,0.11065
559.32986,0.11031
557.40114,0.11040
555.47242,0.11064
553.54369,0.11097
551.61497,0.11170
549.68624,0.11250
547.75752,0.11272
545.82880,0.11263
543.90007,0.11333
541.97135,0.11502
540.04263,0.11647
538.11390,0.11682
536.18518,0.11604
534.25646,0.11424
532.32773,0.11227
530.39901,0.11147
528.47028,0.11148
526.54156,0.11132
524.61284,0.11161
522.68411,0.11244
520.75539,0.11272
518.82667,0.11256
516.89794,0.11334
514.96922,0.11551
513.04049,0.11784
511.11177,0.11956
509.18305,0.12165
507.25432,0.12446
505.32560,0.12705
503.39688,0.13015
501.46815,0.13495
499.53943,0.14057
497.61071,0.14631
495.68198,0.15265
493.75326,0.15986
491.82453,0.16742
489.89581,0.17389
487.96709,0.17899
486.03836,0.18447
484.10964,0.19080
482.18092,0.19721
480.25219,0.20390
478.32347,0.21022
476.39475,0.21454
474.46602,0.21756
472.53730,0.22175
470.60857,0.22742
468.67985,0.23232
466.75113,0.23450
464.82240,0.23409
462.89368,0.23175
460.96496,0.22602
459.03623,0.21674
457.10751,0.20920
455.17878,0.20764
453.25006,0.20901
451.32134,0.20898
449.39261,0.20629
447.46389,0.20150
445.53517,0.19582
443.60644,0.19087
441.67772,0.18783
439.74900,0.18533
437.82027,0.17995
435.89155,0.17071
433.96282,0.16175
432.03410,0.15764
430.10538,0.15602
428.17665,0.14981
426.24793,0.13879
424.31921,0.13174
422.39048,0.13201
420.46176,0.13018
418.53304,0.11979
416.60431,0.11195
414.67559,0.11537
412.74686,0.12167
410.81814,0.11964
408.88942,0.11064
406.96069,0.10407
405.03197,0.10019
403.10325,0.09035
401.17452,0.07445
399.24580,0.06179
397.31708,0.05653
395.38835,0.05831
393.45963,0.06490
391.53090,0.06548
389.60218,0.05086
387.67346,0.02604
385.74473,0.00479
383.81601,0.00000
381.88729,0.00601
379.95856,0.00399
378.02984,-0.00589
376.10111,0.00557
374.17239,0.04164
372.24367,0.05427
370.31494,0.03047
368.38622,0.00000
