3996.31543,-0.00003
3994.38671,0.00022
3992.45799,0.00031
3990.52926,0.00026
3988.60054,0.00025
3986.67182,0.00024
3984.74309,0.00017
3982.81437,0.00010
3980.88564,0.00005
3978.95692,0.00000
3977.02820,0.00008
3975.09947,0.00035
3973.17075,0.00056
3971.24203,0.00052
3969.31330,0.00036
3967.38458,0.00031
3965.45586,0.00035
3963.52713,0.00036
3961.59841,0.00032
3959.66968,0.00029
3957.74096,0.00033
3955.81224,0.00042
3953.88351,0.00048
3951.95479,0.00057
3950.02607,0.00067
3948.09734,0.00066
3946.16862,0.00050
3944.23990,0.00039
3942.31117,0.00037
3940.38245,0.00036
3938.45372,0.00033
3936.52500,0.00033
3934.59628,0.00041
3932.66755,0.00059
3930.73883,0.00074
3928.81011,0.00067
3926.88138,0.00049
3924.95266,0.00041
3923.02393,0.00037
3921.09521,0.00026
3919.16649,0.00025
3917.23776,0.00040
3915.30904,0.00047
3913.38032,0.00032
3911.45159,0.00013
3909.52287,0.00014
3907.59415,0.00037
3905.66542,0.00071
3903.73670,0.00105
3901.80797,0.00128
3899.87925,0.00131
3897.95053,0.00106
3896.02180,0.00068
3894.09308,0.00041
3892.16436,0.00029
3890.23563,0.00019
3888.30691,0.00004
3886.37819,0.00000
3884.44946,0.00023
3882.52074,0.00067
3880.59201,0.00106
3878.66329,0.00109
3876.73457,0.00074
3874.80584,0.00030
3872.87712,0.00003
3870.94840,0.00008
3869.01967,0.00033
3867.09095,0.00050
3865.16222,0.00061
3863.23350,0.00071
3861.30478,0.00062
3859.37605,0.00032
3857.44733,0.00005
3855.51861,0.00009
3853.58988,0.00051
3851.66116,0.00084
3849.73244,0.00063
3847.80371,0.00017
3845.87499,-0.00009
3843.94626,-0.00003
3842.01754,0.00012
3840.08882,0.00027
3838.16009,0.00052
3836.23137,0.00072
3834.30265,0.00078
3832.37392,0.00075
3830.44520,0.00067
3828.51648,0.00050
3826.58775,0.00025
3824.65903,0.00002
3822.73030,0.00000
3820.80158,0.00035
3818.87286,0.00081
3816.94413,0.00109
3815.01541,0.00113
3813.08669,0.00096
3811.15796,0.00073
3809.22924,0.00068
3807.30052,0.00082
3805.37179,0.00089
3803.44307,0.00088
3801.51434,0.00111
3799.58562,0.00146
3797.65690,0.00159
3795.72817,0.00158
3793.79945,0.00152
3791.87073,0.00147
3789.94200,0.00151
3788.01328,0.00170
3786.08455,0.00197
3784.15583,0.00217
3782.22711,0.00213
3780.29838,0.00200
3778.36966,0.00209
3776.44094,0.00237
3774.51221,0.00260
3772.58349,0.00272
3770.65477,0.00290
3768.72604,0.00321
3766.79732,0.00362
3764.86859,0.00395
3762.93987,0.00408
3761.01115,0.00420
3759.08242,0.00453
3757.15370,0.00488
3755.22498,0.00514
3753.29625,0.00561
3751.36753,0.00656
3749.43881,0.00767
3747.51008,0.00848
3745.58136,0.00913
3743.65263,0.00960
3741.72391,0.00973
3739.79519,0.00990
3737.86646,0.01063
3735.93774,0.01201
3734.00902,0.01352
3732.08029,0.01468
3730.15157,0.01550
3728.22284,0.01637
3726.29412,0.01757
3724.36540,0.01902
3722.43667,0.02064
3720.50795,0.02246
3718.57923,0.02426
3716.65050,0.02578
3714.72178,0.02724
3712.79306,0.02947
3710.86433,0.03277
3708.93561,0.03601
3707.00688,0.03840
3705.07816,0.04050
3703.14944,0.04308
3701.22071,0.04621
3699.29199,0.04924
3697.36327,0.05190
3695.43454,0.05443
3693.50582,0.05697
3691.57710,0.05990
3689.64837,0.06374
3687.71965,0.06788
3685.79092,0.07134
3683.86220,0.07431
3681.93348,0.07739
3680.00475,0.08070
3678.07603,0.08444
3676.14731,0.08919
3674.21858,0.09420
3672.28986,0.09803
3670.36113,0.10173
3668.43241,0.10593
3666.50369,0.10951
3664.57496,0.11248
3662.64624,0.11555
3660.71752,0.11870
3658.78879,0.12175
3656.86007,0.12494
3654.93135,0.12814
3653.00262,0.13076
3651.07390,0.13333
3649.14517,0.13673
3647.21645,0.14024
3645.28773,0.14290
3643.35900,0.14507
3641.43028,0.14735
3639.50156,0.14978
3637.57283,0.15215
3635.64411,0.15440
3633.71539,0.15647
3631.78666,0.15843
3629.85794,0.16094
3627.92921,0.16418
3626.00049,0.16685
3624.07177,0.16846
3622.14304,0.16973
3620.21432,0.17133
3618.28560,0.17325
3616.35687,0.17497
3614.42815,0.17642
3612.49942,0.17793
3610.57070,0.17956
3608.64198,0.18125
3606.71325,0.18277
3604.78453,0.18396
3602.85581,0.18512
3600.92708,0.18661
3598.99836,0.18829
3597.06964,0.18993
3595.14091,0.19154
3593.21219,0.19303
3591.28346,0.19427
3589.35474,0.19558
3587.42602,0.19731
3585.49729,0.19906
3583.56857,0.20048
3581.63985,0.20177
3579.71112,0.20295
3577.78240,0.20392
3575.85368,0.20491
3573.92495,0.20610
3571.99623,0.20728
3570.06750,0.20832
3568.13878,0.20970
3566.21006,0.21165
3564.28133,0.21339
3562.35261,0.21432
3560.42389,0.21483
3558.49516,0.21551
3556.56644,0.21660
3554.63771,0.21798
3552.70899,0.21931
3550.78027,0.22029
3548.85154,0.22107
3546.92282,0.22215
3544.99410,0.22358
3543.06537,0.22487
3541.13665,0.22572
3539.20793,0.22628
3537.27920,0.22694
3535.35048,0.22793
3533.42175,0.22909
3531.49303,0.23019
3529.56431,0.23117
3527.63558,0.23207
3525.70686,0.23302
3523.77814,0.23406
3521.84941,0.23508
3519.92069,0.23590
3517.99197,0.23657
3516.06324,0.23729
3514.13452,0.23811
3512.20579,0.23895
3510.27707,0.23975
3508.34835,0.24052
3506.41962,0.24126
3504.49090,0.24207
3502.56218,0.24292
3500.63345,0.24351
3498.70473,0.24376
3496.77600,0.24413
3494.84728,0.24503
3492.91856,0.24625
3490.98983,0.24726
3489.06111,0.24794
3487.13239,0.24856
3485.20366,0.24918
3483.27494,0.24964
3481.34622,0.24999
3479.41749,0.25040
3477.48877,0.25090
3475.56004,0.25147
3473.63132,0.25213
3471.70260,0.25285
3469.77387,0.25358
3467.84515,0.25427
3465.91643,0.25482
3463.98770,0.25519
3462.05898,0.25548
3460.13026,0.25592
3458.20153,0.25653
3456.27281,0.25705
3454.34408,0.25747
3452.41536,0.25793
3450.48664,0.25833
3448.55791,0.25869
3446.62919,0.25922
3444.70047,0.25975
3442.77174,0.25996
3440.84302,0.26009
3438.91429,0.26045
3436.98557,0.26089
3435.05685,0.26113
3433.12812,0.26120
3431.19940,0.26135
3429.27068,0.26167
3427.34195,0.26201
3425.41323,0.26233
3423.48451,0.26279
3421.55578,0.26339
3419.62706,0.26391
3417.69833,0.26410
3415.76961,0.26396
3413.84089,0.26391
3411.91216,0.26414
3409.98344,0.26427
3408.05472,0.26411
3406.12599,0.26408
3404.19727,0.26439
3402.26855,0.26467
3400.33982,0.26464
3398.41110,0.26452
3396.48237,0.26459
3394.55365,0.26468
3392.62493,0.26463
3390.69620,0.26465
3388.76748,0.26480
3386.83876,0.26499
3384.91003,0.26511
3382.98131,0.26499
3381.05259,0.26470
3379.12386,0.26445
3377.19514,0.26424
3375.26641,0.26400
3373.33769,0.26397
3371.40897,0.26413
3369.48024,0.26411
3367.55152,0.26384
3365.62280,0.26364
3363.69407,0.26360
3361.76535,0.26348
3359.83662,0.26328
3357.90790,0.26314
3355.97918,0.26303
3354.05045,0.26282
3352.12173,0.26249
3350.19301,0.26212
3348.26428,0.26183
3346.33556,0.26168
3344.40684,0.26156
3342.47811,0.26140
3340.54939,0.26119
3338.62066,0.26088
3336.69194,0.26055
3334.76322,0.26031
3332.83449,0.26012
3330.90577,0.25988
3328.97705,0.25959
3327.04832,0.25935
3325.11960,0.25915
3323.19088,0.25892
3321.26215,0.25874
3319.33343,0.25855
3317.40470,0.25825
3315.47598,0.25797
3313.54726,0.25777
3311.61853,0.25749
3309.68981,0.25708
3307.76109,0.25668
3305.83236,0.25642
3303.90364,0.25626
3301.97491,0.25613
3300.04619,0.25594
3298.11747,0.25559
3296.18874,0.25506
3294.26002,0.25460
3292.33130,0.25447
3290.40257,0.25450
3288.47385,0.25434
3286.54513,0.25407
3284.61640,0.25379
3282.68768,0.25330
3280.75895,0.25271
3278.83023,0.25236
3276.90151,0.25206
3274.97278,0.25148
3273.04406,0.25090
3271.11534,0.25065
3269.18661,0.25051
3267.25789,0.25026
3265.32917,0.24999
3263.40044,0.24960
3261.47172,0.24901
3259.54299,0.24838
3257.61427,0.24789
3255.68555,0.24752
3253.75682,0.24714
3251.82810,0.24673
3249.89938,0.24628
3247.97065,0.24581
3246.04193,0.24543
3244.11320,0.24513
3242.18448,0.24474
3240.25576,0.24416
3238.32703,0.24342
3236.39831,0.24271
3234.46959,0.24216
3232.54086,0.24175
3230.61214,0.24142
3228.68342,0.24110
3226.75469,0.24067
3224.82597,0.24006
3222.89724,0.23935
3220.96852,0.23872
3219.03980,0.23826
3217.11107,0.23789
3215.18235,0.23738
3213.25363,0.23670
3211.32490,0.23605
3209.39618,0.23550
3207.46746,0.23489
3205.53873,0.23416
3203.61001,0.23344
3201.68128,0.23274
3199.75256,0.23195
3197.82384,0.23111
3195.89511,0.23035
3193.96639,0.22969
3192.03767,0.22903
3190.10894,0.22831
3188.18022,0.22758
3186.25149,0.22691
3184.32277,0.22632
3182.39405,0.22573
3180.46532,0.22505
3178.53660,0.22418
3176.60788,0.22309
3174.67915,0.22201
3172.75043,0.22121
3170.82171,0.22063
3168.89298,0.21996
3166.96426,0.21912
3165.03553,0.21821
3163.10681,0.21727
3161.17809,0.21639
3159.24936,0.21563
3157.32064,0.21492
3155.39192,0.21411
3153.46319,0.21322
3151.53447,0.21240
3149.60575,0.21175
3147.67702,0.21110
3145.74830,0.21030
3143.81957,0.20943
3141.89085,0.20852
3139.96213,0.20757
3138.03340,0.20667
3136.10468,0.20588
3134.17596,0.20513
3132.24723,0.20437
3130.31851,0.20351
3128.38978,0.20249
3126.46106,0.20150
3124.53234,0.20075
3122.60361,0.20007
3120.67489,0.19924
3118.74617,0.19834
3116.81744,0.19756
3114.88872,0.19680
3112.96000,0.19592
3111.03127,0.19499
3109.10255,0.19403
3107.17382,0.19303
3105.24510,0.19212
3103.31638,0.19137
3101.38765,0.19059
3099.45893,0.18967
3097.53021,0.18865
3095.60148,0.18763
3093.67276,0.18665
3091.74404,0.18565
3089.81531,0.18461
3087.88659,0.18367
3085.95786,0.18282
3084.02914,0.18193
3082.10042,0.18092
3080.17169,0.17988
3078.24297,0.17894
3076.31425,0.17806
3074.38552,0.17711
3072.45680,0.17614
3070.52807,0.17514
3068.59935,0.17406
3066.67063,0.17296
3064.74190,0.17194
3062.81318,0.17102
3060.88446,0.17018
3058.95573,0.16932
3057.02701,0.16840
3055.09829,0.16736
3053.16956,0.16626
3051.24084,0.16521
3049.31211,0.16422
3047.38339,0.16326
3045.45467,0.16234
3043.52594,0.16144
3041.59722,0.16047
3039.66850,0.15947
3037.73977,0.15852
3035.81105,0.15758
3033.88233,0.15657
3031.95360,0.15557
3030.02488,0.15472
3028.09615,0.15400
3026.16743,0.15338
3024.23871,0.15267
3022.30998,0.15174
3020.38126,0.15084
3018.45254,0.15020
3016.52381,0.14962
3014.59509,0.14892
3012.66636,0.14825
3010.73764,0.14762
3008.80892,0.14686
3006.88019,0.14609
3004.95147,0.14545
3003.02275,0.14478
3001.09402,0.14395
2999.16530,0.14318
2997.23658,0.14259
2995.30785,0.14206
2993.37913,0.14151
2991.45040,0.14100
2989.52168,0.14056
2987.59296,0.14029
2985.66423,0.14021
2983.73551,0.14019
2981.80679,0.14008
2979.87806,0.13988
2977.94934,0.13981
2976.02062,0.14005
2974.09189,0.14035
2972.16317,0.14050
2970.23444,0.14064
2968.30572,0.14099
2966.37700,0.14145
2964.44827,0.14178
2962.51955,0.14195
2960.59083,0.14203
2958.66210,0.14199
2956.73338,0.14182
2954.80466,0.14145
2952.87593,0.14093
2950.94721,0.14050
2949.01848,0.14029
2947.08976,0.14021
2945.16104,0.14035
2943.23231,0.14080
2941.30359,0.14151
2939.37487,0.14243
2937.44614,0.14352
2935.51742,0.14470
2933.58869,0.14587
2931.65997,0.14688
2929.73125,0.14757
2927.80252,0.14795
2925.87380,0.14793
2923.94508,0.14723
2922.01635,0.14572
2920.08763,0.14369
2918.15891,0.14139
2916.23018,0.13879
2914.30146,0.13590
2912.37273,0.13306
2910.44401,0.13055
2908.51529,0.12838
2906.58656,0.12641
2904.65784,0.12459
2902.72912,0.12291
2900.80039,0.12140
2898.87167,0.12007
2896.94295,0.11879
2895.01422,0.11734
2893.08550,0.11581
2891.15677,0.11444
2889.22805,0.11330
2887.29933,0.11223
2885.37060,0.11120
2883.44188,0.11020
2881.51316,0.10929
2879.58443,0.10862
2877.65571,0.10819
2875.72698,0.10783
2873.79826,0.10741
2871.86954,0.10683
2869.94081,0.10611
2868.01209,0.10545
2866.08337,0.10505
2864.15464,0.10497
2862.22592,0.10525
2860.29720,0.10589
2858.36847,0.10673
2856.43975,0.10749
2854.51102,0.10785
2852.58230,0.10734
2850.65358,0.10557
2848.72485,0.10263
2846.79613,0.09907
2844.86741,0.09557
2842.93868,0.09251
2841.00996,0.08997
2839.08124,0.08790
2837.15251,0.08618
2835.22379,0.08463
2833.29506,0.08312
2831.36634,0.08175
2829.43762,0.08063
2827.50889,0.07963
2825.58017,0.07870
2823.65145,0.07782
2821.72272,0.07695
2819.79400,0.07609
2817.86527,0.07526
2815.93655,0.07444
2814.00783,0.07361
2812.07910,0.07278
2810.15038,0.07200
2808.22166,0.07128
2806.29293,0.07060
2804.36421,0.06997
2802.43549,0.06938
2800.50676,0.06872
2798.57804,0.06793
2796.64931,0.06711
2794.72059,0.06641
2792.79187,0.06581
2790.86314,0.06518
2788.93442,0.06450
2787.00570,0.06392
2785.07697,0.06339
2783.14825,0.06280
2781.21953,0.06220
2779.29080,0.06164
2777.36208,0.06103
2775.43335,0.06041
2773.50463,0.05986
2771.57591,0.05931
2769.64718,0.05874
2767.71846,0.05813
2765.78974,0.05747
2763.86101,0.05679
2761.93229,0.05621
2760.00356,0.05571
2758.07484,0.05523
2756.14612,0.05468
2754.21739,0.05407
2752.28867,0.05354
2750.35995,0.05307
2748.43122,0.05260
2746.50250,0.05213
2744.57378,0.05161
2742.64505,0.05105
2740.71633,0.05054
2738.78760,0.05010
2736.85888,0.04960
2734.93016,0.04897
2733.00143,0.04833
2731.07271,0.04778
2729.14399,0.04739
2727.21526,0.04709
2725.28654,0.04673
2723.35782,0.04625
2721.42909,0.04569
2719.50037,0.04508
2717.57164,0.04449
2715.64292,0.04398
2713.71420,0.04352
2711.78547,0.04306
2709.85675,0.04262
2707.92803,0.04224
2705.99930,0.04186
2704.07058,0.04143
2702.14185,0.04094
2700.21313,0.04039
2698.28441,0.03985
2696.35568,0.03934
2694.42696,0.03881
2692.49824,0.03835
2690.56951,0.03797
2688.64079,0.03760
2686.71207,0.03726
2684.78334,0.03691
2682.85462,0.03650
2680.92589,0.03606
2678.99717,0.03563
2677.06845,0.03514
2675.13972,0.03469
2673.21100,0.03433
2671.28228,0.03390
2669.35355,0.03343
2667.42483,0.03305
2665.49611,0.03268
2663.56738,0.03223
2661.63866,0.03177
2659.70993,0.03148
2657.78121,0.03130
2655.85249,0.03100
2653.92376,0.03053
2651.99504,0.03001
2650.06632,0.02951
2648.13759,0.02908
2646.20887,0.02879
2644.28014,0.02855
2642.35142,0.02818
2640.42270,0.02778
2638.49397,0.02749
2636.56525,0.02723
2634.63653,0.02686
2632.70780,0.02645
2630.77908,0.02609
2628.85036,0.02573
2626.92163,0.02534
2624.99291,0.02502
2623.06418,0.02473
2621.13546,0.02434
2619.20674,0.02393
2617.27801,0.02363
2615.34929,0.02336
2613.42057,0.02306
2611.49184,0.02275
2609.56312,0.02243
2607.63440,0.02205
2605.70567,0.02170
2603.77695,0.02142
2601.84822,0.02114
2599.91950,0.02089
2597.99078,0.02066
2596.06205,0.02042
2594.13333,0.02014
2592.20461,0.01986
2590.27588,0.01960
2588.34716,0.01930
2586.41843,0.01898
2584.48971,0.01871
2582.56099,0.01849
2580.63226,0.01825
2578.70354,0.01801
2576.77482,0.01778
2574.84609,0.01756
2572.91737,0.01736
2570.98865,0.01716
2569.05992,0.01696
2567.13120,0.01676
2565.20247,0.01649
2563.27375,0.01624
2561.34503,0.01608
2559.41630,0.01587
2557.48758,0.01557
2555.55886,0.01532
2553.63013,0.01517
2551.70141,0.01508
2549.77269,0.01496
2547.84396,0.01478
2545.91524,0.01456
2543.98651,0.01438
2542.05779,0.01421
2540.12907,0.01399
2538.20034,0.01375
2536.27162,0.01358
2534.34290,0.01342
2532.41417,0.01319
2530.48545,0.01296
2528.55673,0.01280
2526.62800,0.01267
2524.69928,0.01248
2522.77055,0.01228
2520.84183,0.01214
2518.91311,0.01204
2516.98438,0.01193
2515.05566,0.01181
2513.12694,0.01165
2511.19821,0.01144
2509.26949,0.01120
2507.34076,0.01096
2505.41204,0.01072
2503.48332,0.01048
2501.55459,0.01030
2499.62587,0.01022
2497.69715,0.01016
2495.76842,0.01002
2493.83970,0.00983
2491.91098,0.00967
2489.98225,0.00956
2488.05353,0.00942
2486.12480,0.00926
2484.19608,0.00911
2482.26736,0.00892
2480.33863,0.00873
2478.40991,0.00857
2476.48119,0.00841
2474.55246,0.00829
2472.62374,0.00819
2470.69502,0.00802
2468.76629,0.00781
2466.83757,0.00763
2464.90884,0.00745
2462.98012,0.00728
2461.05140,0.00714
2459.12267,0.00701
2457.19395,0.00686
2455.26523,0.00676
2453.33650,0.00670
2451.40778,0.00661
2449.47905,0.00652
2447.55033,0.00639
2445.62161,0.00620
2443.69288,0.00599
2441.76416,0.00583
2439.83544,0.00572
2437.90671,0.00561
2435.97799,0.00550
2434.04927,0.00541
2432.12054,0.00533
2430.19182,0.00516
2428.26309,0.00493
2426.33437,0.00475
2424.40565,0.00464
2422.47692,0.00451
2420.54820,0.00435
2418.61948,0.00421
2416.69075,0.00410
2414.76203,0.00396
2412.83331,0.00385
2410.90458,0.00379
2408.97586,0.00368
2407.04713,0.00353
2405.11841,0.00349
2403.18969,0.00353
2401.26096,0.00346
2399.33224,0.00329
2397.40352,0.00312
2395.47479,0.00297
2393.54607,0.00284
2391.61734,0.00270
2389.68862,0.00262
2387.75990,0.00263
2385.83117,0.00266
2383.90245,0.00262
2381.97373,0.00255
2380.04500,0.00253
2378.11628,0.00257
2376.18756,0.00262
2374.25883,0.00268
2372.33011,0.00271
2370.40138,0.00264
2368.47266,0.00254
2366.54394,0.00253
2364.61521,0.00267
2362.68649,0.00290
2360.75777,0.00307
2358.82904,0.00304
2356.90032,0.00286
2354.97160,0.00271
2353.04287,0.00257
2351.11415,0.00234
2349.18542,0.00212
2347.25670,0.00204
2345.32798,0.00211
2343.39925,0.00220
2341.47053,0.00218
2339.54181,0.00206
2337.61308,0.00192
2335.68436,0.00177
2333.75563,0.00160
2331.82691,0.00143
2329.89819,0.00131
2327.96946,0.00129
2326.04074,0.00138
2324.11202,0.00149
2322.18329,0.00147
2320.25457,0.00134
2318.32585,0.00123
2316.39712,0.00124
2314.46840,0.00132
2312.53967,0.00132
2310.61095,0.00121
2308.68223,0.00106
2306.75350,0.00093
2304.82478,0.00082
2302.89606,0.00073
2300.96733,0.00066
2299.03861,0.00062
2297.10989,0.00064
2295.18116,0.00073
2293.25244,0.00076
2291.32371,0.00070
2289.39499,0.00060
2287.46627,0.00054
2285.53754,0.00053
2283.60882,0.00053
2281.68010,0.00051
2279.75137,0.00048
2277.82265,0.00046
2275.89392,0.00044
2273.96520,0.00047
2272.03648,0.00057
2270.10775,0.00064
2268.17903,0.00061
2266.25031,0.00052
2264.32158,0.00044
2262.39286,0.00039
2260.46414,0.00035
2258.53541,0.00031
2256.60669,0.00027
2254.67796,0.00025
2252.74924,0.00029
2250.82052,0.00033
2248.89179,0.00030
2246.96307,0.00028
2245.03435,0.00030
2243.10562,0.00034
2241.17690,0.00034
2239.24818,0.00028
2237.31945,0.00026
2235.39073,0.00029
2233.46200,0.00026
2231.53328,0.00021
2229.60456,0.00023
2227.67583,0.00026
2225.74711,0.00026
2223.81839,0.00024
2221.88966,0.00024
2219.96094,0.00020
2218.03221,0.00016
2216.10349,0.00020
2214.17477,0.00027
2212.24604,0.00029
2210.31732,0.00020
2208.38860,0.00004
2206.45987,0.00000
2204.53115,0.00009
2202.60243,0.00020
2200.67370,0.00028
2198.74498,0.00033
2196.81625,0.00032
2194.88753,0.00026
2192.95881,0.00024
2191.03008,0.00025
2189.10136,0.00018
2187.17264,0.00009
2185.24391,0.00005
2183.31519,0.00012
2181.38647,0.00021
2179.45774,0.00024
2177.52902,0.00024
2175.60029,0.00018
2173.67157,0.00010
2171.74285,0.00009
2169.81412,0.00011
2167.88540,0.00012
2165.95668,0.00014
2164.02795,0.00015
2162.09923,0.00019
2160.17050,0.00029
2158.24178,0.00036
2156.31306,0.00039
2154.38433,0.00039
2152.45561,0.00035
2150.52689,0.00026
2148.59816,0.00015
2146.66944,0.00012
2144.74072,0.00019
2142.81199,0.00029
2140.88327,0.00035
2138.95454,0.00032
2137.02582,0.00028
2135.09710,0.00030
2133.16837,0.00036
2131.23965,0.00039
2129.31093,0.00036
2127.38220,0.00032
2125.45348,0.00026
2123.52476,0.00021
2121.59603,0.00018
2119.66731,0.00014
2117.73858,0.00011
2115.80986,0.00013
2113.88114,0.00012
2111.95241,0.00006
2110.02369,0.00002
2108.09497,-0.00002
2106.16624,-0.00003
2104.23752,0.00004
2102.30880,0.00013
2100.38007,0.00015
2098.45135,0.00009
2096.52262,0.00003
2094.59390,0.00000
2092.66518,-0.00004
2090.73645,-0.00010
2088.80773,-0.00018
2086.87901,-0.00028
2084.95028,-0.00036
2083.02156,-0.00038
2081.09283,-0.00036
2079.16411,-0.00038
2077.23539,-0.00039
2075.30666,-0.00032
2073.37794,-0.00021
2071.44922,-0.00019
2069.52049,-0.00023
2067.59177,-0.00026
2065.66305,-0.00027
2063.73432,-0.00027
2061.80560,-0.00026
2059.87687,-0.00021
2057.94815,-0.00012
2056.01943,-0.00003
2054.09070,0.00005
2052.16198,0.00011
2050.23326,0.00018
2048.30453,0.00029
2046.37581,0.00044
2044.44709,0.00058
2042.51836,0.00069
2040.58964,0.00081
2038.66091,0.00093
2036.73219,0.00103
2034.80347,0.00113
2032.87474,0.00126
2030.94602,0.00143
2029.01730,0.00162
2027.08857,0.00179
2025.15985,0.00188
2023.23112,0.00195
2021.30240,0.00207
2019.37368,0.00224
2017.44495,0.00236
2015.51623,0.00237
2013.58751,0.00235
2011.65878,0.00241
2009.73006,0.00247
2007.80134,0.00249
2005.87261,0.00256
2003.94389,0.00272
2002.01516,0.00284
2000.08644,0.00288
1998.15772,0.00289
1996.22899,0.00288
1994.30027,0.00283
1992.37155,0.00280
1990.44282,0.00280
1988.51410,0.00279
1986.58538,0.00275
1984.65665,0.00266
1982.72793,0.00256
1980.79920,0.00250
1978.87048,0.00245
1976.94176,0.00237
1975.01303,0.00223
1973.08431,0.00209
1971.15559,0.00198
1969.22686,0.00188
1967.29814,0.00181
1965.36941,0.00175
1963.44069,0.00161
1961.51197,0.00140
1959.58324,0.00124
1957.65452,0.00112
1955.72580,0.00102
1953.79707,0.00091
1951.86835,0.00082
1949.93963,0.00079
1948.01090,0.00078
1946.08218,0.00068
1944.15345,0.00054
1942.22473,0.00045
1940.29601,0.00040
1938.36728,0.00033
1936.43856,0.00024
1934.50984,0.00013
1932.58111,-0.00000
1930.65239,-0.00009
1928.72367,-0.00006
1926.79494,0.00000
1924.86622,0.00001
1922.93749,0.00007
1921.00877,0.00025
1919.08005,0.00049
1917.15132,0.00071
1915.22260,0.00086
1913.29388,0.00104
1911.36515,0.00130
1909.43643,0.00158
1907.50770,0.00186
1905.57898,0.00218
1903.65026,0.00258
1901.72153,0.00302
1899.79281,0.00346
1897.86409,0.00385
1895.93536,0.00416
1894.00664,0.00444
1892.07792,0.00474
1890.14919,0.00512
1888.22047,0.00549
1886.29174,0.00572
1884.36302,0.00586
1882.43430,0.00605
1880.50557,0.00626
1878.57685,0.00643
1876.64813,0.00654
1874.71940,0.00655
1872.79068,0.00648
1870.86196,0.00642
1868.93323,0.00641
1867.00451,0.00630
1865.07578,0.00600
1863.14706,0.00560
1861.21834,0.00522
1859.28961,0.00485
1857.36089,0.00453
1855.43217,0.00424
1853.50344,0.00393
1851.57472,0.00359
1849.64599,0.00326
1847.71727,0.00291
1845.78855,0.00254
1843.85982,0.00219
1841.93110,0.00189
1840.00238,0.00160
1838.07365,0.00130
1836.14493,0.00103
1834.21621,0.00081
1832.28748,0.00065
1830.35876,0.00054
1828.43003,0.00043
1826.50131,0.00028
1824.57259,0.00012
1822.64386,0.00001
1820.71514,-0.00001
1818.78642,0.00004
1816.85769,0.00005
1814.92897,0.00000
1813.00025,-0.00019
1811.07152,-0.00023
1809.14280,-0.00016
1807.21407,-0.00009
1805.28535,-0.00006
1803.35663,0.00002
1801.42790,0.00023
1799.49918,0.00048
1797.57046,0.00066
1795.64173,0.00080
1793.71301,0.00109
1791.78428,0.00162
1789.85556,0.00217
1787.92684,0.00251
1785.99811,0.00281
1784.06939,0.00324
1782.14067,0.00384
1780.21194,0.00444
1778.28322,0.00493
1776.35450,0.00532
1774.42577,0.00587
1772.49705,0.00676
1770.56832,0.00776
1768.63960,0.00855
1766.71088,0.00909
1764.78215,0.00953
1762.85343,0.01004
1760.92471,0.01067
1758.99598,0.01133
1757.06726,0.01206
1755.13854,0.01281
1753.20981,0.01354
1751.28109,0.01449
1749.35236,0.01576
1747.42364,0.01701
1745.49492,0.01818
1743.56619,0.01940
1741.63747,0.02073
1739.70875,0.02212
1737.78002,0.02335
1735.85130,0.02464
1733.92257,0.02654
1731.99385,0.02855
1730.06513,0.02996
1728.13640,0.03107
1726.20768,0.03230
1724.27896,0.03371
1722.35023,0.03507
1720.42151,0.03627
1718.49279,0.03780
1716.56406,0.03994
1714.63534,0.04199
1712.70661,0.04354
1710.77789,0.04494
1708.84917,0.04654
1706.92044,0.04858
1704.99172,0.05083
1703.06300,0.05289
1701.13427,0.05527
1699.20555,0.05848
1697.27683,0.06204
1695.34810,0.06557
1693.41938,0.06859
1691.49065,0.07115
1689.56193,0.07382
1687.63321,0.07654
1685.70448,0.07978
1683.77576,0.08429
1681.84704,0.08847
1679.91831,0.09124
1677.98959,0.09361
1676.06087,0.09657
1674.13214,0.09991
1672.20342,0.10292
1670.27469,0.10603
1668.34597,0.10935
1666.41725,0.11194
1664.48852,0.11403
1662.55980,0.11639
1660.63108,0.11871
1658.70235,0.12036
1656.77363,0.12147
1654.84490,0.12283
1652.91618,0.12483
1650.98746,0.12621
1649.05873,0.12658
1647.13001,0.12708
1645.20129,0.12793
1643.27256,0.12847
1641.34384,0.12859
1639.41512,0.12854
1637.48639,0.12857
1635.55767,0.12877
1633.62894,0.12872
1631.70022,0.12813
1629.77150,0.12714
1627.84277,0.12595
1625.91405,0.12470
1623.98533,0.12328
1622.05660,0.12158
1620.12788,0.11965
1618.19916,0.11740
1616.27043,0.11476
1614.34171,0.11217
1612.41298,0.10979
1610.48426,0.10735
1608.55554,0.10480
1606.62681,0.10223
1604.69809,0.09965
1602.76937,0.09710
1600.84064,0.09468
1598.91192,0.09245
1596.98319,0.09037
1595.05447,0.08839
1593.12575,0.08644
1591.19702,0.08447
1589.26830,0.08249
1587.33958,0.08059
1585.41085,0.07877
1583.48213,0.07701
1581.55341,0.07534
1579.62468,0.07380
1577.69596,0.07239
1575.76723,0.07101
1573.83851,0.06974
1571.90979,0.06862
1569.98106,0.06759
1568.05234,0.06664
1566.12362,0.06576
1564.19489,0.06491
1562.26617,0.06407
1560.33745,0.06334
1558.40872,0.06282
1556.48000,0.06230
1554.55127,0.06156
1552.62255,0.06070
1550.69383,0.05976
1548.76510,0.05874
1546.83638,0.05767
1544.90766,0.05644
1542.97893,0.05488
1541.05021,0.05312
1539.12148,0.05158
1537.19276,0.05037
1535.26404,0.04917
1533.33531,0.04773
1531.40659,0.04606
1529.47787,0.04425
1527.54914,0.04220
1525.62042,0.04005
1523.69170,0.03806
1521.76297,0.03618
1519.83425,0.03432
1517.90552,0.03247
1515.97680,0.03056
1514.04808,0.02868
1512.11935,0.02694
1510.19063,0.02526
1508.26191,0.02324
1506.33318,0.02065
1504.40446,0.01826
1502.47574,0.01636
1500.54701,0.01457
1498.61829,0.01273
1496.68956,0.01093
1494.76084,0.00935
1492.83212,0.00803
1490.90339,0.00699
1488.97467,0.00628
1487.04595,0.00589
1485.11722,0.00569
1483.18850,0.00570
1481.25977,0.00603
1479.33105,0.00669
1477.40233,0.00765
1475.47360,0.00913
1473.54488,0.01158
1471.61616,0.01471
1469.68743,0.01724
1467.75871,0.01888
1465.82999,0.02020
1463.90126,0.02128
1461.97254,0.02184
1460.04381,0.02211
1458.11509,0.02273
1456.18637,0.02360
1454.25764,0.02392
1452.32892,0.02375
1450.40020,0.02361
1448.47147,0.02366
1446.54275,0.02388
1444.61403,0.02417
1442.68530,0.02442
1440.75658,0.02460
1438.82785,0.02476
1436.89913,0.02507
1434.97041,0.02549
1433.04168,0.02581
1431.11296,0.02612
1429.18424,0.02654
1427.25551,0.02697
1425.32679,0.02740
1423.39806,0.02791
1421.46934,0.02851
1419.54062,0.02929
1417.61189,0.03022
1415.68317,0.03101
1413.75445,0.03167
1411.82572,0.03240
1409.89700,0.03320
1407.96828,0.03404
1406.03955,0.03493
1404.11083,0.03564
1402.18210,0.03579
1400.25338,0.03526
1398.32466,0.03420
1396.39593,0.03275
1394.46721,0.03104
1392.53849,0.02930
1390.60976,0.02771
1388.68104,0.02635
1386.75232,0.02532
1384.82359,0.02453
1382.89487,0.02360
1380.96614,0.02242
1379.03742,0.02117
1377.10870,0.01997
1375.17997,0.01881
1373.25125,0.01769
1371.32253,0.01664
1369.39380,0.01562
1367.46508,0.01457
1365.53635,0.01350
1363.60763,0.01238
1361.67891,0.01125
1359.75018,0.01028
1357.82146,0.00946
1355.89274,0.00867
1353.96401,0.00792
1352.03529,0.00728
1350.10657,0.00677
1348.17784,0.00641
1346.24912,0.00609
1344.32039,0.00572
1342.39167,0.00529
1340.46295,0.00493
1338.53422,0.00476
1336.60550,0.00469
1334.67678,0.00456
1332.74805,0.00431
1330.81933,0.00408
1328.89061,0.00397
1326.96188,0.00395
1325.03316,0.00397
1323.10443,0.00405
1321.17571,0.00415
1319.24699,0.00424
1317.31826,0.00439
1315.38954,0.00459
1313.46082,0.00479
1311.53209,0.00499
1309.60337,0.00525
1307.67464,0.00562
1305.74592,0.00603
1303.81720,0.00630
1301.88847,0.00660
1299.95975,0.00727
1298.03103,0.00827
1296.10230,0.00945
1294.17358,0.01077
1292.24486,0.01225
1290.31613,0.01400
1288.38741,0.01600
1286.45868,0.01813
1284.52996,0.02041
1282.60124,0.02301
1280.67251,0.02590
1278.74379,0.02898
1276.81507,0.03230
1274.88634,0.03591
1272.95762,0.03986
1271.02890,0.04431
1269.10017,0.04934
1267.17145,0.05500
1265.24272,0.06139
1263.31400,0.06861
1261.38528,0.07666
1259.45655,0.08545
1257.52783,0.09498
1255.59911,0.10526
1253.67038,0.11603
1251.74166,0.12684
1249.81294,0.13737
1247.88421,0.14751
1245.95549,0.15720
1244.02676,0.16617
1242.09804,0.17424
1240.16932,0.18142
1238.24059,0.18784
1236.31187,0.19363
1234.38315,0.19888
1232.45442,0.20374
1230.52570,0.20834
1228.59697,0.21252
1226.66825,0.21611
1224.73953,0.21935
1222.81080,0.22243
1220.88208,0.22539
1218.95336,0.22814
1217.02463,0.23055
1215.09591,0.23280
1213.16719,0.23520
1211.23846,0.23772
1209.30974,0.24022
1207.38101,0.24260
1205.45229,0.24485
1203.52357,0.24706
1201.59484,0.24927
1199.66612,0.25145
1197.73740,0.25359
1195.80867,0.25562
1193.87995,0.25765
1191.95123,0.25973
1190.02250,0.26151
1188.09378,0.26298
1186.16505,0.26477
1184.23633,0.26716
1182.30761,0.26962
1180.37888,0.27175
1178.45016,0.27389
1176.52144,0.27635
1174.59271,0.27879
1172.66399,0.28089
1170.73526,0.28281
1168.80654,0.28455
1166.87782,0.28623
1164.94909,0.28826
1163.02037,0.29039
1161.09165,0.29215
1159.16292,0.29383
1157.23420,0.29588
1155.30548,0.29816
1153.37675,0.30031
1151.44803,0.30210
1149.51930,0.30368
1147.59058,0.30540
1145.66186,0.30711
1143.73313,0.30850
1141.80441,0.30990
1139.87569,0.31186
1137.94696,0.31402
1136.01824,0.31587
1134.08952,0.31791
1132.16079,0.32055
1130.23207,0.32353
1128.30334,0.32646
1126.37462,0.32944
1124.44590,0.33286
1122.51717,0.33686
1120.58845,0.34127
1118.65973,0.34588
1116.73100,0.35100
1114.80228,0.35697
1112.87355,0.36373
1110.94483,0.37111
1109.01611,0.37867
1107.08738,0.38603
1105.15866,0.39313
1103.22994,0.39987
1101.30121,0.40604
1099.37249,0.41114
1097.44377,0.41463
1095.51504,0.41688
1093.58632,0.41872
1091.65759,0.41995
1089.72887,0.41990
1087.80015,0.41880
1085.87142,0.41748
1083.94270,0.41614
1082.01398,0.41442
1080.08525,0.41239
1078.15653,0.41037
1076.22781,0.40783
1074.29908,0.40404
1072.37036,0.39981
1070.44163,0.39586
1068.51291,0.39165
1066.58419,0.38681
1064.65546,0.38140
1062.72674,0.37568
1060.79802,0.36997
1058.86929,0.36450
1056.94057,0.35905
1055.01184,0.35300
1053.08312,0.34616
1051.15440,0.33904
1049.22567,0.33229
1047.29695,0.32574
1045.36823,0.31884
1043.43950,0.31168
1041.51078,0.30453
1039.58206,0.29757
1037.65333,0.29075
1035.72461,0.28384
1033.79588,0.27675
1031.86716,0.26974
1029.93844,0.26321
1028.00971,0.25703
1026.08099,0.25065
1024.15227,0.24434
1022.22354,0.23850
1020.29482,0.23294
1018.36610,0.22792
1016.43737,0.22369
1014.50865,0.21963
1012.57992,0.21533
1010.65120,0.21123
1008.72248,0.20764
1006.79375,0.20433
1004.86503,0.20118
1002.93631,0.19805
1001.00758,0.19466
999.07886,0.19124
997.15013,0.18828
995.22141,0.18579
993.29269,0.18327
991.36396,0.18066
989.43524,0.17821
987.50652,0.17591
985.57779,0.17372
983.64907,0.17194
981.72035,0.17060
979.79162,0.16945
977.86290,0.16847
975.93417,0.16781
974.00545,0.16740
972.07673,0.16683
970.14800,0.16611
968.21928,0.16564
966.29056,0.16535
964.36183,0.16502
962.43311,0.16463
960.50439,0.16396
958.57566,0.16298
956.64694,0.16219
954.71821,0.16154
952.78949,0.16046
950.86077,0.15910
948.93204,0.15765
947.00332,0.15596
945.07460,0.15431
943.14587,0.15273
941.21715,0.15074
939.28842,0.14838
937.35970,0.14596
935.43098,0.14349
933.50225,0.14086
931.57353,0.13801
929.64481,0.13502
927.71608,0.13196
925.78736,0.12893
923.85864,0.12609
921.92991,0.12327
920.00119,0.12012
918.07246,0.11669
916.14374,0.11307
914.21502,0.10940
912.28629,0.10579
910.35757,0.10211
908.42885,0.09834
906.50012,0.09476
904.57140,0.09138
902.64268,0.08792
900.71395,0.08446
898.78523,0.08120
896.85650,0.07814
894.92778,0.07513
892.99906,0.07185
891.07033,0.06835
889.14161,0.06519
887.21289,0.06263
885.28416,0.06041
883.35544,0.05815
881.42671,0.05559
879.49799,0.05310
877.56927,0.05102
875.64054,0.04915
873.71182,0.04725
871.78310,0.04506
869.85437,0.04267
867.92565,0.04086
865.99693,0.03963
864.06820,0.03822
862.13948,0.03641
860.21075,0.03454
858.28203,0.03298
856.35331,0.03167
854.42458,0.03049
852.49586,0.02956
850.56714,0.02883
848.63841,0.02833
846.70969,0.02837
844.78097,0.02905
842.85224,0.03000
840.92352,0.03111
838.99479,0.03280
837.06607,0.03507
835.13735,0.03747
833.20862,0.03982
831.27990,0.04213
829.35118,0.04425
827.42245,0.04656
825.49373,0.04940
823.56501,0.05214
821.63628,0.05434
819.70756,0.05648
817.77883,0.05907
815.85011,0.06203
813.92139,0.06494
811.99266,0.06729
810.06394,0.06902
808.13522,0.07079
806.20649,0.07309
804.27777,0.07527
802.34904,0.07662
800.42032,0.07746
798.49160,0.07809
796.56287,0.07830
794.63415,0.07797
792.70543,0.07716
790.77670,0.07597
788.84798,0.07448
786.91926,0.07273
784.99053,0.07055
783.06181,0.06778
781.13308,0.06469
779.20436,0.06146
777.27564,0.05826
775.34691,0.05522
773.41819,0.05208
771.48947,0.04896
769.56074,0.04656
767.63202,0.04520
765.70330,0.04458
763.77457,0.04411
761.84585,0.04350
759.91712,0.04300
757.98840,0.04265
756.05968,0.04217
754.13095,0.04159
752.20223,0.04111
750.27351,0.04098
748.34478,0.04117
746.41606,0.04124
744.48733,0.04094
742.55861,0.04044
740.62989,0.04012
738.70116,0.04008
736.77244,0.04004
734.84372,0.03995
732.91499,0.03990
730.98627,0.03989
729.05755,0.04017
727.12882,0.04082
725.20010,0.04134
723.27137,0.04158
721.34265,0.04192
719.41393,0.04249
717.48520,0.04291
715.55648,0.04262
713.62776,0.04183
711.69903,0.04162
709.77031,0.04252
707.84159,0.04401
705.91286,0.04523
703.98414,0.04581
702.05541,0.04612
700.12669,0.04660
698.19797,0.04745
696.26924,0.04854
694.34052,0.04951
692.41180,0.05008
690.48307,0.05036
688.55435,0.05056
686.62562,0.05089
684.69690,0.05161
682.76818,0.05261
680.83945,0.05313
678.91073,0.05280
676.98201,0.05228
675.05328,0.05215
673.12456,0.05261
671.19584,0.05371
669.26711,0.05498
667.33839,0.05539
665.40966,0.05493
663.48094,0.05456
661.55222,0.05457
659.62349,0.05491
657.69477,0.05557
655.76605,0.05648
653.83732,0.05754
651.90860,0.05861
649.97988,0.05972
648.05115,0.06116
646.12243,0.06303
644.19370,0.06488
642.26498,0.06621
640.33626,0.06720
638.40753,0.06842
636.47881,0.06976
634.55009,0.07065
632.62136,0.07107
630.69264,0.07159
628.76391,0.07257
626.83519,0.07388
624.90647,0.07479
622.97774,0.07543
621.04902,0.07663
619.12030,0.07817
617.19157,0.07972
615.26285,0.08135
613.33413,0.08259
611.40540,0.08319
609.47668,0.08395
607.54795,0.08523
605.61923,0.08628
603.69051,0.08690
601.76178,0.08848
599.83306,0.09116
597.90434,0.09306
595.97561,0.09370
594.04689,0.09435
592.11817,0.09588
590.18944,0.09799
588.26072,0.09961
586.33199,0.10019
584.40327,0.10045
582.47455,0.10117
580.54582,0.10225
578.61710,0.10352
576.68838,0.10433
574.75965,0.10399
572.83093,0.10353
570.90220,0.10374
568.97348,0.10417
567.04476,0.10465
565.11603,0.10475
563.18731,0.10389
561.25859,0.10306
559.32986,0.10354
557.40114,0.10472
555.47242,0.10538
553.54369,0.10575
551.61497,0.10676
549.68624,0.10788
547.75752,0.10781
545.82880,0.10682
543.90007,0.10656
541.97135,0.10792
540.04263,0.10942
538.11390,0.10939
536.18518,0.10819
534.25646,0.10669
532.32773,0.10580
530.39901,0.10622
528.47028,0.10690
526.54156,0.10670
524.61284,0.10603
522.68411,0.10533
520.75539,0.10462
518.82667,0.10414
516.89794,0.10434
514.96922,0.10564
513.04049,0.10840
511.11177,0.11247
509.18305,0.11618
507.25432,0.11804
505.32560,0.11907
503.39688,0.12192
501.46815,0.12820
499.53943,0.13629
497.61071,0.14355
495.68198,0.15016
493.75326,0.15792
491.82453,0.16717
489.89581,0.17557
487.96709,0.18151
486.03836,0.18749
484.10964,0.19576
482.18092,0.20459
480.25219,0.21225
478.32347,0.21913
476.39475,0.22641
474.46602,0.23471
472.53730,0.24043
470.60857,0.24052
468.67985,0.23982
466.75113,0.24237
464.82240,0.24575
462.89368,0.24730
460.96496,0.24634
459.03623,0.24067
457.10751,0.23014
455.17878,0.22045
453.25006,0.21394
451.32134,0.20852
449.39261,0.20378
447.46389,0.19909
445.53517,0.19319
443.60644,0.18788
441.67772,0.18471
439.74900,0.18135
437.82027,0.17676
435.89155,0.17205
433.96282,0.16716
432.03410,0.16284
430.10538,0.15941
428.17665,0.15454
426.24793,0.14675
424.31921,0.13742
422.39048,0.12901
420.46176,0.12206
418.53304,0.11472
416.60431,0.10694
414.67559,0.10043
412.74686,0.09485
410.81814,0.08917
408.88942,0.08402
406.96069,0.07981
405.03197,0.07542
403.10325,0.07219
401.17452,0.07351
399.24580,0.08125
397.31708,0.09236
395.38835,0.09180
393.45963,0.07185
391.53090,0.04826
389.60218,0.03686
387.67346,0.03806
385.74473,0.04789
383.81601,0.06195
381.88729,0.06843
379.95856,0.05591
378.02984,0.02495
376.10111,0.00000
374.17239,0.00413
372.24367,0.02141
370.31494,0.01603
368.38622,0.00000
