3996.31543,0.00020
3994.38671,0.00012
3992.45799,0.00000
3990.52926,0.00001
3988.60054,0.00013
3986.67182,0.00021
3984.74309,0.00028
3982.81437,0.00045
3980.88564,0.00070
3978.95692,0.00090
3977.02820,0.00102
3975.09947,0.00108
3973.17075,0.00099
3971.24203,0.00074
3969.31330,0.00050
3967.38458,0.00050
3965.45586,0.00073
3963.52713,0.00100
3961.59841,0.00111
3959.66968,0.00107
3957.74096,0.00101
3955.81224,0.00100
3953.88351,0.00106
3951.95479,0.00117
3950.02607,0.00124
3948.09734,0.00120
3946.16862,0.00112
3944.23990,0.00100
3942.31117,0.00079
3940.38245,0.00059
3938.45372,0.00063
3936.52500,0.00099
3934.59628,0.00145
3932.66755,0.00153
3930.73883,0.00118
3928.81011,0.00094
3926.88138,0.00099
3924.95266,0.00104
3923.02393,0.00095
3921.09521,0.00090
3919.16649,0.00095
3917.23776,0.00090
3915.30904,0.00080
3913.38032,0.00091
3911.45159,0.00117
3909.52287,0.00145
3907.59415,0.00173
3905.66542,0.00195
3903.73670,0.00195
3901.80797,0.00165
3899.87925,0.00111
3897.95053,0.00066
3896.02180,0.00074
3894.09308,0.00113
3892.16436,0.00114
3890.23563,0.00078
3888.30691,0.00072
3886.37819,0.00083
3884.44946,0.00075
3882.52074,0.00078
3880.59201,0.00092
3878.66329,0.00102
3876.73457,0.00128
3874.80584,0.00164
3872.87712,0.00192
3870.94840,0.00194
3869.01967,0.00162
3867.09095,0.00142
3865.16222,0.00133
3863.23350,0.00097
3861.30478,0.00071
3859.37605,0.00113
3857.44733,0.00211
3855.51861,0.00274
3853.58988,0.00195
3851.66116,0.00046
3849.73244,0.00000
3847.80371,0.00044
3845.87499,0.00100
3843.94626,0.00128
3842.01754,0.00132
3840.08882,0.00127
3838.16009,0.00103
3836.23137,0.00074
3834.30265,0.00071
3832.37392,0.00074
3830.44520,0.00069
3828.51648,0.00070
3826.58775,0.00081
3824.65903,0.00112
3822.73030,0.00156
3820.80158,0.00176
3818.87286,0.00176
3816.94413,0.00162
3815.01541,0.00120
3813.08669,0.00100
3811.15796,0.00137
3809.22924,0.00192
3807.30052,0.00213
3805.37179,0.00220
3803.44307,0.00244
3801.51434,0.00246
3799.58562,0.00217
3797.65690,0.00203
3795.72817,0.00203
3793.79945,0.00214
3791.87073,0.00239
3789.94200,0.00273
3788.01328,0.00313
3786.08455,0.00347
3784.15583,0.00372
3782.22711,0.00395
3780.29838,0.00405
3778.36966,0.00397
3776.44094,0.00409
3774.51221,0.00460
3772.58349,0.00522
3770.65477,0.00559
3768.72604,0.00574
3766.79732,0.00590
3764.86859,0.00618
3762.93987,0.00671
3761.01115,0.00739
3759.08242,0.00797
3757.15370,0.00858
3755.22498,0.00952
3753.29625,0.01060
3751.36753,0.01141
3749.43881,0.01201
3747.51008,0.01275
3745.58136,0.01340
3743.65263,0.01375
3741.72391,0.01440
3739.79519,0.01574
3737.86646,0.01737
3735.93774,0.01871
3734.00902,0.01961
3732.08029,0.02054
3730.15157,0.02179
3728.22284,0.02335
3726.29412,0.02509
3724.36540,0.02694
3722.43667,0.02904
3720.50795,0.03146
3718.57923,0.03401
3716.65050,0.03658
3714.72178,0.03936
3712.79306,0.04263
3710.86433,0.04616
3708.93561,0.04956
3707.00688,0.05285
3705.07816,0.05624
3703.14944,0.05985
3701.22071,0.06360
3699.29199,0.06736
3697.36327,0.07114
3695.43454,0.07489
3693.50582,0.07851
3691.57710,0.08225
3689.64837,0.08644
3687.71965,0.09080
3685.79092,0.09498
3683.86220,0.09909
3681.93348,0.10334
3680.00475,0.10783
3678.07603,0.11271
3676.14731,0.11823
3674.21858,0.12388
3672.28986,0.12887
3670.36113,0.13366
3668.43241,0.13845
3666.50369,0.14278
3664.57496,0.14683
3662.64624,0.15091
3660.71752,0.15494
3658.78879,0.15885
3656.86007,0.16279
3654.93135,0.16670
3653.00262,0.17041
3651.07390,0.17427
3649.14517,0.17850
3647.21645,0.18253
3645.28773,0.18595
3643.35900,0.18904
3641.43028,0.19215
3639.50156,0.19531
3637.57283,0.19836
3635.64411,0.20126
3633.71539,0.20416
3631.78666,0.20716
3629.85794,0.21031
3627.92921,0.21342
3626.00049,0.21604
3624.07177,0.21828
3622.14304,0.22042
3620.21432,0.22257
3618.28560,0.22474
3616.35687,0.22687
3614.42815,0.22898
3612.49942,0.23112
3610.57070,0.23322
3608.64198,0.23525
3606.71325,0.23714
3604.78453,0.23886
3602.85581,0.24056
3600.92708,0.24234
3598.99836,0.24419
3597.06964,0.24610
3595.14091,0.24812
3593.21219,0.25011
3591.28346,0.25188
3589.35474,0.25350
3587.42602,0.25511
3585.49729,0.25671
3583.56857,0.25837
3581.63985,0.26025
3579.71112,0.26224
3577.78240,0.26399
3575.85368,0.26543
3573.92495,0.26682
3571.99623,0.26831
3570.06750,0.26981
3568.13878,0.27138
3566.21006,0.27319
3564.28133,0.27506
3562.35261,0.27671
3560.42389,0.27807
3558.49516,0.27921
3556.56644,0.28031
3554.63771,0.28150
3552.70899,0.28290
3550.78027,0.28449
3548.85154,0.28607
3546.92282,0.28751
3544.99410,0.28882
3543.06537,0.29002
3541.13665,0.29116
3539.20793,0.29238
3537.27920,0.29365
3535.35048,0.29486
3533.42175,0.29600
3531.49303,0.29717
3529.56431,0.29848
3527.63558,0.29993
3525.70686,0.30134
3523.77814,0.30238
3521.84941,0.30317
3519.92069,0.30414
3517.99197,0.30537
3516.06324,0.30662
3514.13452,0.30779
3512.20579,0.30893
3510.27707,0.31006
3508.34835,0.31118
3506.41962,0.31218
3504.49090,0.31307
3502.56218,0.31401
3500.63345,0.31499
3498.70473,0.31587
3496.77600,0.31667
3494.84728,0.31756
3492.91856,0.31856
3490.98983,0.31955
3489.06111,0.32046
3487.13239,0.32132
3485.20366,0.32215
3483.27494,0.32298
3481.34622,0.32392
3479.41749,0.32490
3477.48877,0.32574
3475.56004,0.32645
3473.63132,0.32722
3471.70260,0.32809
3469.77387,0.32886
3467.84515,0.32938
3465.91643,0.32976
3463.98770,0.33022
3462.05898,0.33089
3460.13026,0.33172
3458.20153,0.33246
3456.27281,0.33290
3454.34408,0.33327
3452.41536,0.33395
3450.48664,0.33486
3448.55791,0.33565
3446.62919,0.33613
3444.70047,0.33648
3442.77174,0.33683
3440.84302,0.33721
3438.91429,0.33755
3436.98557,0.33783
3435.05685,0.33811
3433.12812,0.33849
3431.19940,0.33893
3429.27068,0.33925
3427.34195,0.33955
3425.41323,0.34007
3423.48451,0.34061
3421.55578,0.34080
3419.62706,0.34078
3417.69833,0.34087
3415.76961,0.34110
3413.84089,0.34133
3411.91216,0.34159
3409.98344,0.34188
3408.05472,0.34211
3406.12599,0.34231
3404.19727,0.34252
3402.26855,0.34269
3400.33982,0.34271
3398.41110,0.34259
3396.48237,0.34237
3394.55365,0.34208
3392.62493,0.34188
3390.69620,0.34191
3388.76748,0.34197
3386.83876,0.34179
3384.91003,0.34136
3382.98131,0.34098
3381.05259,0.34083
3379.12386,0.34076
3377.19514,0.34063
3375.26641,0.34044
3373.33769,0.34010
3371.40897,0.33960
3369.48024,0.33924
3367.55152,0.33920
3365.62280,0.33919
3363.69407,0.33893
3361.76535,0.33845
3359.83662,0.33784
3357.90790,0.33725
3355.97918,0.33696
3354.05045,0.33692
3352.12173,0.33682
3350.19301,0.33655
3348.26428,0.33624
3346.33556,0.33582
3344.40684,0.33509
3342.47811,0.33421
3340.54939,0.33356
3338.62066,0.33328
3336.69194,0.33315
3334.76322,0.33286
3332.83449,0.33245
3330.90577,0.33207
3328.97705,0.33173
3327.04832,0.33130
3325.11960,0.33077
3323.19088,0.33031
3321.26215,0.32999
3319.33343,0.32972
3317.40470,0.32941
3315.47598,0.32909
3313.54726,0.32873
3311.61853,0.32830
3309.68981,0.32780
3307.76109,0.32728
3305.83236,0.32678
3303.90364,0.32635
3301.97491,0.32591
3300.04619,0.32531
3298.11747,0.32462
3296.18874,0.32417
3294.26002,0.32404
3292.33130,0.32397
3290.40257,0.32369
3288.47385,0.32322
3286.54513,0.32263
3284.61640,0.32198
3282.68768,0.32139
3280.75895,0.32097
3278.83023,0.32064
3276.90151,0.32021
3274.97278,0.31954
3273.04406,0.31887
3271.11534,0.31840
3269.18661,0.31792
3267.25789,0.31725
3265.32917,0.31657
3263.40044,0.31604
3261.47172,0.31561
3259.54299,0.31512
3257.61427,0.31454
3255.68555,0.31393
3253.75682,0.31330
3251.82810,0.31260
3249.89938,0.31192
3247.97065,0.31134
3246.04193,0.31073
3244.11320,0.30999
3242.18448,0.30919
3240.25576,0.30844
3238.32703,0.30786
3236.39831,0.30734
3234.46959,0.30670
3232.54086,0.30595
3230.61214,0.30518
3228.68342,0.30448
3226.75469,0.30384
3224.82597,0.30320
3222.89724,0.30249
3220.96852,0.30173
3219.03980,0.30095
3217.11107,0.30019
3215.18235,0.29934
3213.25363,0.29835
3211.32490,0.29717
3209.39618,0.29590
3207.46746,0.29480
3205.53873,0.29399
3203.61001,0.29335
3201.68128,0.29259
3199.75256,0.29154
3197.82384,0.29035
3195.89511,0.28924
3193.96639,0.28823
3192.03767,0.28726
3190.10894,0.28624
3188.18022,0.28519
3186.25149,0.28421
3184.32277,0.28336
3182.39405,0.28252
3180.46532,0.28157
3178.53660,0.28047
3176.60788,0.27923
3174.67915,0.27800
3172.75043,0.27698
3170.82171,0.27598
3168.89298,0.27475
3166.96426,0.27343
3165.03553,0.27230
3163.10681,0.27122
3161.17809,0.27011
3159.24936,0.26913
3157.32064,0.26819
3155.39192,0.26713
3153.46319,0.26616
3151.53447,0.26526
3149.60575,0.26417
3147.67702,0.26296
3145.74830,0.26173
3143.81957,0.26048
3141.89085,0.25934
3139.96213,0.25834
3138.03340,0.25739
3136.10468,0.25638
3134.17596,0.25528
3132.24723,0.25407
3130.31851,0.25284
3128.38978,0.25172
3126.46106,0.25070
3124.53234,0.24972
3122.60361,0.24877
3120.67489,0.24780
3118.74617,0.24670
3116.81744,0.24549
3114.88872,0.24427
3112.96000,0.24305
3111.03127,0.24185
3109.10255,0.24072
3107.17382,0.23960
3105.24510,0.23842
3103.31638,0.23725
3101.38765,0.23606
3099.45893,0.23485
3097.53021,0.23359
3095.60148,0.23226
3093.67276,0.23087
3091.74404,0.22956
3089.81531,0.22846
3087.88659,0.22733
3085.95786,0.22602
3084.02914,0.22473
3082.10042,0.22356
3080.17169,0.22231
3078.24297,0.22090
3076.31425,0.21950
3074.38552,0.21823
3072.45680,0.21703
3070.52807,0.21581
3068.59935,0.21457
3066.67063,0.21338
3064.74190,0.21225
3062.81318,0.21109
3060.88446,0.20982
3058.95573,0.20844
3057.02701,0.20703
3055.09829,0.20570
3053.16956,0.20445
3051.24084,0.20320
3049.31211,0.20191
3047.38339,0.20065
3045.45467,0.19948
3043.52594,0.19834
3041.59722,0.19707
3039.66850,0.19571
3037.73977,0.19447
3035.81105,0.19342
3033.88233,0.19245
3031.95360,0.19146
3030.02488,0.19041
3028.09615,0.18932
3026.16743,0.18831
3024.23871,0.18740
3022.30998,0.18640
3020.38126,0.18524
3018.45254,0.18401
3016.52381,0.18289
3014.59509,0.18201
3012.66636,0.18131
3010.73764,0.18069
3008.80892,0.18000
3006.88019,0.17917
3004.95147,0.17827
3003.02275,0.17740
3001.09402,0.17658
2999.16530,0.17589
2997.23658,0.17536
2995.30785,0.17477
2993.37913,0.17412
2991.45040,0.17366
2989.52168,0.17331
2987.59296,0.17291
2985.66423,0.17251
2983.73551,0.17228
2981.80679,0.17215
2979.87806,0.17198
2977.94934,0.17178
2976.02062,0.17161
2974.09189,0.17145
2972.16317,0.17140
2970.23444,0.17152
2968.30572,0.17174
2966.37700,0.17197
2964.44827,0.17222
2962.51955,0.17234
2960.59083,0.17220
2958.66210,0.17195
2956.73338,0.17176
2954.80466,0.17160
2952.87593,0.17138
2950.94721,0.17117
2949.01848,0.17108
2947.08976,0.17118
2945.16104,0.17151
2943.23231,0.17207
2941.30359,0.17280
2939.37487,0.17371
2937.44614,0.17470
2935.51742,0.17564
2933.58869,0.17653
2931.65997,0.17747
2929.73125,0.17831
2927.80252,0.17874
2925.87380,0.17860
2923.94508,0.17787
2922.01635,0.17639
2920.08763,0.17409
2918.15891,0.17116
2916.23018,0.16786
2914.30146,0.16451
2912.37273,0.16132
2910.44401,0.15843
2908.51529,0.15591
2906.58656,0.15371
2904.65784,0.15168
2902.72912,0.14976
2900.80039,0.14795
2898.87167,0.14623
2896.94295,0.14452
2895.01422,0.14280
2893.08550,0.14119
2891.15677,0.13973
2889.22805,0.13837
2887.29933,0.13702
2885.37060,0.13571
2883.44188,0.13451
2881.51316,0.13341
2879.58443,0.13248
2877.65571,0.13176
2875.72698,0.13115
2873.79826,0.13045
2871.86954,0.12956
2869.94081,0.12863
2868.01209,0.12786
2866.08337,0.12733
2864.15464,0.12714
2862.22592,0.12734
2860.29720,0.12782
2858.36847,0.12849
2856.43975,0.12920
2854.51102,0.12963
2852.58230,0.12926
2850.65358,0.12750
2848.72485,0.12425
2846.79613,0.12017
2844.86741,0.11612
2842.93868,0.11266
2841.00996,0.10982
2839.08124,0.10739
2837.15251,0.10527
2835.22379,0.10335
2833.29506,0.10154
2831.36634,0.09996
2829.43762,0.09866
2827.50889,0.09743
2825.58017,0.09625
2823.65145,0.09513
2821.72272,0.09398
2819.79400,0.09282
2817.86527,0.09175
2815.93655,0.09080
2814.00783,0.08991
2812.07910,0.08898
2810.15038,0.08805
2808.22166,0.08715
2806.29293,0.08624
2804.36421,0.08532
2802.43549,0.08449
2800.50676,0.08378
2798.57804,0.08307
2796.64931,0.08227
2794.72059,0.08138
2792.79187,0.08050
2790.86314,0.07971
2788.93442,0.07902
2787.00570,0.07836
2785.07697,0.07762
2783.14825,0.07677
2781.21953,0.07591
2779.29080,0.07520
2777.36208,0.07459
2775.43335,0.07394
2773.50463,0.07318
2771.57591,0.07232
2769.64718,0.07152
2767.71846,0.07085
2765.78974,0.07022
2763.86101,0.06958
2761.93229,0.06894
2760.00356,0.06831
2758.07484,0.06766
2756.14612,0.06700
2754.21739,0.06638
2752.28867,0.06577
2750.35995,0.06515
2748.43122,0.06456
2746.50250,0.06394
2744.57378,0.06328
2742.64505,0.06268
2740.71633,0.06212
2738.78760,0.06153
2736.85888,0.06090
2734.93016,0.06022
2733.00143,0.05956
2731.07271,0.05899
2729.14399,0.05845
2727.21526,0.05787
2725.28654,0.05716
2723.35782,0.05638
2721.42909,0.05574
2719.50037,0.05525
2717.57164,0.05481
2715.64292,0.05434
2713.71420,0.05380
2711.78547,0.05322
2709.85675,0.05261
2707.92803,0.05193
2705.99930,0.05125
2704.07058,0.05073
2702.14185,0.05029
2700.21313,0.04978
2698.28441,0.04920
2696.35568,0.04861
2694.42696,0.04799
2692.49824,0.04743
2690.56951,0.04700
2688.64079,0.04656
2686.71207,0.04603
2684.78334,0.04551
2682.85462,0.04509
2680.92589,0.04465
2678.99717,0.04406
2677.06845,0.04349
2675.13972,0.04309
2673.21100,0.04266
2671.28228,0.04212
2669.35355,0.04160
2667.42483,0.04106
2665.49611,0.04046
2663.56738,0.03990
2661.63866,0.03943
2659.70993,0.03900
2657.78121,0.03856
2655.85249,0.03815
2653.92376,0.03771
2651.99504,0.03723
2650.06632,0.03681
2648.13759,0.03640
2646.20887,0.03599
2644.28014,0.03557
2642.35142,0.03513
2640.42270,0.03465
2638.49397,0.03419
2636.56525,0.03376
2634.63653,0.03337
2632.70780,0.03301
2630.77908,0.03259
2628.85036,0.03208
2626.92163,0.03157
2624.99291,0.03109
2623.06418,0.03065
2621.13546,0.03025
2619.20674,0.02987
2617.27801,0.02955
2615.34929,0.02925
2613.42057,0.02884
2611.49184,0.02832
2609.56312,0.02786
2607.63440,0.02747
2605.70567,0.02704
2603.77695,0.02665
2601.84822,0.02634
2599.91950,0.02608
2597.99078,0.02580
2596.06205,0.02547
2594.13333,0.02505
2592.20461,0.02456
2590.27588,0.02412
2588.34716,0.02382
2586.41843,0.02355
2584.48971,0.02325
2582.56099,0.02297
2580.63226,0.02274
2578.70354,0.02251
2576.77482,0.02220
2574.84609,0.02181
2572.91737,0.02145
2570.98865,0.02116
2569.05992,0.02090
2567.13120,0.02061
2565.20247,0.02034
2563.27375,0.02013
2561.34503,0.01996
2559.41630,0.01978
2557.48758,0.01954
2555.55886,0.01928
2553.63013,0.01900
2551.70141,0.01865
2549.77269,0.01831
2547.84396,0.01806
2545.91524,0.01790
2543.98651,0.01775
2542.05779,0.01758
2540.12907,0.01737
2538.20034,0.01715
2536.27162,0.01693
2534.34290,0.01667
2532.41417,0.01638
2530.48545,0.01614
2528.55673,0.01599
2526.62800,0.01582
2524.69928,0.01561
2522.77055,0.01539
2520.84183,0.01516
2518.91311,0.01491
2516.98438,0.01465
2515.05566,0.01444
2513.12694,0.01426
2511.19821,0.01406
2509.26949,0.01383
2507.34076,0.01362
2505.41204,0.01346
2503.48332,0.01333
2501.55459,0.01316
2499.62587,0.01287
2497.69715,0.01250
2495.76842,0.01221
2493.83970,0.01206
2491.91098,0.01192
2489.98225,0.01173
2488.05353,0.01153
2486.12480,0.01141
2484.19608,0.01131
2482.26736,0.01115
2480.33863,0.01090
2478.40991,0.01068
2476.48119,0.01053
2474.55246,0.01032
2472.62374,0.01003
2470.69502,0.00971
2468.76629,0.00944
2466.83757,0.00926
2464.90884,0.00914
2462.98012,0.00901
2461.05140,0.00890
2459.12267,0.00877
2457.19395,0.00852
2455.26523,0.00829
2453.33650,0.00814
2451.40778,0.00801
2449.47905,0.00780
2447.55033,0.00755
2445.62161,0.00732
2443.69288,0.00714
2441.76416,0.00696
2439.83544,0.00675
2437.90671,0.00651
2435.97799,0.00630
2434.04927,0.00618
2432.12054,0.00605
2430.19182,0.00589
2428.26309,0.00576
2426.33437,0.00567
2424.40565,0.00552
2422.47692,0.00531
2420.54820,0.00511
2418.61948,0.00492
2416.69075,0.00474
2414.76203,0.00462
2412.83331,0.00455
2410.90458,0.00449
2408.97586,0.00446
2407.04713,0.00439
2405.11841,0.00422
2403.18969,0.00402
2401.26096,0.00389
2399.33224,0.00373
2397.40352,0.00347
2395.47479,0.00320
2393.54607,0.00308
2391.61734,0.00308
2389.68862,0.00308
2387.75990,0.00302
2385.83117,0.00300
2383.90245,0.00301
2381.97373,0.00305
2380.04500,0.00315
2378.11628,0.00325
2376.18756,0.00329
2374.25883,0.00332
2372.33011,0.00340
2370.40138,0.00342
2368.47266,0.00331
2366.54394,0.00321
2364.61521,0.00316
2362.68649,0.00308
2360.75777,0.00293
2358.82904,0.00265
2356.90032,0.00224
2354.97160,0.00191
2353.04287,0.00204
2351.11415,0.00267
2349.18542,0.00315
2347.25670,0.00301
2345.32798,0.00261
2343.39925,0.00243
2341.47053,0.00235
2339.54181,0.00226
2337.61308,0.00216
2335.68436,0.00208
2333.75563,0.00200
2331.82691,0.00186
2329.89819,0.00164
2327.96946,0.00144
2326.04074,0.00135
2324.11202,0.00131
2322.18329,0.00130
2320.25457,0.00132
2318.32585,0.00132
2316.39712,0.00127
2314.46840,0.00118
2312.53967,0.00111
2310.61095,0.00101
2308.68223,0.00087
2306.75350,0.00076
2304.82478,0.00071
2302.89606,0.00066
2300.96733,0.00058
2299.03861,0.00051
2297.10989,0.00045
2295.18116,0.00041
2293.25244,0.00038
2291.32371,0.00036
2289.39499,0.00035
2287.46627,0.00037
2285.53754,0.00044
2283.60882,0.00052
2281.68010,0.00053
2279.75137,0.00050
2277.82265,0.00054
2275.89392,0.00064
2273.96520,0.00068
2272.03648,0.00062
2270.10775,0.00052
2268.17903,0.00045
2266.25031,0.00042
2264.32158,0.00042
2262.39286,0.00044
2260.46414,0.00043
2258.53541,0.00040
2256.60669,0.00035
2254.67796,0.00031
2252.74924,0.00031
2250.82052,0.00034
2248.89179,0.00034
2246.96307,0.00029
2245.03435,0.00020
2243.10562,0.00012
2241.17690,0.00010
2239.24818,0.00013
2237.31945,0.00017
2235.39073,0.00019
2233.46200,0.00015
2231.53328,0.00009
2229.60456,0.00005
2227.67583,0.00003
2225.74711,0.00006
2223.81839,0.00011
2221.88966,0.00012
2219.96094,0.00005
2218.03221,-0.00005
2216.10349,-0.00010
2214.17477,-0.00012
2212.24604,-0.00013
2210.31732,-0.00010
2208.38860,-0.00005
2206.45987,0.00000
2204.53115,0.00004
2202.60243,0.00010
2200.67370,0.00010
2198.74498,0.00005
2196.81625,-0.00001
2194.88753,-0.00004
2192.95881,-0.00007
2191.03008,-0.00009
2189.10136,-0.00004
2187.17264,0.00002
2185.24391,-0.00001
2183.31519,-0.00010
2181.38647,-0.00012
2179.45774,-0.00007
2177.52902,0.00001
2175.60029,0.00008
2173.67157,0.00009
2171.74285,0.00004
2169.81412,0.00005
2167.88540,0.00009
2165.95668,0.00008
2164.02795,0.00009
2162.09923,0.00015
2160.17050,0.00022
2158.24178,0.00030
2156.31306,0.00037
2154.38433,0.00041
2152.45561,0.00043
2150.52689,0.00039
2148.59816,0.00034
2146.66944,0.00038
2144.74072,0.00038
2142.81199,0.00031
2140.88327,0.00024
2138.95454,0.00020
2137.02582,0.00019
2135.09710,0.00022
2133.16837,0.00022
2131.23965,0.00020
2129.31093,0.00016
2127.38220,0.00006
2125.45348,-0.00001
2123.52476,0.00003
2121.59603,0.00005
2119.66731,0.00003
2117.73858,0.00004
2115.80986,0.00008
2113.88114,0.00006
2111.95241,-0.00001
2110.02369,-0.00004
2108.09497,-0.00000
2106.16624,0.00004
2104.23752,0.00002
2102.30880,-0.00001
2100.38007,0.00002
2098.45135,0.00008
2096.52262,0.00007
2094.59390,0.00000
2092.66518,-0.00007
2090.73645,-0.00009
2088.80773,-0.00009
2086.87901,-0.00012
2084.95028,-0.00017
2083.02156,-0.00025
2081.09283,-0.00027
2079.16411,-0.00023
2077.23539,-0.00018
2075.30666,-0.00014
2073.37794,-0.00013
2071.44922,-0.00014
2069.52049,-0.00013
2067.59177,-0.00009
2065.66305,-0.00003
2063.73432,0.00001
2061.80560,0.00003
2059.87687,0.00010
2057.94815,0.00025
2056.01943,0.00039
2054.09070,0.00051
2052.16198,0.00061
2050.23326,0.00072
2048.30453,0.00088
2046.37581,0.00107
2044.44709,0.00123
2042.51836,0.00139
2040.58964,0.00156
2038.66091,0.00175
2036.73219,0.00197
2034.80347,0.00226
2032.87474,0.00259
2030.94602,0.00285
2029.01730,0.00301
2027.08857,0.00316
2025.15985,0.00334
2023.23112,0.00354
2021.30240,0.00377
2019.37368,0.00396
2017.44495,0.00403
2015.51623,0.00404
2013.58751,0.00419
2011.65878,0.00445
2009.73006,0.00467
2007.80134,0.00477
2005.87261,0.00485
2003.94389,0.00493
2002.01516,0.00499
2000.08644,0.00497
1998.15772,0.00487
1996.22899,0.00482
1994.30027,0.00488
1992.37155,0.00488
1990.44282,0.00477
1988.51410,0.00468
1986.58538,0.00468
1984.65665,0.00466
1982.72793,0.00453
1980.79920,0.00432
1978.87048,0.00414
1976.94176,0.00401
1975.01303,0.00389
1973.08431,0.00372
1971.15559,0.00355
1969.22686,0.00342
1967.29814,0.00327
1965.36941,0.00304
1963.44069,0.00276
1961.51197,0.00247
1959.58324,0.00219
1957.65452,0.00194
1955.72580,0.00172
1953.79707,0.00154
1951.86835,0.00142
1949.93963,0.00130
1948.01090,0.00115
1946.08218,0.00099
1944.15345,0.00081
1942.22473,0.00057
1940.29601,0.00033
1938.36728,0.00019
1936.43856,0.00017
1934.50984,0.00019
1932.58111,0.00016
1930.65239,0.00008
1928.72367,0.00001
1926.79494,0.00000
1924.86622,0.00008
1922.93749,0.00020
1921.00877,0.00036
1919.08005,0.00055
1917.15132,0.00073
1915.22260,0.00099
1913.29388,0.00139
1911.36515,0.00185
1909.43643,0.00227
1907.50770,0.00269
1905.57898,0.00315
1903.65026,0.00367
1901.72153,0.00425
1899.79281,0.00488
1897.86409,0.00551
1895.93536,0.00605
1894.00664,0.00652
1892.07792,0.00697
1890.14919,0.00740
1888.22047,0.00777
1886.29174,0.00815
1884.36302,0.00858
1882.43430,0.00891
1880.50557,0.00908
1878.57685,0.00919
1876.64813,0.00930
1874.71940,0.00942
1872.79068,0.00955
1870.86196,0.00961
1868.93323,0.00946
1867.00451,0.00912
1865.07578,0.00878
1863.14706,0.00844
1861.21834,0.00802
1859.28961,0.00748
1857.36089,0.00686
1855.43217,0.00625
1853.50344,0.00573
1851.57472,0.00530
1849.64599,0.00489
1847.71727,0.00442
1845.78855,0.00382
1843.85982,0.00307
1841.93110,0.00242
1840.00238,0.00204
1838.07365,0.00174
1836.14493,0.00138
1834.21621,0.00110
1832.28748,0.00098
1830.35876,0.00081
1828.43003,0.00054
1826.50131,0.00031
1824.57259,0.00014
1822.64386,0.00000
1820.71514,-0.00010
1818.78642,-0.00013
1816.85769,-0.00010
1814.92897,0.00000
1813.00025,-0.00004
1811.07152,-0.00013
1809.14280,-0.00025
1807.21407,-0.00028
1805.28535,-0.00013
1803.35663,0.00014
1801.42790,0.00047
1799.49918,0.00080
1797.57046,0.00115
1795.64173,0.00157
1793.71301,0.00200
1791.78428,0.00236
1789.85556,0.00272
1787.92684,0.00325
1785.99811,0.00396
1784.06939,0.00477
1782.14067,0.00562
1780.21194,0.00649
1778.28322,0.00734
1776.35450,0.00817
1774.42577,0.00902
1772.49705,0.00990
1770.56832,0.01078
1768.63960,0.01165
1766.71088,0.01248
1764.78215,0.01330
1762.85343,0.01419
1760.92471,0.01519
1758.99598,0.01623
1757.06726,0.01735
1755.13854,0.01855
1753.20981,0.01979
1751.28109,0.02115
1749.35236,0.02263
1747.42364,0.02408
1745.49492,0.02553
1743.56619,0.02712
1741.63747,0.02896
1739.70875,0.03098
1737.78002,0.03299
1735.85130,0.03506
1733.92257,0.03749
1731.99385,0.03986
1730.06513,0.04180
1728.13640,0.04357
1726.20768,0.04546
1724.27896,0.04752
1722.35023,0.04954
1720.42151,0.05146
1718.49279,0.05361
1716.56406,0.05615
1714.63534,0.05863
1712.70661,0.06085
1710.77789,0.06302
1708.84917,0.06538
1706.92044,0.06808
1704.99172,0.07097
1703.06300,0.07386
1701.13427,0.07716
1699.20555,0.08110
1697.27683,0.08518
1695.34810,0.08934
1693.41938,0.09325
1691.49065,0.09688
1689.56193,0.10064
1687.63321,0.10450
1685.70448,0.10889
1683.77576,0.11423
1681.84704,0.11899
1679.91831,0.12255
1677.98959,0.12586
1676.06087,0.12965
1674.13214,0.13371
1672.20342,0.13750
1670.27469,0.14135
1668.34597,0.14525
1666.41725,0.14848
1664.48852,0.15129
1662.55980,0.15430
1660.63108,0.15721
1658.70235,0.15962
1656.77363,0.16168
1654.84490,0.16382
1652.91618,0.16612
1650.98746,0.16785
1649.05873,0.16907
1647.13001,0.17034
1645.20129,0.17156
1643.27256,0.17243
1641.34384,0.17311
1639.41512,0.17376
1637.48639,0.17433
1635.55767,0.17452
1633.62894,0.17416
1631.70022,0.17357
1629.77150,0.17285
1627.84277,0.17183
1625.91405,0.17033
1623.98533,0.16820
1622.05660,0.16564
1620.12788,0.16315
1618.19916,0.16029
1616.27043,0.15657
1614.34171,0.15297
1612.41298,0.15013
1610.48426,0.14739
1608.55554,0.14421
1606.62681,0.14068
1604.69809,0.13712
1602.76937,0.13370
1600.84064,0.13045
1598.91192,0.12741
1596.98319,0.12457
1595.05447,0.12187
1593.12575,0.11924
1591.19702,0.11666
1589.26830,0.11416
1587.33958,0.11176
1585.41085,0.10945
1583.48213,0.10716
1581.55341,0.10498
1579.62468,0.10305
1577.69596,0.10117
1575.76723,0.09915
1573.83851,0.09749
1571.90979,0.09636
1569.98106,0.09527
1568.05234,0.09411
1566.12362,0.09318
1564.19489,0.09255
1562.26617,0.09217
1560.33745,0.09158
1558.40872,0.09028
1556.48000,0.08894
1554.55127,0.08805
1552.62255,0.08727
1550.69383,0.08635
1548.76510,0.08531
1546.83638,0.08429
1544.90766,0.08330
1542.97893,0.08206
1541.05021,0.08000
1539.12148,0.07731
1537.19276,0.07540
1535.26404,0.07406
1533.33531,0.07231
1531.40659,0.07029
1529.47787,0.06856
1527.54914,0.06678
1525.62042,0.06473
1523.69170,0.06262
1521.76297,0.06036
1519.83425,0.05802
1517.90552,0.05579
1515.97680,0.05361
1514.04808,0.05158
1512.11935,0.04977
1510.19063,0.04777
1508.26191,0.04465
1506.33318,0.04015
1504.40446,0.03649
1502.47574,0.03437
1500.54701,0.03257
1498.61829,0.03035
1496.68956,0.02795
1494.76084,0.02609
1492.83212,0.02490
1490.90339,0.02386
1488.97467,0.02284
1487.04595,0.02225
1485.11722,0.02215
1483.18850,0.02236
1481.25977,0.02286
1479.33105,0.02376
1477.40233,0.02513
1475.47360,0.02716
1473.54488,0.03000
1471.61616,0.03323
1469.68743,0.03598
1467.75871,0.03814
1465.82999,0.03996
1463.90126,0.04140
1461.97254,0.04244
1460.04381,0.04337
1458.11509,0.04437
1456.18637,0.04529
1454.25764,0.04590
1452.32892,0.04629
1450.40020,0.04661
1448.47147,0.04690
1446.54275,0.04723
1444.61403,0.04760
1442.68530,0.04797
1440.75658,0.04836
1438.82785,0.04886
1436.89913,0.04952
1434.97041,0.05018
1433.04168,0.05069
1431.11296,0.05121
1429.18424,0.05194
1427.25551,0.05282
1425.32679,0.05376
1423.39806,0.05474
1421.46934,0.05573
1419.54062,0.05676
1417.61189,0.05782
1415.68317,0.05882
1413.75445,0.05986
1411.82572,0.06109
1409.89700,0.06245
1407.96828,0.06381
1406.03955,0.06507
1404.11083,0.06609
1402.18210,0.06654
1400.25338,0.06614
1398.32466,0.06479
1396.39593,0.06261
1394.46721,0.05988
1392.53849,0.05719
1390.60976,0.05491
1388.68104,0.05278
1386.75232,0.05069
1384.82359,0.04899
1382.89487,0.04781
1380.96614,0.04691
1379.03742,0.04599
1377.10870,0.04491
1375.17997,0.04358
1373.25125,0.04212
1371.32253,0.04069
1369.39380,0.03935
1367.46508,0.03803
1365.53635,0.03670
1363.60763,0.03528
1361.67891,0.03384
1359.75018,0.03260
1357.82146,0.03164
1355.89274,0.03092
1353.96401,0.03035
1352.03529,0.02980
1350.10657,0.02918
1348.17784,0.02851
1346.24912,0.02795
1344.32039,0.02762
1342.39167,0.02747
1340.46295,0.02729
1338.53422,0.02697
1336.60550,0.02661
1334.67678,0.02631
1332.74805,0.02611
1330.81933,0.02604
1328.89061,0.02609
1326.96188,0.02613
1325.03316,0.02613
1323.10443,0.02623
1321.17571,0.02649
1319.24699,0.02680
1317.31826,0.02705
1315.38954,0.02726
1313.46082,0.02754
1311.53209,0.02794
1309.60337,0.02844
1307.67464,0.02898
1305.74592,0.02959
1303.81720,0.03040
1301.88847,0.03146
1299.95975,0.03273
1298.03103,0.03412
1296.10230,0.03560
1294.17358,0.03725
1292.24486,0.03914
1290.31613,0.04122
1288.38741,0.04355
1286.45868,0.04619
1284.52996,0.04904
1282.60124,0.05210
1280.67251,0.05551
1278.74379,0.05933
1276.81507,0.06357
1274.88634,0.06829
1272.95762,0.07354
1271.02890,0.07930
1269.10017,0.08562
1267.17145,0.09268
1265.24272,0.10069
1263.31400,0.10967
1261.38528,0.11979
1259.45655,0.13108
1257.52783,0.14311
1255.59911,0.15567
1253.67038,0.16882
1251.74166,0.18230
1249.81294,0.19564
1247.88421,0.20857
1245.95549,0.22078
1244.02676,0.23205
1242.09804,0.24220
1240.16932,0.25128
1238.24059,0.25956
1236.31187,0.26727
1234.38315,0.27434
1232.45442,0.28066
1230.52570,0.28637
1228.59697,0.29179
1226.66825,0.29686
1224.73953,0.30133
1222.81080,0.30519
1220.88208,0.30870
1218.95336,0.31221
1217.02463,0.31584
1215.09591,0.31930
1213.16719,0.32246
1211.23846,0.32536
1209.30974,0.32811
1207.38101,0.33090
1205.45229,0.33355
1203.52357,0.33577
1201.59484,0.33780
1199.66612,0.34018
1197.73740,0.34299
1195.80867,0.34561
1193.87995,0.34779
1191.95123,0.34989
1190.02250,0.35221
1188.09378,0.35464
1186.16505,0.35694
1184.23633,0.35923
1182.30761,0.36175
1180.37888,0.36435
1178.45016,0.36684
1176.52144,0.36926
1174.59271,0.37164
1172.66399,0.37398
1170.73526,0.37639
1168.80654,0.37878
1166.87782,0.38114
1164.94909,0.38364
1163.02037,0.38621
1161.09165,0.38869
1159.16292,0.39109
1157.23420,0.39327
1155.30548,0.39513
1153.37675,0.39712
1151.44803,0.39938
1149.51930,0.40145
1147.59058,0.40348
1145.66186,0.40580
1143.73313,0.40850
1141.80441,0.41157
1139.87569,0.41466
1137.94696,0.41763
1136.01824,0.42079
1134.08952,0.42432
1132.16079,0.42805
1130.23207,0.43192
1128.30334,0.43622
1126.37462,0.44111
1124.44590,0.44632
1122.51717,0.45153
1120.58845,0.45689
1118.65973,0.46300
1116.73100,0.46987
1114.80228,0.47673
1112.87355,0.48391
1110.94483,0.49230
1109.01611,0.50126
1107.08738,0.50961
1105.15866,0.51696
1103.22994,0.52301
1101.30121,0.52728
1099.37249,0.53039
1097.44377,0.53316
1095.51504,0.53536
1093.58632,0.53684
1091.65759,0.53744
1089.72887,0.53681
1087.80015,0.53529
1085.87142,0.53370
1083.94270,0.53183
1082.01398,0.52939
1080.08525,0.52698
1078.15653,0.52434
1076.22781,0.52055
1074.29908,0.51561
1072.37036,0.51008
1070.44163,0.50428
1068.51291,0.49829
1066.58419,0.49213
1064.65546,0.48576
1062.72674,0.47913
1060.79802,0.47213
1058.86929,0.46480
1056.94057,0.45733
1055.01184,0.44976
1053.08312,0.44193
1051.15440,0.43363
1049.22567,0.42506
1047.29695,0.41665
1045.36823,0.40876
1043.43950,0.40109
1041.51078,0.39274
1039.58206,0.38360
1037.65333,0.37438
1035.72461,0.36573
1033.79588,0.35752
1031.86716,0.34914
1029.93844,0.34052
1028.00971,0.33204
1026.08099,0.32381
1024.15227,0.31579
1022.22354,0.30829
1020.29482,0.30145
1018.36610,0.29473
1016.43737,0.28788
1014.50865,0.28128
1012.57992,0.27530
1010.65120,0.26962
1008.72248,0.26393
1006.79375,0.25852
1004.86503,0.25352
1002.93631,0.24853
1001.00758,0.24337
999.07886,0.23817
997.15013,0.23318
995.22141,0.22861
993.29269,0.22419
991.36396,0.21973
989.43524,0.21546
987.50652,0.21171
985.57779,0.20836
983.64907,0.20506
981.72035,0.20190
979.79162,0.19913
977.86290,0.19680
975.93417,0.19507
974.00545,0.19399
972.07673,0.19337
970.14800,0.19284
968.21928,0.19223
966.29056,0.19156
964.36183,0.19082
962.43311,0.19000
960.50439,0.18911
958.57566,0.18809
956.64694,0.18688
954.71821,0.18566
952.78949,0.18472
950.86077,0.18390
948.93204,0.18264
947.00332,0.18088
945.07460,0.17893
943.14587,0.17680
941.21715,0.17459
939.28842,0.17232
937.35970,0.16952
935.43098,0.16619
933.50225,0.16287
931.57353,0.15965
929.64481,0.15653
927.71608,0.15351
925.78736,0.15021
923.85864,0.14655
921.92991,0.14281
920.00119,0.13898
918.07246,0.13496
916.14374,0.13087
914.21502,0.12679
912.28629,0.12280
910.35757,0.11888
908.42885,0.11471
906.50012,0.11020
904.57140,0.10578
902.64268,0.10158
900.71395,0.09732
898.78523,0.09306
896.85650,0.08913
894.92778,0.08560
892.99906,0.08231
891.07033,0.07888
889.14161,0.07515
887.21289,0.07149
885.28416,0.06830
883.35544,0.06559
881.42671,0.06295
879.49799,0.06022
877.56927,0.05761
875.64054,0.05507
873.71182,0.05242
871.78310,0.04997
869.85437,0.04798
867.92565,0.04616
865.99693,0.04429
864.06820,0.04258
862.13948,0.04131
860.21075,0.04010
858.28203,0.03846
856.35331,0.03667
854.42458,0.03534
852.49586,0.03468
850.56714,0.03462
848.63841,0.03508
846.70969,0.03597
844.78097,0.03739
842.85224,0.03953
840.92352,0.04222
838.99479,0.04516
837.06607,0.04859
835.13735,0.05270
833.20862,0.05689
831.27990,0.06090
829.35118,0.06510
827.42245,0.06953
825.49373,0.07399
823.56501,0.07836
821.63628,0.08245
819.70756,0.08633
817.77883,0.09022
815.85011,0.09408
813.92139,0.09776
811.99266,0.10119
810.06394,0.10435
808.13522,0.10718
806.20649,0.10976
804.27777,0.11221
802.34904,0.11408
800.42032,0.11500
798.49160,0.11525
796.56287,0.11491
794.63415,0.11388
792.70543,0.11236
790.77670,0.11043
788.84798,0.10811
786.91926,0.10545
784.99053,0.10246
783.06181,0.09911
781.13308,0.09504
779.20436,0.09020
777.27564,0.08518
775.34691,0.08036
773.41819,0.07593
771.48947,0.07221
769.56074,0.06944
767.63202,0.06731
765.70330,0.06552
763.77457,0.06436
761.84585,0.06385
759.91712,0.06334
757.98840,0.06245
756.05968,0.06148
754.13095,0.06067
752.20223,0.06022
750.27351,0.06029
748.34478,0.06046
746.41606,0.06046
744.48733,0.06064
742.55861,0.06079
740.62989,0.06036
738.70116,0.05963
736.77244,0.05904
734.84372,0.05885
732.91499,0.05923
730.98627,0.05975
729.05755,0.06007
727.12882,0.06061
725.20010,0.06145
723.27137,0.06201
721.34265,0.06207
719.41393,0.06197
717.48520,0.06223
715.55648,0.06306
713.62776,0.06412
711.69903,0.06515
709.77031,0.06637
707.84159,0.06772
705.91286,0.06883
703.98414,0.06976
702.05541,0.07092
700.12669,0.07249
698.19797,0.07433
696.26924,0.07589
694.34052,0.07661
692.41180,0.07680
690.48307,0.07718
688.55435,0.07763
686.62562,0.07770
684.69690,0.07780
682.76818,0.07830
680.83945,0.07888
678.91073,0.07920
676.98201,0.07933
675.05328,0.07972
673.12456,0.08059
671.19584,0.08088
669.26711,0.08024
667.33839,0.08077
665.40966,0.08242
663.48094,0.08302
661.55222,0.08298
659.62349,0.08349
657.69477,0.08448
655.76605,0.08587
653.83732,0.08750
651.90860,0.08890
649.97988,0.09005
648.05115,0.09137
646.12243,0.09319
644.19370,0.09550
642.26498,0.09761
640.33626,0.09857
638.40753,0.09861
636.47881,0.09896
634.55009,0.10028
632.62136,0.10226
630.69264,0.10425
628.76391,0.10569
626.83519,0.10662
624.90647,0.10798
622.97774,0.10984
621.04902,0.11091
619.12030,0.11113
617.19157,0.11197
615.26285,0.11402
613.33413,0.11669
611.40540,0.11932
609.47668,0.12109
607.54795,0.12158
605.61923,0.12175
603.69051,0.12274
601.76178,0.12497
599.83306,0.12793
597.90434,0.13050
595.97561,0.13224
594.04689,0.13333
592.11817,0.13398
590.18944,0.13508
588.26072,0.13731
586.33199,0.13983
584.40327,0.14161
582.47455,0.14251
580.54582,0.14292
578.61710,0.14358
576.68838,0.14469
574.75965,0.14564
572.83093,0.14622
570.90220,0.14693
568.97348,0.14817
567.04476,0.14953
565.11603,0.15042
563.18731,0.15096
561.25859,0.15148
559.32986,0.15172
557.40114,0.15169
555.47242,0.15217
553.54369,0.15361
551.61497,0.15535
549.68624,0.15629
547.75752,0.15678
545.82880,0.15752
543.90007,0.15787
541.97135,0.15818
540.04263,0.15900
538.11390,0.15927
536.18518,0.15866
534.25646,0.15810
532.32773,0.15783
530.39901,0.15788
528.47028,0.15805
526.54156,0.15723
524.61284,0.15567
522.68411,0.15581
520.75539,0.15848
518.82667,0.16230
516.89794,0.16606
514.96922,0.16890
513.04049,0.17007
511.11177,0.17124
509.18305,0.17579
507.25432,0.18416
505.32560,0.19285
503.39688,0.19918
501.46815,0.20455
499.53943,0.21203
497.61071,0.22173
495.68198,0.23093
493.75326,0.23828
491.82453,0.24520
489.89581,0.25349
487.96709,0.26314
486.03836,0.27313
484.10964,0.28322
482.18092,0.29367
480.25219,0.30405
478.32347,0.31352
476.39475,0.32204
474.46602,0.32986
472.53730,0.33705
470.60857,0.34294
468.67985,0.34512
466.75113,0.34311
464.82240,0.33961
462.89368,0.33747
460.96496,0.33743
459.03623,0.33641
457.10751,0.33116
455.17878,0.32312
453.25006,0.31362
451.32134,0.30296
449.39261,0.29378
447.46389,0.28695
445.53517,0.28056
443.60644,0.27329
441.67772,0.26476
439.74900,0.25555
437.82027,0.24665
435.89155,0.23915
433.96282,0.23330
432.03410,0.22636
430.10538,0.21467
428.17665,0.19929
426.24793,0.18762
424.31921,0.18373
422.39048,0.18130
420.46176,0.17385
418.53304,0.16476
416.60431,0.16126
414.67559,0.16317
412.74686,0.16424
410.81814,0.15802
408.88942,0.14466
406.96069,0.13144
405.03197,0.12281
403.10325,0.11495
401.17452,0.10291
399.24580,0.09323
397.31708,0.09520
395.38835,0.09657
393.45963,0.09043
391.53090,0.09040
389.60218,0.09494
387.67346,0.08717
385.74473,0.06295
383.81601,0.03898
381.88729,0.03505
379.95856,0.05044
378.02984,0.07289
376.10111,0.08734
374.17239,0.06844
372.24367,0.02431
370.31494,0.00000
368.38622,0.00000
