3996.31543,0.00014
3994.38671,0.00002
3992.45799,0.00000
3990.52926,0.00006
3988.60054,0.00013
3986.67182,0.00024
3984.74309,0.00033
3982.81437,0.00038
3980.88564,0.00040
3978.95692,0.00040
3977.02820,0.00035
3975.09947,0.00033
3973.17075,0.00041
3971.24203,0.00057
3969.31330,0.00064
3967.38458,0.00062
3965.45586,0.00064
3963.52713,0.00069
3961.59841,0.00064
3959.66968,0.00051
3957.74096,0.00040
3955.81224,0.00035
3953.88351,0.00045
3951.95479,0.00070
3950.02607,0.00090
3948.09734,0.00096
3946.16862,0.00104
3944.23990,0.00106
3942.31117,0.00090
3940.38245,0.00071
3938.45372,0.00070
3936.52500,0.00086
3934.59628,0.00105
3932.66755,0.00100
3930.73883,0.00081
3928.81011,0.00087
3926.88138,0.00113
3924.95266,0.00119
3923.02393,0.00106
3921.09521,0.00106
3919.16649,0.00111
3917.23776,0.00093
3915.30904,0.00068
3913.38032,0.00068
3911.45159,0.00089
3909.52287,0.00125
3907.59415,0.00181
3905.66542,0.00218
3903.73670,0.00190
3901.80797,0.00117
3899.87925,0.00048
3897.95053,0.00023
3896.02180,0.00063
3894.09308,0.00124
3892.16436,0.00132
3890.23563,0.00106
3888.30691,0.00115
3886.37819,0.00128
3884.44946,0.00108
3882.52074,0.00085
3880.59201,0.00057
3878.66329,0.00044
3876.73457,0.00090
3874.80584,0.00160
3872.87712,0.00193
3870.94840,0.00168
3869.01967,0.00114
3867.09095,0.00112
3865.16222,0.00140
3863.23350,0.00120
3861.30478,0.00087
3859.37605,0.00115
3857.44733,0.00200
3855.51861,0.00260
3853.58988,0.00189
3851.66116,0.00045
3849.73244,0.00000
3847.80371,0.00060
3845.87499,0.00153
3843.94626,0.00230
3842.01754,0.00272
3840.08882,0.00259
3838.16009,0.00182
3836.23137,0.00103
3834.30265,0.00076
3832.37392,0.00074
3830.44520,0.00085
3828.51648,0.00118
3826.58775,0.00163
3824.65903,0.00215
3822.73030,0.00243
3820.80158,0.00208
3818.87286,0.00159
3816.94413,0.00117
3815.01541,0.00063
3813.08669,0.00066
3811.15796,0.00146
3809.22924,0.00215
3807.30052,0.00218
3805.37179,0.00214
3803.44307,0.00249
3801.51434,0.00243
3799.58562,0.00189
3797.65690,0.00163
3795.72817,0.00164
3793.79945,0.00180
3791.87073,0.00206
3789.94200,0.00231
3788.01328,0.00255
3786.08455,0.00271
3784.15583,0.00279
3782.22711,0.00288
3780.29838,0.00284
3778.36966,0.00266
3776.44094,0.00282
3774.51221,0.00346
3772.58349,0.00418
3770.65477,0.00456
3768.72604,0.00464
3766.79732,0.00471
3764.86859,0.00486
3762.93987,0.00522
3761.01115,0.00576
3759.08242,0.00613
3757.15370,0.00655
3755.22498,0.00753
3753.29625,0.00869
3751.36753,0.00909
3749.43881,0.00897
3747.51008,0.00940
3745.58136,0.00998
3743.65263,0.01009
3741.72391,0.01053
3739.79519,0.01184
3737.86646,0.01347
3735.93774,0.01452
3734.00902,0.01469
3732.08029,0.01493
3730.15157,0.01611
3728.22284,0.01794
3726.29412,0.01964
3724.36540,0.02096
3722.43667,0.02231
3720.50795,0.02390
3718.57923,0.02574
3716.65050,0.02788
3714.72178,0.03033
3712.79306,0.03285
3710.86433,0.03518
3708.93561,0.03742
3707.00688,0.03993
3705.07816,0.04282
3703.14944,0.04586
3701.22071,0.04880
3699.29199,0.05171
3697.36327,0.05477
3695.43454,0.05794
3693.50582,0.06115
3691.57710,0.06435
3689.64837,0.06746
3687.71965,0.07051
3685.79092,0.07377
3683.86220,0.07734
3681.93348,0.08125
3680.00475,0.08542
3678.07603,0.08968
3676.14731,0.09391
3674.21858,0.09800
3672.28986,0.10204
3670.36113,0.10608
3668.43241,0.10980
3666.50369,0.11317
3664.57496,0.11657
3662.64624,0.12007
3660.71752,0.12358
3658.78879,0.12702
3656.86007,0.13034
3654.93135,0.13346
3653.00262,0.13636
3651.07390,0.13898
3649.14517,0.14139
3647.21645,0.14391
3645.28773,0.14664
3643.35900,0.14946
3641.43028,0.15223
3639.50156,0.15485
3637.57283,0.15738
3635.64411,0.15998
3633.71539,0.16266
3631.78666,0.16517
3629.85794,0.16711
3627.92921,0.16858
3626.00049,0.17034
3624.07177,0.17267
3622.14304,0.17510
3620.21432,0.17715
3618.28560,0.17873
3616.35687,0.18013
3614.42815,0.18160
3612.49942,0.18321
3610.57070,0.18481
3608.64198,0.18620
3606.71325,0.18761
3604.78453,0.18943
3602.85581,0.19150
3600.92708,0.19341
3598.99836,0.19504
3597.06964,0.19644
3595.14091,0.19760
3593.21219,0.19874
3591.28346,0.20021
3589.35474,0.20188
3587.42602,0.20334
3585.49729,0.20454
3583.56857,0.20587
3581.63985,0.20733
3579.71112,0.20881
3577.78240,0.21030
3575.85368,0.21165
3573.92495,0.21275
3571.99623,0.21396
3570.06750,0.21551
3568.13878,0.21695
3566.21006,0.21795
3564.28133,0.21894
3562.35261,0.22015
3560.42389,0.22132
3558.49516,0.22240
3556.56644,0.22357
3554.63771,0.22475
3552.70899,0.22589
3550.78027,0.22709
3548.85154,0.22830
3546.92282,0.22933
3544.99410,0.23018
3543.06537,0.23108
3541.13665,0.23216
3539.20793,0.23331
3537.27920,0.23431
3535.35048,0.23515
3533.42175,0.23605
3531.49303,0.23714
3529.56431,0.23830
3527.63558,0.23935
3525.70686,0.24026
3523.77814,0.24112
3521.84941,0.24202
3519.92069,0.24293
3517.99197,0.24376
3516.06324,0.24455
3514.13452,0.24533
3512.20579,0.24610
3510.27707,0.24693
3508.34835,0.24778
3506.41962,0.24855
3504.49090,0.24926
3502.56218,0.25005
3500.63345,0.25099
3498.70473,0.25196
3496.77600,0.25273
3494.84728,0.25335
3492.91856,0.25405
3490.98983,0.25492
3489.06111,0.25577
3487.13239,0.25645
3485.20366,0.25699
3483.27494,0.25750
3481.34622,0.25800
3479.41749,0.25854
3477.48877,0.25912
3475.56004,0.25959
3473.63132,0.25994
3471.70260,0.26049
3469.77387,0.26125
3467.84515,0.26185
3465.91643,0.26228
3463.98770,0.26280
3462.05898,0.26333
3460.13026,0.26372
3458.20153,0.26416
3456.27281,0.26481
3454.34408,0.26544
3452.41536,0.26591
3450.48664,0.26622
3448.55791,0.26635
3446.62919,0.26649
3444.70047,0.26693
3442.77174,0.26751
3440.84302,0.26785
3438.91429,0.26804
3436.98557,0.26835
3435.05685,0.26873
3433.12812,0.26899
3431.19940,0.26924
3429.27068,0.26965
3427.34195,0.27008
3425.41323,0.27026
3423.48451,0.27036
3421.55578,0.27066
3419.62706,0.27116
3417.69833,0.27162
3415.76961,0.27181
3413.84089,0.27171
3411.91216,0.27159
3409.98344,0.27163
3408.05472,0.27174
3406.12599,0.27199
3404.19727,0.27230
3402.26855,0.27246
3400.33982,0.27251
3398.41110,0.27253
3396.48237,0.27259
3394.55365,0.27259
3392.62493,0.27243
3390.69620,0.27225
3388.76748,0.27222
3386.83876,0.27226
3384.91003,0.27221
3382.98131,0.27218
3381.05259,0.27221
3379.12386,0.27216
3377.19514,0.27198
3375.26641,0.27176
3373.33769,0.27163
3371.40897,0.27158
3369.48024,0.27148
3367.55152,0.27127
3365.62280,0.27109
3363.69407,0.27102
3361.76535,0.27088
3359.83662,0.27061
3357.90790,0.27040
3355.97918,0.27030
3354.05045,0.27019
3352.12173,0.26998
3350.19301,0.26969
3348.26428,0.26934
3346.33556,0.26893
3344.40684,0.26852
3342.47811,0.26829
3340.54939,0.26827
3338.62066,0.26819
3336.69194,0.26797
3334.76322,0.26775
3332.83449,0.26754
3330.90577,0.26732
3328.97705,0.26706
3327.04832,0.26674
3325.11960,0.26644
3323.19088,0.26619
3321.26215,0.26589
3319.33343,0.26554
3317.40470,0.26533
3315.47598,0.26525
3313.54726,0.26509
3311.61853,0.26481
3309.68981,0.26445
3307.76109,0.26404
3305.83236,0.26370
3303.90364,0.26356
3301.97491,0.26354
3300.04619,0.26343
3298.11747,0.26317
3296.18874,0.26281
3294.26002,0.26237
3292.33130,0.26193
3290.40257,0.26152
3288.47385,0.26110
3286.54513,0.26079
3284.61640,0.26070
3282.68768,0.26051
3280.75895,0.26006
3278.83023,0.25961
3276.90151,0.25930
3274.97278,0.25901
3273.04406,0.25864
3271.11534,0.25818
3269.18661,0.25764
3267.25789,0.25714
3265.32917,0.25677
3263.40044,0.25640
3261.47172,0.25595
3259.54299,0.25546
3257.61427,0.25498
3255.68555,0.25448
3253.75682,0.25395
3251.82810,0.25337
3249.89938,0.25291
3247.97065,0.25259
3246.04193,0.25211
3244.11320,0.25143
3242.18448,0.25078
3240.25576,0.25034
3238.32703,0.25017
3236.39831,0.24993
3234.46959,0.24935
3232.54086,0.24860
3230.61214,0.24798
3228.68342,0.24752
3226.75469,0.24713
3224.82597,0.24663
3222.89724,0.24607
3220.96852,0.24554
3219.03980,0.24495
3217.11107,0.24427
3215.18235,0.24351
3213.25363,0.24279
3211.32490,0.24220
3209.39618,0.24166
3207.46746,0.24098
3205.53873,0.24020
3203.61001,0.23952
3201.68128,0.23897
3199.75256,0.23832
3197.82384,0.23744
3195.89511,0.23647
3193.96639,0.23568
3192.03767,0.23513
3190.10894,0.23470
3188.18022,0.23420
3186.25149,0.23346
3184.32277,0.23247
3182.39405,0.23144
3180.46532,0.23052
3178.53660,0.22967
3176.60788,0.22889
3174.67915,0.22816
3172.75043,0.22725
3170.82171,0.22620
3168.89298,0.22528
3166.96426,0.22456
3165.03553,0.22389
3163.10681,0.22312
3161.17809,0.22218
3159.24936,0.22111
3157.32064,0.22014
3155.39192,0.21931
3153.46319,0.21851
3151.53447,0.21771
3149.60575,0.21694
3147.67702,0.21620
3145.74830,0.21542
3143.81957,0.21449
3141.89085,0.21344
3139.96213,0.21248
3138.03340,0.21172
3136.10468,0.21098
3134.17596,0.21010
3132.24723,0.20915
3130.31851,0.20831
3128.38978,0.20759
3126.46106,0.20684
3124.53234,0.20597
3122.60361,0.20502
3120.67489,0.20417
3118.74617,0.20346
3116.81744,0.20273
3114.88872,0.20179
3112.96000,0.20066
3111.03127,0.19959
3109.10255,0.19870
3107.17382,0.19788
3105.24510,0.19703
3103.31638,0.19620
3101.38765,0.19534
3099.45893,0.19435
3097.53021,0.19324
3095.60148,0.19214
3093.67276,0.19118
3091.74404,0.19042
3089.81531,0.18975
3087.88659,0.18900
3085.95786,0.18809
3084.02914,0.18708
3082.10042,0.18614
3080.17169,0.18520
3078.24297,0.18415
3076.31425,0.18306
3074.38552,0.18208
3072.45680,0.18119
3070.52807,0.18020
3068.59935,0.17906
3066.67063,0.17803
3064.74190,0.17712
3062.81318,0.17616
3060.88446,0.17516
3058.95573,0.17417
3057.02701,0.17315
3055.09829,0.17210
3053.16956,0.17102
3051.24084,0.16995
3049.31211,0.16902
3047.38339,0.16823
3045.45467,0.16735
3043.52594,0.16624
3041.59722,0.16505
3039.66850,0.16398
3037.73977,0.16308
3035.81105,0.16227
3033.88233,0.16148
3031.95360,0.16065
3030.02488,0.15980
3028.09615,0.15895
3026.16743,0.15808
3024.23871,0.15711
3022.30998,0.15609
3020.38126,0.15513
3018.45254,0.15428
3016.52381,0.15349
3014.59509,0.15266
3012.66636,0.15182
3010.73764,0.15110
3008.80892,0.15051
3006.88019,0.14990
3004.95147,0.14919
3003.02275,0.14844
3001.09402,0.14768
2999.16530,0.14701
2997.23658,0.14646
2995.30785,0.14591
2993.37913,0.14537
2991.45040,0.14493
2989.52168,0.14453
2987.59296,0.14409
2985.66423,0.14372
2983.73551,0.14343
2981.80679,0.14312
2979.87806,0.14287
2977.94934,0.14275
2976.02062,0.14274
2974.09189,0.14278
2972.16317,0.14287
2970.23444,0.14299
2968.30572,0.14314
2966.37700,0.14332
2964.44827,0.14352
2962.51955,0.14361
2960.59083,0.14346
2958.66210,0.14324
2956.73338,0.14303
2954.80466,0.14277
2952.87593,0.14247
2950.94721,0.14209
2949.01848,0.14171
2947.08976,0.14148
2945.16104,0.14153
2943.23231,0.14194
2941.30359,0.14267
2939.37487,0.14354
2937.44614,0.14448
2935.51742,0.14548
2933.58869,0.14645
2931.65997,0.14726
2929.73125,0.14781
2927.80252,0.14807
2925.87380,0.14800
2923.94508,0.14733
2922.01635,0.14582
2920.08763,0.14376
2918.15891,0.14144
2916.23018,0.13886
2914.30146,0.13606
2912.37273,0.13329
2910.44401,0.13080
2908.51529,0.12862
2906.58656,0.12666
2904.65784,0.12492
2902.72912,0.12337
2900.80039,0.12186
2898.87167,0.12034
2896.94295,0.11893
2895.01422,0.11761
2893.08550,0.11630
2891.15677,0.11504
2889.22805,0.11385
2887.29933,0.11272
2885.37060,0.11163
2883.44188,0.11066
2881.51316,0.10983
2879.58443,0.10910
2877.65571,0.10846
2875.72698,0.10795
2873.79826,0.10742
2871.86954,0.10675
2869.94081,0.10604
2868.01209,0.10540
2866.08337,0.10494
2864.15464,0.10476
2862.22592,0.10492
2860.29720,0.10542
2858.36847,0.10611
2856.43975,0.10674
2854.51102,0.10709
2852.58230,0.10669
2850.65358,0.10510
2848.72485,0.10238
2846.79613,0.09912
2844.86741,0.09581
2842.93868,0.09281
2841.00996,0.09035
2839.08124,0.08836
2837.15251,0.08663
2835.22379,0.08512
2833.29506,0.08384
2831.36634,0.08269
2829.43762,0.08158
2827.50889,0.08051
2825.58017,0.07948
2823.65145,0.07851
2821.72272,0.07764
2819.79400,0.07678
2817.86527,0.07591
2815.93655,0.07512
2814.00783,0.07441
2812.07910,0.07371
2810.15038,0.07295
2808.22166,0.07218
2806.29293,0.07149
2804.36421,0.07082
2802.43549,0.07011
2800.50676,0.06938
2798.57804,0.06867
2796.64931,0.06798
2794.72059,0.06735
2792.79187,0.06673
2790.86314,0.06605
2788.93442,0.06539
2787.00570,0.06480
2785.07697,0.06418
2783.14825,0.06352
2781.21953,0.06288
2779.29080,0.06229
2777.36208,0.06169
2775.43335,0.06106
2773.50463,0.06038
2771.57591,0.05970
2769.64718,0.05910
2767.71846,0.05852
2765.78974,0.05791
2763.86101,0.05737
2761.93229,0.05692
2760.00356,0.05641
2758.07484,0.05581
2756.14612,0.05518
2754.21739,0.05459
2752.28867,0.05408
2750.35995,0.05360
2748.43122,0.05307
2746.50250,0.05253
2744.57378,0.05203
2742.64505,0.05154
2740.71633,0.05099
2738.78760,0.05040
2736.85888,0.04984
2734.93016,0.04928
2733.00143,0.04878
2731.07271,0.04840
2729.14399,0.04807
2727.21526,0.04761
2725.28654,0.04700
2723.35782,0.04638
2721.42909,0.04587
2719.50037,0.04543
2717.57164,0.04488
2715.64292,0.04427
2713.71420,0.04377
2711.78547,0.04342
2709.85675,0.04306
2707.92803,0.04255
2705.99930,0.04195
2704.07058,0.04145
2702.14185,0.04108
2700.21313,0.04075
2698.28441,0.04037
2696.35568,0.03992
2694.42696,0.03946
2692.49824,0.03901
2690.56951,0.03855
2688.64079,0.03809
2686.71207,0.03761
2684.78334,0.03710
2682.85462,0.03661
2680.92589,0.03618
2678.99717,0.03582
2677.06845,0.03551
2675.13972,0.03520
2673.21100,0.03482
2671.28228,0.03436
2669.35355,0.03391
2667.42483,0.03350
2665.49611,0.03308
2663.56738,0.03265
2661.63866,0.03224
2659.70993,0.03185
2657.78121,0.03148
2655.85249,0.03111
2653.92376,0.03076
2651.99504,0.03042
2650.06632,0.03005
2648.13759,0.02962
2646.20887,0.02919
2644.28014,0.02882
2642.35142,0.02845
2640.42270,0.02811
2638.49397,0.02780
2636.56525,0.02743
2634.63653,0.02703
2632.70780,0.02667
2630.77908,0.02632
2628.85036,0.02594
2626.92163,0.02559
2624.99291,0.02532
2623.06418,0.02508
2621.13546,0.02476
2619.20674,0.02432
2617.27801,0.02393
2615.34929,0.02366
2613.42057,0.02341
2611.49184,0.02314
2609.56312,0.02291
2607.63440,0.02266
2605.70567,0.02232
2603.77695,0.02195
2601.84822,0.02161
2599.91950,0.02134
2597.99078,0.02113
2596.06205,0.02087
2594.13333,0.02054
2592.20461,0.02025
2590.27588,0.01998
2588.34716,0.01968
2586.41843,0.01940
2584.48971,0.01920
2582.56099,0.01904
2580.63226,0.01876
2578.70354,0.01839
2576.77482,0.01813
2574.84609,0.01797
2572.91737,0.01779
2570.98865,0.01761
2569.05992,0.01743
2567.13120,0.01719
2565.20247,0.01691
2563.27375,0.01660
2561.34503,0.01633
2559.41630,0.01613
2557.48758,0.01597
2555.55886,0.01580
2553.63013,0.01560
2551.70141,0.01541
2549.77269,0.01523
2547.84396,0.01508
2545.91524,0.01492
2543.98651,0.01468
2542.05779,0.01445
2540.12907,0.01430
2538.20034,0.01415
2536.27162,0.01395
2534.34290,0.01377
2532.41417,0.01365
2530.48545,0.01351
2528.55673,0.01334
2526.62800,0.01322
2524.69928,0.01304
2522.77055,0.01274
2520.84183,0.01246
2518.91311,0.01228
2516.98438,0.01219
2515.05566,0.01210
2513.12694,0.01194
2511.19821,0.01174
2509.26949,0.01156
2507.34076,0.01141
2505.41204,0.01126
2503.48332,0.01108
2501.55459,0.01091
2499.62587,0.01080
2497.69715,0.01066
2495.76842,0.01045
2493.83970,0.01032
2491.91098,0.01026
2489.98225,0.01011
2488.05353,0.00991
2486.12480,0.00980
2484.19608,0.00973
2482.26736,0.00956
2480.33863,0.00929
2478.40991,0.00904
2476.48119,0.00888
2474.55246,0.00876
2472.62374,0.00864
2470.69502,0.00851
2468.76629,0.00833
2466.83757,0.00813
2464.90884,0.00796
2462.98012,0.00778
2461.05140,0.00760
2459.12267,0.00744
2457.19395,0.00732
2455.26523,0.00720
2453.33650,0.00705
2451.40778,0.00688
2449.47905,0.00672
2447.55033,0.00655
2445.62161,0.00640
2443.69288,0.00630
2441.76416,0.00622
2439.83544,0.00612
2437.90671,0.00594
2435.97799,0.00578
2434.04927,0.00572
2432.12054,0.00568
2430.19182,0.00557
2428.26309,0.00543
2426.33437,0.00532
2424.40565,0.00518
2422.47692,0.00498
2420.54820,0.00478
2418.61948,0.00465
2416.69075,0.00457
2414.76203,0.00448
2412.83331,0.00438
2410.90458,0.00425
2408.97586,0.00407
2407.04713,0.00393
2405.11841,0.00384
2403.18969,0.00375
2401.26096,0.00362
2399.33224,0.00349
2397.40352,0.00337
2395.47479,0.00327
2393.54607,0.00322
2391.61734,0.00317
2389.68862,0.00309
2387.75990,0.00302
2385.83117,0.00300
2383.90245,0.00300
2381.97373,0.00301
2380.04500,0.00303
2378.11628,0.00307
2376.18756,0.00308
2374.25883,0.00306
2372.33011,0.00305
2370.40138,0.00308
2368.47266,0.00313
2366.54394,0.00312
2364.61521,0.00298
2362.68649,0.00275
2360.75777,0.00254
2358.82904,0.00244
2356.90032,0.00242
2354.97160,0.00236
2353.04287,0.00215
2351.11415,0.00199
2349.18542,0.00213
2347.25670,0.00244
2345.32798,0.00262
2343.39925,0.00256
2341.47053,0.00242
2339.54181,0.00228
2337.61308,0.00213
2335.68436,0.00199
2333.75563,0.00189
2331.82691,0.00183
2329.89819,0.00179
2327.96946,0.00174
2326.04074,0.00166
2324.11202,0.00156
2322.18329,0.00148
2320.25457,0.00144
2318.32585,0.00143
2316.39712,0.00140
2314.46840,0.00131
2312.53967,0.00117
2310.61095,0.00105
2308.68223,0.00102
2306.75350,0.00101
2304.82478,0.00094
2302.89606,0.00088
2300.96733,0.00087
2299.03861,0.00089
2297.10989,0.00086
2295.18116,0.00079
2293.25244,0.00076
2291.32371,0.00074
2289.39499,0.00070
2287.46627,0.00062
2285.53754,0.00057
2283.60882,0.00058
2281.68010,0.00060
2279.75137,0.00057
2277.82265,0.00052
2275.89392,0.00052
2273.96520,0.00050
2272.03648,0.00044
2270.10775,0.00038
2268.17903,0.00035
2266.25031,0.00034
2264.32158,0.00034
2262.39286,0.00034
2260.46414,0.00032
2258.53541,0.00028
2256.60669,0.00024
2254.67796,0.00022
2252.74924,0.00019
2250.82052,0.00013
2248.89179,0.00008
2246.96307,0.00010
2245.03435,0.00017
2243.10562,0.00022
2241.17690,0.00020
2239.24818,0.00014
2237.31945,0.00011
2235.39073,0.00013
2233.46200,0.00014
2231.53328,0.00013
2229.60456,0.00020
2227.67583,0.00028
2225.74711,0.00026
2223.81839,0.00019
2221.88966,0.00016
2219.96094,0.00015
2218.03221,0.00013
2216.10349,0.00009
2214.17477,0.00007
2212.24604,0.00007
2210.31732,0.00007
2208.38860,0.00003
2206.45987,0.00000
2204.53115,0.00001
2202.60243,0.00004
2200.67370,0.00002
2198.74498,-0.00004
2196.81625,-0.00009
2194.88753,-0.00015
2192.95881,-0.00016
2191.03008,-0.00011
2189.10136,-0.00004
2187.17264,-0.00001
2185.24391,-0.00003
2183.31519,-0.00008
2181.38647,-0.00013
2179.45774,-0.00019
2177.52902,-0.00018
2175.60029,-0.00011
2173.67157,-0.00004
2171.74285,-0.00003
2169.81412,-0.00006
2167.88540,-0.00006
2165.95668,-0.00005
2164.02795,-0.00004
2162.09923,-0.00003
2160.17050,-0.00006
2158.24178,-0.00009
2156.31306,-0.00006
2154.38433,-0.00002
2152.45561,0.00003
2150.52689,0.00009
2148.59816,0.00010
2146.66944,0.00008
2144.74072,0.00009
2142.81199,0.00013
2140.88327,0.00016
2138.95454,0.00016
2137.02582,0.00012
2135.09710,0.00006
2133.16837,0.00002
2131.23965,0.00001
2129.31093,0.00002
2127.38220,0.00005
2125.45348,0.00007
2123.52476,0.00006
2121.59603,0.00004
2119.66731,0.00003
2117.73858,0.00002
2115.80986,-0.00000
2113.88114,-0.00004
2111.95241,-0.00007
2110.02369,-0.00008
2108.09497,-0.00011
2106.16624,-0.00014
2104.23752,-0.00014
2102.30880,-0.00008
2100.38007,-0.00003
2098.45135,-0.00002
2096.52262,-0.00002
2094.59390,0.00000
2092.66518,-0.00005
2090.73645,-0.00014
2088.80773,-0.00027
2086.87901,-0.00040
2084.95028,-0.00047
2083.02156,-0.00052
2081.09283,-0.00061
2079.16411,-0.00069
2077.23539,-0.00065
2075.30666,-0.00056
2073.37794,-0.00054
2071.44922,-0.00056
2069.52049,-0.00056
2067.59177,-0.00052
2065.66305,-0.00052
2063.73432,-0.00053
2061.80560,-0.00049
2059.87687,-0.00045
2057.94815,-0.00046
2056.01943,-0.00044
2054.09070,-0.00038
2052.16198,-0.00029
2050.23326,-0.00015
2048.30453,-0.00001
2046.37581,0.00007
2044.44709,0.00013
2042.51836,0.00025
2040.58964,0.00044
2038.66091,0.00063
2036.73219,0.00080
2034.80347,0.00096
2032.87474,0.00118
2030.94602,0.00141
2029.01730,0.00160
2027.08857,0.00175
2025.15985,0.00189
2023.23112,0.00201
2021.30240,0.00214
2019.37368,0.00225
2017.44495,0.00230
2015.51623,0.00235
2013.58751,0.00247
2011.65878,0.00266
2009.73006,0.00284
2007.80134,0.00296
2005.87261,0.00302
2003.94389,0.00306
2002.01516,0.00311
2000.08644,0.00318
1998.15772,0.00322
1996.22899,0.00322
1994.30027,0.00316
1992.37155,0.00305
1990.44282,0.00300
1988.51410,0.00304
1986.58538,0.00303
1984.65665,0.00291
1982.72793,0.00279
1980.79920,0.00277
1978.87048,0.00279
1976.94176,0.00272
1975.01303,0.00258
1973.08431,0.00245
1971.15559,0.00232
1969.22686,0.00214
1967.29814,0.00190
1965.36941,0.00168
1963.44069,0.00160
1961.51197,0.00158
1959.58324,0.00150
1957.65452,0.00136
1955.72580,0.00119
1953.79707,0.00102
1951.86835,0.00085
1949.93963,0.00073
1948.01090,0.00071
1946.08218,0.00074
1944.15345,0.00062
1942.22473,0.00031
1940.29601,0.00006
1938.36728,0.00000
1936.43856,0.00002
1934.50984,0.00001
1932.58111,-0.00003
1930.65239,-0.00006
1928.72367,-0.00002
1926.79494,0.00009
1924.86622,0.00020
1922.93749,0.00025
1921.00877,0.00033
1919.08005,0.00044
1917.15132,0.00054
1915.22260,0.00075
1913.29388,0.00112
1911.36515,0.00154
1909.43643,0.00193
1907.50770,0.00229
1905.57898,0.00261
1903.65026,0.00300
1901.72153,0.00349
1899.79281,0.00405
1897.86409,0.00456
1895.93536,0.00493
1894.00664,0.00525
1892.07792,0.00563
1890.14919,0.00604
1888.22047,0.00638
1886.29174,0.00670
1884.36302,0.00697
1882.43430,0.00717
1880.50557,0.00734
1878.57685,0.00749
1876.64813,0.00761
1874.71940,0.00771
1872.79068,0.00782
1870.86196,0.00783
1868.93323,0.00754
1867.00451,0.00707
1865.07578,0.00669
1863.14706,0.00641
1861.21834,0.00611
1859.28961,0.00573
1857.36089,0.00533
1855.43217,0.00494
1853.50344,0.00454
1851.57472,0.00414
1849.64599,0.00382
1847.71727,0.00359
1845.78855,0.00321
1843.85982,0.00250
1841.93110,0.00181
1840.00238,0.00149
1838.07365,0.00137
1836.14493,0.00120
1834.21621,0.00101
1832.28748,0.00082
1830.35876,0.00050
1828.43003,0.00015
1826.50131,0.00000
1824.57259,-0.00004
1822.64386,-0.00007
1820.71514,-0.00007
1818.78642,-0.00007
1816.85769,-0.00007
1814.92897,0.00000
1813.00025,-0.00009
1811.07152,-0.00021
1809.14280,-0.00029
1807.21407,-0.00021
1805.28535,-0.00001
1803.35663,0.00014
1801.42790,0.00016
1799.49918,0.00016
1797.57046,0.00034
1795.64173,0.00072
1793.71301,0.00107
1791.78428,0.00123
1789.85556,0.00142
1787.92684,0.00183
1785.99811,0.00236
1784.06939,0.00292
1782.14067,0.00346
1780.21194,0.00396
1778.28322,0.00449
1776.35450,0.00518
1774.42577,0.00591
1772.49705,0.00646
1770.56832,0.00684
1768.63960,0.00725
1766.71088,0.00777
1764.78215,0.00840
1762.85343,0.00907
1760.92471,0.00969
1758.99598,0.01033
1757.06726,0.01105
1755.13854,0.01188
1753.20981,0.01287
1751.28109,0.01400
1749.35236,0.01511
1747.42364,0.01614
1745.49492,0.01722
1743.56619,0.01846
1741.63747,0.01985
1739.70875,0.02134
1737.78002,0.02289
1735.85130,0.02454
1733.92257,0.02621
1731.99385,0.02772
1730.06513,0.02912
1728.13640,0.03055
1726.20768,0.03200
1724.27896,0.03343
1722.35023,0.03491
1720.42151,0.03651
1718.49279,0.03823
1716.56406,0.03988
1714.63534,0.04139
1712.70661,0.04296
1710.77789,0.04475
1708.84917,0.04679
1706.92044,0.04910
1704.99172,0.05152
1703.06300,0.05385
1701.13427,0.05633
1699.20555,0.05918
1697.27683,0.06227
1695.34810,0.06554
1693.41938,0.06871
1691.49065,0.07174
1689.56193,0.07489
1687.63321,0.07805
1685.70448,0.08143
1683.77576,0.08532
1681.84704,0.08899
1679.91831,0.09206
1677.98959,0.09499
1676.06087,0.09807
1674.13214,0.10122
1672.20342,0.10427
1670.27469,0.10733
1668.34597,0.11029
1666.41725,0.11280
1664.48852,0.11510
1662.55980,0.11743
1660.63108,0.11964
1658.70235,0.12167
1656.77363,0.12366
1654.84490,0.12550
1652.91618,0.12683
1650.98746,0.12771
1649.05873,0.12856
1647.13001,0.12930
1645.20129,0.12986
1643.27256,0.13042
1641.34384,0.13103
1639.41512,0.13156
1637.48639,0.13165
1635.55767,0.13106
1633.62894,0.13039
1631.70022,0.13012
1629.77150,0.12980
1627.84277,0.12902
1625.91405,0.12776
1623.98533,0.12594
1622.05660,0.12383
1620.12788,0.12202
1618.19916,0.11999
1616.27043,0.11692
1614.34171,0.11370
1612.41298,0.11113
1610.48426,0.10866
1608.55554,0.10591
1606.62681,0.10308
1604.69809,0.10037
1602.76937,0.09772
1600.84064,0.09512
1598.91192,0.09267
1596.98319,0.09035
1595.05447,0.08807
1593.12575,0.08586
1591.19702,0.08380
1589.26830,0.08187
1587.33958,0.08002
1585.41085,0.07821
1583.48213,0.07649
1581.55341,0.07500
1579.62468,0.07377
1577.69596,0.07238
1575.76723,0.07064
1573.83851,0.06926
1571.90979,0.06837
1569.98106,0.06732
1568.05234,0.06613
1566.12362,0.06528
1564.19489,0.06486
1562.26617,0.06473
1560.33745,0.06424
1558.40872,0.06271
1556.48000,0.06121
1554.55127,0.06053
1552.62255,0.06007
1550.69383,0.05942
1548.76510,0.05864
1546.83638,0.05792
1544.90766,0.05718
1542.97893,0.05608
1541.05021,0.05413
1539.12148,0.05171
1537.19276,0.05020
1535.26404,0.04911
1533.33531,0.04734
1531.40659,0.04530
1529.47787,0.04369
1527.54914,0.04205
1525.62042,0.04009
1523.69170,0.03800
1521.76297,0.03559
1519.83425,0.03308
1517.90552,0.03086
1515.97680,0.02873
1514.04808,0.02674
1512.11935,0.02513
1510.19063,0.02359
1508.26191,0.02105
1506.33318,0.01718
1504.40446,0.01419
1502.47574,0.01272
1500.54701,0.01150
1498.61829,0.00975
1496.68956,0.00764
1494.76084,0.00599
1492.83212,0.00508
1490.90339,0.00432
1488.97467,0.00332
1487.04595,0.00247
1485.11722,0.00210
1483.18850,0.00217
1481.25977,0.00260
1479.33105,0.00341
1477.40233,0.00461
1475.47360,0.00620
1473.54488,0.00817
1471.61616,0.01040
1469.68743,0.01250
1467.75871,0.01423
1465.82999,0.01554
1463.90126,0.01651
1461.97254,0.01741
1460.04381,0.01835
1458.11509,0.01893
1456.18637,0.01896
1454.25764,0.01896
1452.32892,0.01914
1450.40020,0.01930
1448.47147,0.01933
1446.54275,0.01929
1444.61403,0.01930
1442.68530,0.01943
1440.75658,0.01968
1438.82785,0.01998
1436.89913,0.02017
1434.97041,0.02028
1433.04168,0.02046
1431.11296,0.02074
1429.18424,0.02104
1427.25551,0.02141
1425.32679,0.02187
1423.39806,0.02240
1421.46934,0.02297
1419.54062,0.02346
1417.61189,0.02384
1415.68317,0.02432
1413.75445,0.02498
1411.82572,0.02567
1409.89700,0.02632
1407.96828,0.02696
1406.03955,0.02753
1404.11083,0.02790
1402.18210,0.02793
1400.25338,0.02750
1398.32466,0.02648
1396.39593,0.02491
1394.46721,0.02308
1392.53849,0.02148
1390.60976,0.02035
1388.68104,0.01938
1386.75232,0.01836
1384.82359,0.01745
1382.89487,0.01675
1380.96614,0.01610
1379.03742,0.01536
1377.10870,0.01443
1375.17997,0.01322
1373.25125,0.01185
1371.32253,0.01060
1369.39380,0.00945
1367.46508,0.00835
1365.53635,0.00733
1363.60763,0.00631
1361.67891,0.00520
1359.75018,0.00415
1357.82146,0.00324
1355.89274,0.00245
1353.96401,0.00184
1352.03529,0.00143
1350.10657,0.00115
1348.17784,0.00089
1346.24912,0.00061
1344.32039,0.00035
1342.39167,0.00011
1340.46295,-0.00017
1338.53422,-0.00054
1336.60550,-0.00090
1334.67678,-0.00113
1332.74805,-0.00127
1330.81933,-0.00133
1328.89061,-0.00131
1326.96188,-0.00123
1325.03316,-0.00120
1323.10443,-0.00116
1321.17571,-0.00103
1319.24699,-0.00086
1317.31826,-0.00070
1315.38954,-0.00047
1313.46082,-0.00022
1311.53209,0.00000
1309.60337,0.00025
1307.67464,0.00058
1305.74592,0.00097
1303.81720,0.00139
1301.88847,0.00196
1299.95975,0.00282
1298.03103,0.00396
1296.10230,0.00529
1294.17358,0.00680
1292.24486,0.00852
1290.31613,0.01045
1288.38741,0.01261
1286.45868,0.01503
1284.52996,0.01763
1282.60124,0.02041
1280.67251,0.02347
1278.74379,0.02682
1276.81507,0.03044
1274.88634,0.03437
1272.95762,0.03868
1271.02890,0.04351
1269.10017,0.04896
1267.17145,0.05513
1265.24272,0.06214
1263.31400,0.06993
1261.38528,0.07858
1259.45655,0.08818
1257.52783,0.09859
1255.59911,0.10962
1253.67038,0.12109
1251.74166,0.13263
1249.81294,0.14384
1247.88421,0.15451
1245.95549,0.16462
1244.02676,0.17407
1242.09804,0.18272
1240.16932,0.19062
1238.24059,0.19780
1236.31187,0.20419
1234.38315,0.20983
1232.45442,0.21486
1230.52570,0.21938
1228.59697,0.22340
1226.66825,0.22695
1224.73953,0.23026
1222.81080,0.23355
1220.88208,0.23686
1218.95336,0.24004
1217.02463,0.24288
1215.09591,0.24533
1213.16719,0.24767
1211.23846,0.25011
1209.30974,0.25248
1207.38101,0.25473
1205.45229,0.25705
1203.52357,0.25948
1201.59484,0.26186
1199.66612,0.26397
1197.73740,0.26567
1195.80867,0.26719
1193.87995,0.26904
1191.95123,0.27127
1190.02250,0.27341
1188.09378,0.27526
1186.16505,0.27711
1184.23633,0.27918
1182.30761,0.28134
1180.37888,0.28339
1178.45016,0.28552
1176.52144,0.28797
1174.59271,0.29036
1172.66399,0.29235
1170.73526,0.29427
1168.80654,0.29632
1166.87782,0.29842
1164.94909,0.30045
1163.02037,0.30229
1161.09165,0.30411
1159.16292,0.30609
1157.23420,0.30799
1155.30548,0.30964
1153.37675,0.31110
1151.44803,0.31248
1149.51930,0.31411
1147.59058,0.31606
1145.66186,0.31802
1143.73313,0.32024
1141.80441,0.32267
1139.87569,0.32479
1137.94696,0.32668
1136.01824,0.32867
1134.08952,0.33086
1132.16079,0.33334
1130.23207,0.33613
1128.30334,0.33903
1126.37462,0.34200
1124.44590,0.34539
1122.51717,0.34940
1120.58845,0.35392
1118.65973,0.35880
1116.73100,0.36420
1114.80228,0.37035
1112.87355,0.37740
1110.94483,0.38500
1109.01611,0.39250
1107.08738,0.40009
1105.15866,0.40819
1103.22994,0.41616
1101.30121,0.42273
1099.37249,0.42747
1097.44377,0.43072
1095.51504,0.43291
1093.58632,0.43448
1091.65759,0.43515
1089.72887,0.43484
1087.80015,0.43430
1085.87142,0.43359
1083.94270,0.43227
1082.01398,0.43040
1080.08525,0.42767
1078.15653,0.42373
1076.22781,0.41949
1074.29908,0.41584
1072.37036,0.41262
1070.44163,0.40910
1068.51291,0.40480
1066.58419,0.39984
1064.65546,0.39438
1062.72674,0.38867
1060.79802,0.38274
1058.86929,0.37632
1056.94057,0.36966
1055.01184,0.36291
1053.08312,0.35587
1051.15440,0.34887
1049.22567,0.34169
1047.29695,0.33378
1045.36823,0.32580
1043.43950,0.31831
1041.51078,0.31093
1039.58206,0.30326
1037.65333,0.29521
1035.72461,0.28715
1033.79588,0.27951
1031.86716,0.27232
1029.93844,0.26544
1028.00971,0.25882
1026.08099,0.25241
1024.15227,0.24605
1022.22354,0.23999
1020.29482,0.23451
1018.36610,0.22937
1016.43737,0.22440
1014.50865,0.21981
1012.57992,0.21563
1010.65120,0.21161
1008.72248,0.20761
1006.79375,0.20369
1004.86503,0.19999
1002.93631,0.19656
1001.00758,0.19347
999.07886,0.19071
997.15013,0.18793
995.22141,0.18499
993.29269,0.18217
991.36396,0.17968
989.43524,0.17745
987.50652,0.17543
985.57779,0.17370
983.64907,0.17241
981.72035,0.17138
979.79162,0.17033
977.86290,0.16957
975.93417,0.16937
974.00545,0.16902
972.07673,0.16811
970.14800,0.16733
968.21928,0.16723
966.29056,0.16758
964.36183,0.16794
962.43311,0.16790
960.50439,0.16743
958.57566,0.16682
956.64694,0.16611
954.71821,0.16515
952.78949,0.16408
950.86077,0.16303
948.93204,0.16183
947.00332,0.16022
945.07460,0.15818
943.14587,0.15597
941.21715,0.15365
939.28842,0.15110
937.35970,0.14838
935.43098,0.14566
933.50225,0.14297
931.57353,0.14001
929.64481,0.13667
927.71608,0.13323
925.78736,0.12981
923.85864,0.12627
921.92991,0.12268
920.00119,0.11924
918.07246,0.11591
916.14374,0.11242
914.21502,0.10859
912.28629,0.10448
910.35757,0.10037
908.42885,0.09650
906.50012,0.09268
904.57140,0.08885
902.64268,0.08524
900.71395,0.08161
898.78523,0.07770
896.85650,0.07405
894.92778,0.07090
892.99906,0.06770
891.07033,0.06437
889.14161,0.06145
887.21289,0.05866
885.28416,0.05558
883.35544,0.05275
881.42671,0.05058
879.49799,0.04853
877.56927,0.04615
875.64054,0.04368
873.71182,0.04138
871.78310,0.03918
869.85437,0.03717
867.92565,0.03551
865.99693,0.03393
864.06820,0.03203
862.13948,0.02995
860.21075,0.02838
858.28203,0.02742
856.35331,0.02636
854.42458,0.02508
852.49586,0.02404
850.56714,0.02335
848.63841,0.02299
846.70969,0.02316
844.78097,0.02406
842.85224,0.02557
840.92352,0.02747
838.99479,0.02964
837.06607,0.03197
835.13735,0.03434
833.20862,0.03679
831.27990,0.03949
829.35118,0.04238
827.42245,0.04530
825.49373,0.04804
823.56501,0.05072
821.63628,0.05373
819.70756,0.05699
817.77883,0.05996
815.85011,0.06248
813.92139,0.06495
811.99266,0.06750
810.06394,0.06991
808.13522,0.07227
806.20649,0.07443
804.27777,0.07629
802.34904,0.07804
800.42032,0.07940
798.49160,0.08005
796.56287,0.07999
794.63415,0.07920
792.70543,0.07781
790.77670,0.07607
788.84798,0.07423
786.91926,0.07241
784.99053,0.07050
783.06181,0.06824
781.13308,0.06517
779.20436,0.06125
777.27564,0.05715
775.34691,0.05331
773.41819,0.04975
771.48947,0.04652
769.56074,0.04394
767.63202,0.04227
765.70330,0.04141
763.77457,0.04083
761.84585,0.04003
759.91712,0.03926
757.98840,0.03899
756.05968,0.03882
754.13095,0.03832
752.20223,0.03776
750.27351,0.03725
748.34478,0.03676
746.41606,0.03644
744.48733,0.03630
742.55861,0.03614
740.62989,0.03582
738.70116,0.03552
736.77244,0.03551
734.84372,0.03578
732.91499,0.03598
730.98627,0.03596
729.05755,0.03619
727.12882,0.03691
725.20010,0.03734
723.27137,0.03691
721.34265,0.03633
719.41393,0.03620
717.48520,0.03661
715.55648,0.03730
713.62776,0.03782
711.69903,0.03802
709.77031,0.03832
707.84159,0.03916
705.91286,0.04035
703.98414,0.04139
702.05541,0.04237
700.12669,0.04354
698.19797,0.04460
696.26924,0.04519
694.34052,0.04547
692.41180,0.04577
690.48307,0.04608
688.55435,0.04634
686.62562,0.04678
684.69690,0.04737
682.76818,0.04778
680.83945,0.04784
678.91073,0.04761
676.98201,0.04737
675.05328,0.04731
673.12456,0.04712
671.19584,0.04660
669.26711,0.04632
667.33839,0.04691
665.40966,0.04804
663.48094,0.04910
661.55222,0.05006
659.62349,0.05103
657.69477,0.05209
655.76605,0.05329
653.83732,0.05446
651.90860,0.05530
649.97988,0.05612
648.05115,0.05756
646.12243,0.05941
644.19370,0.06082
642.26498,0.06164
640.33626,0.06234
638.40753,0.06325
636.47881,0.06450
634.55009,0.06592
632.62136,0.06688
630.69264,0.06724
628.76391,0.06783
626.83519,0.06939
624.90647,0.07126
622.97774,0.07253
621.04902,0.07312
619.12030,0.07381
617.19157,0.07525
615.26285,0.07685
613.33413,0.07779
611.40540,0.07833
609.47668,0.07924
607.54795,0.08042
605.61923,0.08129
603.69051,0.08257
601.76178,0.08493
599.83306,0.08700
597.90434,0.08783
595.97561,0.08847
594.04689,0.08951
592.11817,0.09078
590.18944,0.09201
588.26072,0.09291
586.33199,0.09425
584.40327,0.09642
582.47455,0.09776
580.54582,0.09751
578.61710,0.09742
576.68838,0.09846
574.75965,0.09967
572.83093,0.10032
570.90220,0.10057
568.97348,0.10051
567.04476,0.10030
565.11603,0.10067
563.18731,0.10183
561.25859,0.10276
559.32986,0.10263
557.40114,0.10233
555.47242,0.10260
553.54369,0.10269
551.61497,0.10280
549.68624,0.10363
547.75752,0.10439
545.82880,0.10450
543.90007,0.10460
541.97135,0.10480
540.04263,0.10442
538.11390,0.10340
536.18518,0.10275
534.25646,0.10316
532.32773,0.10393
530.39901,0.10423
528.47028,0.10397
526.54156,0.10320
524.61284,0.10233
522.68411,0.10208
520.75539,0.10256
518.82667,0.10329
516.89794,0.10442
514.96922,0.10631
513.04049,0.10834
511.11177,0.10984
509.18305,0.11112
507.25432,0.11317
505.32560,0.11685
503.39688,0.12180
501.46815,0.12712
499.53943,0.13314
497.61071,0.14066
495.68198,0.14887
493.75326,0.15686
491.82453,0.16459
489.89581,0.17148
487.96709,0.17792
486.03836,0.18544
484.10964,0.19377
482.18092,0.20093
480.25219,0.20648
478.32347,0.21263
476.39475,0.22093
474.46602,0.23028
472.53730,0.23813
470.60857,0.24154
468.67985,0.23998
466.75113,0.23620
464.82240,0.23283
462.89368,0.23053
460.96496,0.22986
459.03623,0.23079
457.10751,0.23076
455.17878,0.22770
453.25006,0.22208
451.32134,0.21507
449.39261,0.20856
447.46389,0.20302
445.53517,0.19665
443.60644,0.19017
441.67772,0.18674
439.74900,0.18498
437.82027,0.18063
435.89155,0.17336
433.96282,0.16557
432.03410,0.15865
430.10538,0.15337
428.17665,0.14830
426.24793,0.14029
424.31921,0.12983
422.39048,0.12085
420.46176,0.11632
418.53304,0.11594
416.60431,0.11497
414.67559,0.11014
412.74686,0.10382
410.81814,0.09874
408.88942,0.09331
406.96069,0.08525
405.03197,0.07739
403.10325,0.07431
401.17452,0.07313
399.24580,0.06409
397.31708,0.04768
395.38835,0.03979
393.45963,0.04068
391.53090,0.03761
389.60218,0.03124
387.67346,0.02477
385.74473,0.01242
383.81601,0.00000
381.88729,-0.00670
379.95856,-0.00525
378.02984,-0.00208
376.10111,0.00494
374.17239,0.01002
372.24367,0.00407
370.31494,-0.00297
368.38622,0.00000
