3996.31543,0.00000
3994.38671,0.00021
3992.45799,0.00043
3990.52926,0.00053
3988.60054,0.00047
3986.67182,0.00038
3984.74309,0.00036
3982.81437,0.00040
3980.88564,0.00048
3978.95692,0.00056
3977.02820,0.00057
3975.09947,0.00058
3973.17075,0.00060
3971.24203,0.00060
3969.31330,0.00059
3967.38458,0.00056
3965.45586,0.00055
3963.52713,0.00055
3961.59841,0.00056
3959.66968,0.00053
3957.74096,0.00043
3955.81224,0.00035
3953.88351,0.00042
3951.95479,0.00068
3950.02607,0.00096
3948.09734,0.00105
3946.16862,0.00095
3944.23990,0.00083
3942.31117,0.00077
3940.38245,0.00070
3938.45372,0.00057
3936.52500,0.00043
3934.59628,0.00046
3932.66755,0.00071
3930.73883,0.00091
3928.81011,0.00085
3926.88138,0.00077
3924.95266,0.00081
3923.02393,0.00080
3921.09521,0.00074
3919.16649,0.00079
3917.23776,0.00094
3915.30904,0.00096
3913.38032,0.00077
3911.45159,0.00054
3909.52287,0.00037
3907.59415,0.00023
3905.66542,0.00019
3903.73670,0.00035
3901.80797,0.00069
3899.87925,0.00096
3897.95053,0.00093
3896.02180,0.00064
3894.09308,0.00042
3892.16436,0.00051
3890.23563,0.00073
3888.30691,0.00075
3886.37819,0.00064
3884.44946,0.00053
3882.52074,0.00042
3880.59201,0.00039
3878.66329,0.00034
3876.73457,0.00023
3874.80584,0.00024
3872.87712,0.00031
3870.94840,0.00030
3869.01967,0.00033
3867.09095,0.00046
3865.16222,0.00064
3863.23350,0.00076
3861.30478,0.00064
3859.37605,0.00033
3857.44733,0.00001
3855.51861,0.00000
3853.58988,0.00056
3851.66116,0.00109
3849.73244,0.00090
3847.80371,0.00042
3845.87499,0.00017
3843.94626,0.00015
3842.01754,0.00013
3840.08882,0.00024
3838.16009,0.00067
3836.23137,0.00101
3834.30265,0.00088
3832.37392,0.00054
3830.44520,0.00036
3828.51648,0.00037
3826.58775,0.00039
3824.65903,0.00030
3822.73030,0.00037
3820.80158,0.00081
3818.87286,0.00115
3816.94413,0.00133
3815.01541,0.00147
3813.08669,0.00128
3811.15796,0.00080
3809.22924,0.00055
3807.30052,0.00077
3805.37179,0.00109
3803.44307,0.00136
3801.51434,0.00183
3799.58562,0.00224
3797.65690,0.00225
3795.72817,0.00207
3793.79945,0.00193
3791.87073,0.00191
3789.94200,0.00203
3788.01328,0.00224
3786.08455,0.00251
3784.15583,0.00269
3782.22711,0.00274
3780.29838,0.00285
3778.36966,0.00309
3776.44094,0.00325
3774.51221,0.00332
3772.58349,0.00350
3770.65477,0.00391
3768.72604,0.00443
3766.79732,0.00489
3764.86859,0.00523
3762.93987,0.00544
3761.01115,0.00570
3759.08242,0.00620
3757.15370,0.00666
3755.22498,0.00687
3753.29625,0.00727
3751.36753,0.00824
3749.43881,0.00929
3747.51008,0.00993
3745.58136,0.01073
3743.65263,0.01185
3741.72391,0.01250
3739.79519,0.01269
3737.86646,0.01333
3735.93774,0.01495
3734.00902,0.01698
3732.08029,0.01857
3730.15157,0.01967
3728.22284,0.02077
3726.29412,0.02233
3724.36540,0.02438
3722.43667,0.02663
3720.50795,0.02883
3718.57923,0.03096
3716.65050,0.03312
3714.72178,0.03548
3712.79306,0.03860
3710.86433,0.04263
3708.93561,0.04646
3707.00688,0.04931
3705.07816,0.05171
3703.14944,0.05462
3701.22071,0.05836
3699.29199,0.06217
3697.36327,0.06552
3695.43454,0.06858
3693.50582,0.07153
3691.57710,0.07502
3689.64837,0.07968
3687.71965,0.08461
3685.79092,0.08850
3683.86220,0.09170
3681.93348,0.09507
3680.00475,0.09876
3678.07603,0.10302
3676.14731,0.10853
3674.21858,0.11426
3672.28986,0.11863
3670.36113,0.12297
3668.43241,0.12787
3666.50369,0.13194
3664.57496,0.13531
3662.64624,0.13875
3660.71752,0.14218
3658.78879,0.14553
3656.86007,0.14920
3654.93135,0.15275
3653.00262,0.15546
3651.07390,0.15842
3649.14517,0.16291
3647.21645,0.16751
3645.28773,0.17059
3643.35900,0.17283
3641.43028,0.17527
3639.50156,0.17800
3637.57283,0.18073
3635.64411,0.18335
3633.71539,0.18576
3631.78666,0.18800
3629.85794,0.19084
3627.92921,0.19449
3626.00049,0.19730
3624.07177,0.19892
3622.14304,0.20037
3620.21432,0.20237
3618.28560,0.20462
3616.35687,0.20642
3614.42815,0.20786
3612.49942,0.20934
3610.57070,0.21090
3608.64198,0.21274
3606.71325,0.21469
3604.78453,0.21619
3602.85581,0.21745
3600.92708,0.21901
3598.99836,0.22072
3597.06964,0.22232
3595.14091,0.22398
3593.21219,0.22565
3591.28346,0.22704
3589.35474,0.22842
3587.42602,0.23030
3585.49729,0.23229
3583.56857,0.23383
3581.63985,0.23515
3579.71112,0.23650
3577.78240,0.23783
3575.85368,0.23910
3573.92495,0.24040
3571.99623,0.24170
3570.06750,0.24303
3568.13878,0.24463
3566.21006,0.24641
3564.28133,0.24781
3562.35261,0.24885
3560.42389,0.24993
3558.49516,0.25106
3556.56644,0.25211
3554.63771,0.25318
3552.70899,0.25443
3550.78027,0.25572
3548.85154,0.25692
3546.92282,0.25819
3544.99410,0.25952
3543.06537,0.26065
3541.13665,0.26163
3539.20793,0.26268
3537.27920,0.26385
3535.35048,0.26502
3533.42175,0.26600
3531.49303,0.26680
3529.56431,0.26769
3527.63558,0.26874
3525.70686,0.26981
3523.77814,0.27093
3521.84941,0.27218
3519.92069,0.27345
3517.99197,0.27455
3516.06324,0.27540
3514.13452,0.27612
3512.20579,0.27694
3510.27707,0.27788
3508.34835,0.27882
3506.41962,0.27974
3504.49090,0.28077
3502.56218,0.28190
3500.63345,0.28291
3498.70473,0.28374
3496.77600,0.28446
3494.84728,0.28512
3492.91856,0.28571
3490.98983,0.28629
3489.06111,0.28702
3487.13239,0.28794
3485.20366,0.28892
3483.27494,0.28993
3481.34622,0.29091
3479.41749,0.29166
3477.48877,0.29226
3475.56004,0.29296
3473.63132,0.29367
3471.70260,0.29436
3469.77387,0.29517
3467.84515,0.29604
3465.91643,0.29677
3463.98770,0.29727
3462.05898,0.29762
3460.13026,0.29801
3458.20153,0.29854
3456.27281,0.29899
3454.34408,0.29928
3452.41536,0.29968
3450.48664,0.30035
3448.55791,0.30106
3446.62919,0.30150
3444.70047,0.30174
3442.77174,0.30206
3440.84302,0.30252
3438.91429,0.30299
3436.98557,0.30328
3435.05685,0.30336
3433.12812,0.30356
3431.19940,0.30407
3429.27068,0.30467
3427.34195,0.30513
3425.41323,0.30542
3423.48451,0.30563
3421.55578,0.30589
3419.62706,0.30603
3417.69833,0.30601
3415.76961,0.30620
3413.84089,0.30671
3411.91216,0.30711
3409.98344,0.30727
3408.05472,0.30744
3406.12599,0.30750
3404.19727,0.30727
3402.26855,0.30701
3400.33982,0.30698
3398.41110,0.30712
3396.48237,0.30731
3394.55365,0.30738
3392.62493,0.30726
3390.69620,0.30705
3388.76748,0.30690
3386.83876,0.30682
3384.91003,0.30671
3382.98131,0.30662
3381.05259,0.30666
3379.12386,0.30675
3377.19514,0.30656
3375.26641,0.30606
3373.33769,0.30566
3371.40897,0.30558
3369.48024,0.30549
3367.55152,0.30510
3365.62280,0.30454
3363.69407,0.30416
3361.76535,0.30404
3359.83662,0.30393
3357.90790,0.30357
3355.97918,0.30307
3354.05045,0.30276
3352.12173,0.30268
3350.19301,0.30258
3348.26428,0.30234
3346.33556,0.30203
3344.40684,0.30169
3342.47811,0.30120
3340.54939,0.30059
3338.62066,0.30007
3336.69194,0.29972
3334.76322,0.29937
3332.83449,0.29898
3330.90577,0.29864
3328.97705,0.29828
3327.04832,0.29787
3325.11960,0.29752
3323.19088,0.29724
3321.26215,0.29687
3319.33343,0.29638
3317.40470,0.29591
3315.47598,0.29566
3313.54726,0.29544
3311.61853,0.29501
3309.68981,0.29454
3307.76109,0.29424
3305.83236,0.29397
3303.90364,0.29361
3301.97491,0.29324
3300.04619,0.29283
3298.11747,0.29234
3296.18874,0.29189
3294.26002,0.29151
3292.33130,0.29115
3290.40257,0.29073
3288.47385,0.29028
3286.54513,0.28987
3284.61640,0.28950
3282.68768,0.28912
3280.75895,0.28868
3278.83023,0.28820
3276.90151,0.28776
3274.97278,0.28737
3273.04406,0.28702
3271.11534,0.28668
3269.18661,0.28620
3267.25789,0.28556
3265.32917,0.28495
3263.40044,0.28438
3261.47172,0.28371
3259.54299,0.28294
3257.61427,0.28230
3255.68555,0.28176
3253.75682,0.28120
3251.82810,0.28075
3249.89938,0.28041
3247.97065,0.27993
3246.04193,0.27930
3244.11320,0.27870
3242.18448,0.27823
3240.25576,0.27780
3238.32703,0.27727
3236.39831,0.27660
3234.46959,0.27584
3232.54086,0.27508
3230.61214,0.27436
3228.68342,0.27356
3226.75469,0.27273
3224.82597,0.27209
3222.89724,0.27162
3220.96852,0.27109
3219.03980,0.27036
3217.11107,0.26945
3215.18235,0.26852
3213.25363,0.26768
3211.32490,0.26689
3209.39618,0.26613
3207.46746,0.26537
3205.53873,0.26455
3203.61001,0.26370
3201.68128,0.26293
3199.75256,0.26215
3197.82384,0.26122
3195.89511,0.26024
3193.96639,0.25935
3192.03767,0.25857
3190.10894,0.25791
3188.18022,0.25722
3186.25149,0.25632
3184.32277,0.25526
3182.39405,0.25424
3180.46532,0.25336
3178.53660,0.25252
3176.60788,0.25160
3174.67915,0.25066
3172.75043,0.24972
3170.82171,0.24871
3168.89298,0.24760
3166.96426,0.24651
3165.03553,0.24554
3163.10681,0.24460
3161.17809,0.24361
3159.24936,0.24264
3157.32064,0.24182
3155.39192,0.24108
3153.46319,0.24030
3151.53447,0.23939
3149.60575,0.23832
3147.67702,0.23721
3145.74830,0.23616
3143.81957,0.23518
3141.89085,0.23424
3139.96213,0.23330
3138.03340,0.23230
3136.10468,0.23123
3134.17596,0.23020
3132.24723,0.22927
3130.31851,0.22840
3128.38978,0.22748
3126.46106,0.22647
3124.53234,0.22549
3122.60361,0.22465
3120.67489,0.22377
3118.74617,0.22276
3116.81744,0.22174
3114.88872,0.22077
3112.96000,0.21981
3111.03127,0.21890
3109.10255,0.21801
3107.17382,0.21711
3105.24510,0.21622
3103.31638,0.21528
3101.38765,0.21424
3099.45893,0.21314
3097.53021,0.21195
3095.60148,0.21075
3093.67276,0.20968
3091.74404,0.20878
3089.81531,0.20790
3087.88659,0.20691
3085.95786,0.20581
3084.02914,0.20467
3082.10042,0.20357
3080.17169,0.20250
3078.24297,0.20143
3076.31425,0.20037
3074.38552,0.19931
3072.45680,0.19830
3070.52807,0.19729
3068.59935,0.19617
3066.67063,0.19503
3064.74190,0.19399
3062.81318,0.19299
3060.88446,0.19192
3058.95573,0.19085
3057.02701,0.18978
3055.09829,0.18866
3053.16956,0.18759
3051.24084,0.18649
3049.31211,0.18528
3047.38339,0.18404
3045.45467,0.18295
3043.52594,0.18206
3041.59722,0.18121
3039.66850,0.18030
3037.73977,0.17936
3035.81105,0.17838
3033.88233,0.17735
3031.95360,0.17632
3030.02488,0.17532
3028.09615,0.17436
3026.16743,0.17345
3024.23871,0.17250
3022.30998,0.17152
3020.38126,0.17062
3018.45254,0.16984
3016.52381,0.16901
3014.59509,0.16813
3012.66636,0.16732
3010.73764,0.16657
3008.80892,0.16578
3006.88019,0.16500
3004.95147,0.16428
3003.02275,0.16361
3001.09402,0.16302
2999.16530,0.16248
2997.23658,0.16184
2995.30785,0.16117
2993.37913,0.16062
2991.45040,0.16012
2989.52168,0.15974
2987.59296,0.15950
2985.66423,0.15931
2983.73551,0.15923
2981.80679,0.15926
2979.87806,0.15931
2977.94934,0.15936
2976.02062,0.15941
2974.09189,0.15953
2972.16317,0.15979
2970.23444,0.16017
2968.30572,0.16062
2966.37700,0.16106
2964.44827,0.16139
2962.51955,0.16159
2960.59083,0.16166
2958.66210,0.16151
2956.73338,0.16113
2954.80466,0.16059
2952.87593,0.16004
2950.94721,0.15960
2949.01848,0.15939
2947.08976,0.15952
2945.16104,0.15988
2943.23231,0.16040
2941.30359,0.16118
2939.37487,0.16227
2937.44614,0.16348
2935.51742,0.16461
2933.58869,0.16567
2931.65997,0.16664
2929.73125,0.16734
2927.80252,0.16760
2925.87380,0.16722
2923.94508,0.16608
2922.01635,0.16423
2920.08763,0.16187
2918.15891,0.15909
2916.23018,0.15606
2914.30146,0.15314
2912.37273,0.15047
2910.44401,0.14797
2908.51529,0.14566
2906.58656,0.14359
2904.65784,0.14170
2902.72912,0.13985
2900.80039,0.13806
2898.87167,0.13649
2896.94295,0.13513
2895.01422,0.13382
2893.08550,0.13245
2891.15677,0.13100
2889.22805,0.12962
2887.29933,0.12840
2885.37060,0.12730
2883.44188,0.12630
2881.51316,0.12539
2879.58443,0.12462
2877.65571,0.12399
2875.72698,0.12341
2873.79826,0.12278
2871.86954,0.12206
2869.94081,0.12136
2868.01209,0.12079
2866.08337,0.12036
2864.15464,0.12011
2862.22592,0.12010
2860.29720,0.12044
2858.36847,0.12109
2856.43975,0.12168
2854.51102,0.12172
2852.58230,0.12081
2850.65358,0.11870
2848.72485,0.11559
2846.79613,0.11207
2844.86741,0.10870
2842.93868,0.10571
2841.00996,0.10315
2839.08124,0.10093
2837.15251,0.09898
2835.22379,0.09728
2833.29506,0.09573
2831.36634,0.09424
2829.43762,0.09286
2827.50889,0.09160
2825.58017,0.09045
2823.65145,0.08940
2821.72272,0.08841
2819.79400,0.08736
2817.86527,0.08636
2815.93655,0.08551
2814.00783,0.08477
2812.07910,0.08400
2810.15038,0.08310
2808.22166,0.08212
2806.29293,0.08122
2804.36421,0.08043
2802.43549,0.07968
2800.50676,0.07896
2798.57804,0.07830
2796.64931,0.07761
2794.72059,0.07681
2792.79187,0.07600
2790.86314,0.07522
2788.93442,0.07442
2787.00570,0.07362
2785.07697,0.07288
2783.14825,0.07219
2781.21953,0.07153
2779.29080,0.07085
2777.36208,0.07010
2775.43335,0.06940
2773.50463,0.06881
2771.57591,0.06821
2769.64718,0.06752
2767.71846,0.06682
2765.78974,0.06621
2763.86101,0.06560
2761.93229,0.06497
2760.00356,0.06438
2758.07484,0.06375
2756.14612,0.06301
2754.21739,0.06235
2752.28867,0.06183
2750.35995,0.06125
2748.43122,0.06058
2746.50250,0.05994
2744.57378,0.05934
2742.64505,0.05876
2740.71633,0.05825
2738.78760,0.05774
2736.85888,0.05717
2734.93016,0.05659
2733.00143,0.05604
2731.07271,0.05547
2729.14399,0.05495
2727.21526,0.05448
2725.28654,0.05393
2723.35782,0.05331
2721.42909,0.05273
2719.50037,0.05219
2717.57164,0.05161
2715.64292,0.05102
2713.71420,0.05047
2711.78547,0.04997
2709.85675,0.04941
2707.92803,0.04882
2705.99930,0.04827
2704.07058,0.04777
2702.14185,0.04734
2700.21313,0.04690
2698.28441,0.04638
2696.35568,0.04585
2694.42696,0.04540
2692.49824,0.04501
2690.56951,0.04456
2688.64079,0.04405
2686.71207,0.04351
2684.78334,0.04300
2682.85462,0.04257
2680.92589,0.04219
2678.99717,0.04177
2677.06845,0.04128
2675.13972,0.04080
2673.21100,0.04036
2671.28228,0.03994
2669.35355,0.03949
2667.42483,0.03903
2665.49611,0.03856
2663.56738,0.03806
2661.63866,0.03755
2659.70993,0.03712
2657.78121,0.03678
2655.85249,0.03642
2653.92376,0.03597
2651.99504,0.03550
2650.06632,0.03503
2648.13759,0.03458
2646.20887,0.03416
2644.28014,0.03380
2642.35142,0.03346
2640.42270,0.03307
2638.49397,0.03261
2636.56525,0.03216
2634.63653,0.03178
2632.70780,0.03142
2630.77908,0.03106
2628.85036,0.03068
2626.92163,0.03030
2624.99291,0.02997
2623.06418,0.02967
2621.13546,0.02933
2619.20674,0.02892
2617.27801,0.02850
2615.34929,0.02815
2613.42057,0.02785
2611.49184,0.02754
2609.56312,0.02725
2607.63440,0.02694
2605.70567,0.02656
2603.77695,0.02621
2601.84822,0.02592
2599.91950,0.02561
2597.99078,0.02529
2596.06205,0.02502
2594.13333,0.02473
2592.20461,0.02447
2590.27588,0.02423
2588.34716,0.02395
2586.41843,0.02357
2584.48971,0.02316
2582.56099,0.02279
2580.63226,0.02252
2578.70354,0.02232
2576.77482,0.02212
2574.84609,0.02188
2572.91737,0.02157
2570.98865,0.02123
2569.05992,0.02093
2567.13120,0.02072
2565.20247,0.02058
2563.27375,0.02040
2561.34503,0.02017
2559.41630,0.01992
2557.48758,0.01967
2555.55886,0.01941
2553.63013,0.01917
2551.70141,0.01902
2549.77269,0.01887
2547.84396,0.01859
2545.91524,0.01829
2543.98651,0.01809
2542.05779,0.01797
2540.12907,0.01784
2538.20034,0.01766
2536.27162,0.01742
2534.34290,0.01717
2532.41417,0.01690
2530.48545,0.01665
2528.55673,0.01646
2526.62800,0.01632
2524.69928,0.01613
2522.77055,0.01586
2520.84183,0.01560
2518.91311,0.01540
2516.98438,0.01523
2515.05566,0.01509
2513.12694,0.01497
2511.19821,0.01481
2509.26949,0.01455
2507.34076,0.01429
2505.41204,0.01410
2503.48332,0.01391
2501.55459,0.01372
2499.62587,0.01358
2497.69715,0.01338
2495.76842,0.01311
2493.83970,0.01289
2491.91098,0.01273
2489.98225,0.01252
2488.05353,0.01230
2486.12480,0.01214
2484.19608,0.01200
2482.26736,0.01178
2480.33863,0.01157
2478.40991,0.01140
2476.48119,0.01122
2474.55246,0.01105
2472.62374,0.01093
2470.69502,0.01076
2468.76629,0.01053
2466.83757,0.01032
2464.90884,0.01012
2462.98012,0.00993
2461.05140,0.00981
2459.12267,0.00972
2457.19395,0.00954
2455.26523,0.00930
2453.33650,0.00915
2451.40778,0.00903
2449.47905,0.00885
2447.55033,0.00863
2445.62161,0.00844
2443.69288,0.00830
2441.76416,0.00815
2439.83544,0.00799
2437.90671,0.00784
2435.97799,0.00768
2434.04927,0.00753
2432.12054,0.00737
2430.19182,0.00718
2428.26309,0.00699
2426.33437,0.00686
2424.40565,0.00676
2422.47692,0.00665
2420.54820,0.00650
2418.61948,0.00629
2416.69075,0.00607
2414.76203,0.00590
2412.83331,0.00581
2410.90458,0.00574
2408.97586,0.00559
2407.04713,0.00539
2405.11841,0.00528
2403.18969,0.00524
2401.26096,0.00516
2399.33224,0.00505
2397.40352,0.00490
2395.47479,0.00472
2393.54607,0.00455
2391.61734,0.00443
2389.68862,0.00432
2387.75990,0.00419
2385.83117,0.00403
2383.90245,0.00388
2381.97373,0.00382
2380.04500,0.00385
2378.11628,0.00393
2376.18756,0.00398
2374.25883,0.00395
2372.33011,0.00391
2370.40138,0.00391
2368.47266,0.00391
2366.54394,0.00392
2364.61521,0.00401
2362.68649,0.00413
2360.75777,0.00413
2358.82904,0.00397
2356.90032,0.00380
2354.97160,0.00371
2353.04287,0.00360
2351.11415,0.00337
2349.18542,0.00304
2347.25670,0.00279
2345.32798,0.00281
2343.39925,0.00298
2341.47053,0.00307
2339.54181,0.00304
2337.61308,0.00298
2335.68436,0.00281
2333.75563,0.00258
2331.82691,0.00242
2329.89819,0.00240
2327.96946,0.00242
2326.04074,0.00241
2324.11202,0.00234
2322.18329,0.00219
2320.25457,0.00200
2318.32585,0.00185
2316.39712,0.00177
2314.46840,0.00173
2312.53967,0.00170
2310.61095,0.00163
2308.68223,0.00154
2306.75350,0.00146
2304.82478,0.00137
2302.89606,0.00126
2300.96733,0.00118
2299.03861,0.00112
2297.10989,0.00107
2295.18116,0.00100
2293.25244,0.00093
2291.32371,0.00087
2289.39499,0.00082
2287.46627,0.00079
2285.53754,0.00078
2283.60882,0.00077
2281.68010,0.00073
2279.75137,0.00066
2277.82265,0.00059
2275.89392,0.00057
2273.96520,0.00058
2272.03648,0.00056
2270.10775,0.00050
2268.17903,0.00044
2266.25031,0.00041
2264.32158,0.00040
2262.39286,0.00045
2260.46414,0.00053
2258.53541,0.00054
2256.60669,0.00043
2254.67796,0.00030
2252.74924,0.00023
2250.82052,0.00019
2248.89179,0.00015
2246.96307,0.00018
2245.03435,0.00020
2243.10562,0.00018
2241.17690,0.00016
2239.24818,0.00017
2237.31945,0.00012
2235.39073,0.00005
2233.46200,0.00000
2231.53328,-0.00001
2229.60456,0.00002
2227.67583,0.00003
2225.74711,-0.00001
2223.81839,0.00001
2221.88966,0.00008
2219.96094,0.00009
2218.03221,0.00003
2216.10349,-0.00003
2214.17477,-0.00004
2212.24604,-0.00001
2210.31732,0.00003
2208.38860,0.00002
2206.45987,0.00000
2204.53115,-0.00003
2202.60243,-0.00006
2200.67370,-0.00004
2198.74498,0.00000
2196.81625,0.00001
2194.88753,-0.00002
2192.95881,-0.00003
2191.03008,-0.00003
2189.10136,-0.00008
2187.17264,-0.00011
2185.24391,-0.00010
2183.31519,-0.00013
2181.38647,-0.00014
2179.45774,-0.00010
2177.52902,-0.00009
2175.60029,-0.00011
2173.67157,-0.00009
2171.74285,-0.00009
2169.81412,-0.00012
2167.88540,-0.00010
2165.95668,-0.00009
2164.02795,-0.00009
2162.09923,-0.00000
2160.17050,0.00013
2158.24178,0.00021
2156.31306,0.00022
2154.38433,0.00023
2152.45561,0.00023
2150.52689,0.00019
2148.59816,0.00015
2146.66944,0.00018
2144.74072,0.00021
2142.81199,0.00019
2140.88327,0.00017
2138.95454,0.00015
2137.02582,0.00009
2135.09710,0.00005
2133.16837,0.00004
2131.23965,0.00004
2129.31093,0.00001
2127.38220,0.00002
2125.45348,0.00008
2123.52476,0.00014
2121.59603,0.00017
2119.66731,0.00014
2117.73858,0.00007
2115.80986,0.00003
2113.88114,0.00003
2111.95241,0.00008
2110.02369,0.00014
2108.09497,0.00015
2106.16624,0.00010
2104.23752,0.00007
2102.30880,0.00003
2100.38007,-0.00004
2098.45135,-0.00008
2096.52262,-0.00005
2094.59390,0.00000
2092.66518,-0.00005
2090.73645,-0.00012
2088.80773,-0.00013
2086.87901,-0.00012
2084.95028,-0.00016
2083.02156,-0.00025
2081.09283,-0.00031
2079.16411,-0.00033
2077.23539,-0.00033
2075.30666,-0.00029
2073.37794,-0.00024
2071.44922,-0.00024
2069.52049,-0.00030
2067.59177,-0.00031
2065.66305,-0.00024
2063.73432,-0.00016
2061.80560,-0.00014
2059.87687,-0.00013
2057.94815,-0.00010
2056.01943,-0.00005
2054.09070,0.00003
2052.16198,0.00012
2050.23326,0.00020
2048.30453,0.00029
2046.37581,0.00044
2044.44709,0.00064
2042.51836,0.00085
2040.58964,0.00102
2038.66091,0.00113
2036.73219,0.00127
2034.80347,0.00147
2032.87474,0.00168
2030.94602,0.00188
2029.01730,0.00209
2027.08857,0.00229
2025.15985,0.00250
2023.23112,0.00267
2021.30240,0.00279
2019.37368,0.00292
2017.44495,0.00308
2015.51623,0.00320
2013.58751,0.00329
2011.65878,0.00339
2009.73006,0.00349
2007.80134,0.00355
2005.87261,0.00361
2003.94389,0.00367
2002.01516,0.00371
2000.08644,0.00375
1998.15772,0.00377
1996.22899,0.00373
1994.30027,0.00371
1992.37155,0.00371
1990.44282,0.00369
1988.51410,0.00364
1986.58538,0.00361
1984.65665,0.00358
1982.72793,0.00350
1980.79920,0.00338
1978.87048,0.00328
1976.94176,0.00319
1975.01303,0.00307
1973.08431,0.00293
1971.15559,0.00282
1969.22686,0.00272
1967.29814,0.00260
1965.36941,0.00244
1963.44069,0.00219
1961.51197,0.00192
1959.58324,0.00170
1957.65452,0.00155
1955.72580,0.00147
1953.79707,0.00136
1951.86835,0.00117
1949.93963,0.00095
1948.01090,0.00080
1946.08218,0.00069
1944.15345,0.00060
1942.22473,0.00053
1940.29601,0.00044
1938.36728,0.00034
1936.43856,0.00021
1934.50984,0.00006
1932.58111,-0.00004
1930.65239,-0.00004
1928.72367,-0.00001
1926.79494,0.00000
1924.86622,0.00005
1922.93749,0.00019
1921.00877,0.00033
1919.08005,0.00049
1917.15132,0.00075
1915.22260,0.00102
1913.29388,0.00129
1911.36515,0.00167
1909.43643,0.00216
1907.50770,0.00262
1905.57898,0.00301
1903.65026,0.00342
1901.72153,0.00388
1899.79281,0.00435
1897.86409,0.00482
1895.93536,0.00530
1894.00664,0.00579
1892.07792,0.00622
1890.14919,0.00666
1888.22047,0.00712
1886.29174,0.00750
1884.36302,0.00777
1882.43430,0.00794
1880.50557,0.00807
1878.57685,0.00818
1876.64813,0.00825
1874.71940,0.00825
1872.79068,0.00821
1870.86196,0.00820
1868.93323,0.00826
1867.00451,0.00822
1865.07578,0.00789
1863.14706,0.00734
1861.21834,0.00675
1859.28961,0.00620
1857.36089,0.00567
1855.43217,0.00513
1853.50344,0.00460
1851.57472,0.00410
1849.64599,0.00363
1847.71727,0.00317
1845.78855,0.00275
1843.85982,0.00240
1841.93110,0.00202
1840.00238,0.00155
1838.07365,0.00114
1836.14493,0.00088
1834.21621,0.00066
1832.28748,0.00047
1830.35876,0.00038
1828.43003,0.00031
1826.50131,0.00018
1824.57259,0.00007
1822.64386,-0.00001
1820.71514,-0.00007
1818.78642,-0.00010
1816.85769,-0.00007
1814.92897,0.00000
1813.00025,-0.00008
1811.07152,-0.00003
1809.14280,0.00009
1807.21407,0.00014
1805.28535,0.00009
1803.35663,0.00009
1801.42790,0.00031
1799.49918,0.00069
1797.57046,0.00098
1795.64173,0.00115
1793.71301,0.00150
1791.78428,0.00217
1789.85556,0.00276
1787.92684,0.00313
1785.99811,0.00358
1784.06939,0.00426
1782.14067,0.00505
1780.21194,0.00581
1778.28322,0.00644
1776.35450,0.00694
1774.42577,0.00759
1772.49705,0.00863
1770.56832,0.00969
1768.63960,0.01042
1766.71088,0.01095
1764.78215,0.01150
1762.85343,0.01229
1760.92471,0.01332
1758.99598,0.01433
1757.06726,0.01530
1755.13854,0.01615
1753.20981,0.01693
1751.28109,0.01814
1749.35236,0.01985
1747.42364,0.02149
1745.49492,0.02284
1743.56619,0.02413
1741.63747,0.02561
1739.70875,0.02726
1737.78002,0.02877
1735.85130,0.03043
1733.92257,0.03295
1731.99385,0.03568
1730.06513,0.03767
1728.13640,0.03922
1726.20768,0.04078
1724.27896,0.04247
1722.35023,0.04410
1720.42151,0.04568
1718.49279,0.04784
1716.56406,0.05073
1714.63534,0.05331
1712.70661,0.05517
1710.77789,0.05683
1708.84917,0.05867
1706.92044,0.06084
1704.99172,0.06321
1703.06300,0.06555
1701.13427,0.06853
1699.20555,0.07245
1697.27683,0.07647
1695.34810,0.08024
1693.41938,0.08335
1691.49065,0.08598
1689.56193,0.08883
1687.63321,0.09187
1685.70448,0.09565
1683.77576,0.10074
1681.84704,0.10512
1679.91831,0.10786
1677.98959,0.11030
1676.06087,0.11351
1674.13214,0.11715
1672.20342,0.12042
1670.27469,0.12376
1668.34597,0.12720
1666.41725,0.12981
1664.48852,0.13203
1662.55980,0.13467
1660.63108,0.13717
1658.70235,0.13877
1656.77363,0.13985
1654.84490,0.14157
1652.91618,0.14427
1650.98746,0.14605
1649.05873,0.14665
1647.13001,0.14766
1645.20129,0.14901
1643.27256,0.14962
1641.34384,0.14964
1639.41512,0.14965
1637.48639,0.14999
1635.55767,0.15053
1633.62894,0.15042
1631.70022,0.14948
1629.77150,0.14821
1627.84277,0.14687
1625.91405,0.14541
1623.98533,0.14366
1622.05660,0.14154
1620.12788,0.13922
1618.19916,0.13667
1616.27043,0.13372
1614.34171,0.13067
1612.41298,0.12769
1610.48426,0.12463
1608.55554,0.12150
1606.62681,0.11847
1604.69809,0.11562
1602.76937,0.11284
1600.84064,0.11009
1598.91192,0.10749
1596.98319,0.10505
1595.05447,0.10266
1593.12575,0.10025
1591.19702,0.09790
1589.26830,0.09559
1587.33958,0.09334
1585.41085,0.09119
1583.48213,0.08914
1581.55341,0.08717
1579.62468,0.08534
1577.69596,0.08365
1575.76723,0.08207
1573.83851,0.08063
1571.90979,0.07935
1569.98106,0.07820
1568.05234,0.07713
1566.12362,0.07603
1564.19489,0.07489
1562.26617,0.07382
1560.33745,0.07304
1558.40872,0.07248
1556.48000,0.07167
1554.55127,0.07052
1552.62255,0.06929
1550.69383,0.06808
1548.76510,0.06683
1546.83638,0.06553
1544.90766,0.06415
1542.97893,0.06279
1541.05021,0.06144
1539.12148,0.05981
1537.19276,0.05798
1535.26404,0.05623
1533.33531,0.05449
1531.40659,0.05261
1529.47787,0.05062
1527.54914,0.04854
1525.62042,0.04645
1523.69170,0.04443
1521.76297,0.04246
1519.83425,0.04052
1517.90552,0.03857
1515.97680,0.03645
1514.04808,0.03421
1512.11935,0.03201
1510.19063,0.02990
1508.26191,0.02763
1506.33318,0.02487
1504.40446,0.02211
1502.47574,0.01970
1500.54701,0.01749
1498.61829,0.01537
1496.68956,0.01336
1494.76084,0.01159
1492.83212,0.01020
1490.90339,0.00922
1488.97467,0.00859
1487.04595,0.00812
1485.11722,0.00778
1483.18850,0.00774
1481.25977,0.00806
1479.33105,0.00864
1477.40233,0.00949
1475.47360,0.01104
1473.54488,0.01383
1471.61616,0.01737
1469.68743,0.02009
1467.75871,0.02186
1465.82999,0.02354
1463.90126,0.02512
1461.97254,0.02601
1460.04381,0.02650
1458.11509,0.02739
1456.18637,0.02858
1454.25764,0.02906
1452.32892,0.02886
1450.40020,0.02863
1448.47147,0.02866
1446.54275,0.02885
1444.61403,0.02902
1442.68530,0.02914
1440.75658,0.02921
1438.82785,0.02937
1436.89913,0.02981
1434.97041,0.03033
1433.04168,0.03063
1431.11296,0.03093
1429.18424,0.03138
1427.25551,0.03182
1425.32679,0.03217
1423.39806,0.03246
1421.46934,0.03281
1419.54062,0.03349
1417.61189,0.03441
1415.68317,0.03506
1413.75445,0.03547
1411.82572,0.03593
1409.89700,0.03644
1407.96828,0.03695
1406.03955,0.03746
1404.11083,0.03786
1402.18210,0.03782
1400.25338,0.03721
1398.32466,0.03606
1396.39593,0.03450
1394.46721,0.03270
1392.53849,0.03090
1390.60976,0.02922
1388.68104,0.02761
1386.75232,0.02607
1384.82359,0.02485
1382.89487,0.02411
1380.96614,0.02367
1379.03742,0.02317
1377.10870,0.02238
1375.17997,0.02126
1373.25125,0.01991
1371.32253,0.01854
1369.39380,0.01726
1367.46508,0.01603
1365.53635,0.01480
1363.60763,0.01358
1361.67891,0.01247
1359.75018,0.01151
1357.82146,0.01061
1355.89274,0.00971
1353.96401,0.00885
1352.03529,0.00811
1350.10657,0.00750
1348.17784,0.00697
1346.24912,0.00648
1344.32039,0.00595
1342.39167,0.00545
1340.46295,0.00510
1338.53422,0.00488
1336.60550,0.00465
1334.67678,0.00440
1332.74805,0.00421
1330.81933,0.00408
1328.89061,0.00395
1326.96188,0.00384
1325.03316,0.00379
1323.10443,0.00379
1321.17571,0.00378
1319.24699,0.00386
1317.31826,0.00410
1315.38954,0.00444
1313.46082,0.00480
1311.53209,0.00508
1309.60337,0.00530
1307.67464,0.00567
1305.74592,0.00628
1303.81720,0.00700
1301.88847,0.00778
1299.95975,0.00869
1298.03103,0.00984
1296.10230,0.01120
1294.17358,0.01265
1292.24486,0.01413
1290.31613,0.01569
1288.38741,0.01747
1286.45868,0.01958
1284.52996,0.02207
1282.60124,0.02489
1280.67251,0.02796
1278.74379,0.03128
1276.81507,0.03488
1274.88634,0.03884
1272.95762,0.04321
1271.02890,0.04811
1269.10017,0.05363
1267.17145,0.05984
1265.24272,0.06683
1263.31400,0.07466
1261.38528,0.08344
1259.45655,0.09325
1257.52783,0.10399
1255.59911,0.11541
1253.67038,0.12724
1251.74166,0.13916
1249.81294,0.15087
1247.88421,0.16219
1245.95549,0.17280
1244.02676,0.18249
1242.09804,0.19135
1240.16932,0.19963
1238.24059,0.20721
1236.31187,0.21380
1234.38315,0.21967
1232.45442,0.22524
1230.52570,0.23033
1228.59697,0.23462
1226.66825,0.23845
1224.73953,0.24221
1222.81080,0.24579
1220.88208,0.24911
1218.95336,0.25239
1217.02463,0.25567
1215.09591,0.25877
1213.16719,0.26156
1211.23846,0.26407
1209.30974,0.26652
1207.38101,0.26908
1205.45229,0.27168
1203.52357,0.27417
1201.59484,0.27660
1199.66612,0.27902
1197.73740,0.28127
1195.80867,0.28349
1193.87995,0.28590
1191.95123,0.28826
1190.02250,0.29026
1188.09378,0.29222
1186.16505,0.29442
1184.23633,0.29683
1182.30761,0.29929
1180.37888,0.30161
1178.45016,0.30373
1176.52144,0.30587
1174.59271,0.30830
1172.66399,0.31077
1170.73526,0.31300
1168.80654,0.31519
1166.87782,0.31729
1164.94909,0.31913
1163.02037,0.32109
1161.09165,0.32329
1159.16292,0.32523
1157.23420,0.32694
1155.30548,0.32896
1153.37675,0.33142
1151.44803,0.33394
1149.51930,0.33622
1147.59058,0.33814
1145.66186,0.34002
1143.73313,0.34229
1141.80441,0.34467
1139.87569,0.34681
1137.94696,0.34892
1136.01824,0.35132
1134.08952,0.35428
1132.16079,0.35759
1130.23207,0.36084
1128.30334,0.36400
1126.37462,0.36732
1124.44590,0.37102
1122.51717,0.37521
1120.58845,0.37992
1118.65973,0.38518
1116.73100,0.39111
1114.80228,0.39736
1112.87355,0.40370
1110.94483,0.41040
1109.01611,0.41731
1107.08738,0.42376
1105.15866,0.42968
1103.22994,0.43551
1101.30121,0.44074
1099.37249,0.44440
1097.44377,0.44641
1095.51504,0.44757
1093.58632,0.44886
1091.65759,0.45030
1089.72887,0.45100
1087.80015,0.45079
1085.87142,0.45023
1083.94270,0.44924
1082.01398,0.44738
1080.08525,0.44451
1078.15653,0.44073
1076.22781,0.43650
1074.29908,0.43235
1072.37036,0.42847
1070.44163,0.42455
1068.51291,0.42038
1066.58419,0.41593
1064.65546,0.41107
1062.72674,0.40588
1060.79802,0.40054
1058.86929,0.39521
1056.94057,0.38960
1055.01184,0.38328
1053.08312,0.37665
1051.15440,0.37030
1049.22567,0.36403
1047.29695,0.35724
1045.36823,0.35004
1043.43950,0.34300
1041.51078,0.33633
1039.58206,0.32985
1037.65333,0.32331
1035.72461,0.31674
1033.79588,0.31001
1031.86716,0.30306
1029.93844,0.29628
1028.00971,0.28988
1026.08099,0.28358
1024.15227,0.27733
1022.22354,0.27134
1020.29482,0.26557
1018.36610,0.26030
1016.43737,0.25565
1014.50865,0.25097
1012.57992,0.24588
1010.65120,0.24070
1008.72248,0.23567
1006.79375,0.23077
1004.86503,0.22605
1002.93631,0.22156
1001.00758,0.21745
999.07886,0.21361
997.15013,0.20953
995.22141,0.20512
993.29269,0.20089
991.36396,0.19700
989.43524,0.19321
987.50652,0.18942
985.57779,0.18589
983.64907,0.18287
981.72035,0.18032
979.79162,0.17798
977.86290,0.17575
975.93417,0.17384
974.00545,0.17231
972.07673,0.17100
970.14800,0.16981
968.21928,0.16872
966.29056,0.16776
964.36183,0.16689
962.43311,0.16600
960.50439,0.16502
958.57566,0.16379
956.64694,0.16231
954.71821,0.16097
952.78949,0.15997
950.86077,0.15899
948.93204,0.15751
947.00332,0.15563
945.07460,0.15369
943.14587,0.15151
941.21715,0.14900
939.28842,0.14648
937.35970,0.14393
935.43098,0.14106
933.50225,0.13789
931.57353,0.13487
929.64481,0.13217
927.71608,0.12949
925.78736,0.12654
923.85864,0.12323
921.92991,0.11962
920.00119,0.11589
918.07246,0.11204
916.14374,0.10817
914.21502,0.10443
912.28629,0.10068
910.35757,0.09659
908.42885,0.09234
906.50012,0.08838
904.57140,0.08470
902.64268,0.08080
900.71395,0.07646
898.78523,0.07216
896.85650,0.06828
894.92778,0.06462
892.99906,0.06095
891.07033,0.05735
889.14161,0.05413
887.21289,0.05137
885.28416,0.04872
883.35544,0.04582
881.42671,0.04281
879.49799,0.04015
877.56927,0.03776
875.64054,0.03527
873.71182,0.03283
871.78310,0.03080
869.85437,0.02902
867.92565,0.02701
865.99693,0.02477
864.06820,0.02275
862.13948,0.02110
860.21075,0.01948
858.28203,0.01774
856.35331,0.01618
854.42458,0.01495
852.49586,0.01388
850.56714,0.01317
848.63841,0.01307
846.70969,0.01350
844.78097,0.01444
842.85224,0.01595
840.92352,0.01764
838.99479,0.01934
837.06607,0.02148
835.13735,0.02399
833.20862,0.02667
831.27990,0.02979
829.35118,0.03314
827.42245,0.03642
825.49373,0.03977
823.56501,0.04305
821.63628,0.04593
819.70756,0.04846
817.77883,0.05113
815.85011,0.05421
813.92139,0.05731
811.99266,0.06029
810.06394,0.06320
808.13522,0.06588
806.20649,0.06857
804.27777,0.07127
802.34904,0.07328
800.42032,0.07427
798.49160,0.07453
796.56287,0.07435
794.63415,0.07368
792.70543,0.07235
790.77670,0.07047
788.84798,0.06823
786.91926,0.06573
784.99053,0.06315
783.06181,0.06058
781.13308,0.05781
779.20436,0.05440
777.27564,0.05040
775.34691,0.04645
773.41819,0.04291
771.48947,0.03986
769.56074,0.03759
767.63202,0.03587
765.70330,0.03443
763.77457,0.03352
761.84585,0.03308
759.91712,0.03280
757.98840,0.03256
756.05968,0.03222
754.13095,0.03180
752.20223,0.03158
750.27351,0.03156
748.34478,0.03160
746.41606,0.03152
744.48733,0.03111
742.55861,0.03042
740.62989,0.02987
738.70116,0.02975
736.77244,0.02977
734.84372,0.02978
732.91499,0.02991
730.98627,0.03012
729.05755,0.03040
727.12882,0.03081
725.20010,0.03104
723.27137,0.03089
721.34265,0.03064
719.41393,0.03049
717.48520,0.03070
715.55648,0.03135
713.62776,0.03201
711.69903,0.03236
709.77031,0.03283
707.84159,0.03393
705.91286,0.03545
703.98414,0.03662
702.05541,0.03731
700.12669,0.03811
698.19797,0.03922
696.26924,0.04025
694.34052,0.04073
692.41180,0.04076
690.48307,0.04093
688.55435,0.04139
686.62562,0.04179
684.69690,0.04225
682.76818,0.04295
680.83945,0.04331
678.91073,0.04302
676.98201,0.04276
675.05328,0.04301
673.12456,0.04340
671.19584,0.04375
669.26711,0.04432
667.33839,0.04499
665.40966,0.04530
663.48094,0.04541
661.55222,0.04563
659.62349,0.04624
657.69477,0.04733
655.76605,0.04848
653.83732,0.04941
651.90860,0.05028
649.97988,0.05136
648.05115,0.05281
646.12243,0.05456
644.19370,0.05614
642.26498,0.05726
640.33626,0.05812
638.40753,0.05886
636.47881,0.05963
634.55009,0.06085
632.62136,0.06275
630.69264,0.06496
628.76391,0.06688
626.83519,0.06820
624.90647,0.06890
622.97774,0.06915
621.04902,0.06957
619.12030,0.07029
617.19157,0.07093
615.26285,0.07178
613.33413,0.07319
611.40540,0.07476
609.47668,0.07609
607.54795,0.07733
605.61923,0.07867
603.69051,0.07969
601.76178,0.08046
599.83306,0.08203
597.90434,0.08464
595.97561,0.08694
594.04689,0.08792
592.11817,0.08865
590.18944,0.09056
588.26072,0.09282
586.33199,0.09412
584.40327,0.09494
582.47455,0.09581
580.54582,0.09627
578.61710,0.09660
576.68838,0.09731
574.75965,0.09791
572.83093,0.09787
570.90220,0.09797
568.97348,0.09900
567.04476,0.09995
565.11603,0.09984
563.18731,0.09931
561.25859,0.09911
559.32986,0.09930
557.40114,0.09984
555.47242,0.10069
553.54369,0.10173
551.61497,0.10299
549.68624,0.10456
547.75752,0.10614
545.82880,0.10693
543.90007,0.10666
541.97135,0.10633
540.04263,0.10681
538.11390,0.10747
536.18518,0.10750
534.25646,0.10669
532.32773,0.10474
530.39901,0.10266
528.47028,0.10233
526.54156,0.10293
524.61284,0.10271
522.68411,0.10285
520.75539,0.10502
518.82667,0.10755
516.89794,0.10722
514.96922,0.10484
513.04049,0.10450
511.11177,0.10728
509.18305,0.11154
507.25432,0.11677
505.32560,0.12269
503.39688,0.12879
501.46815,0.13487
499.53943,0.14032
497.61071,0.14555
495.68198,0.15157
493.75326,0.15839
491.82453,0.16566
489.89581,0.17312
487.96709,0.18080
486.03836,0.18894
484.10964,0.19752
482.18092,0.20607
480.25219,0.21427
478.32347,0.22178
476.39475,0.22686
474.46602,0.22899
472.53730,0.23156
470.60857,0.23694
468.67985,0.24285
466.75113,0.24717
464.82240,0.24932
462.89368,0.24782
460.96496,0.24217
459.03623,0.23421
457.10751,0.22686
455.17878,0.22207
453.25006,0.21848
451.32134,0.21331
449.39261,0.20547
447.46389,0.19676
445.53517,0.19064
443.60644,0.18761
441.67772,0.18372
439.74900,0.17570
437.82027,0.16491
435.89155,0.15520
433.96282,0.14976
432.03410,0.14909
430.10538,0.14863
428.17665,0.14109
426.24793,0.12651
424.31921,0.11375
422.39048,0.10774
420.46176,0.10431
418.53304,0.10036
416.60431,0.09791
414.67559,0.09685
412.74686,0.09423
410.81814,0.08787
408.88942,0.08039
406.96069,0.07649
405.03197,0.07439
403.10325,0.07041
401.17452,0.06866
399.24580,0.07298
397.31708,0.07418
395.38835,0.06251
393.45963,0.04610
391.53090,0.03687
389.60218,0.04069
387.67346,0.05362
385.74473,0.05427
383.81601,0.03050
381.88729,0.00730
379.95856,0.00205
378.02984,0.00185
376.10111,0.00000
374.17239,0.00063
372.24367,0.00995
370.31494,0.01328
368.38622,0.00000
