3996.31543,0.00013
3994.38671,0.00003
3992.45799,0.00000
3990.52926,0.00017
3988.60054,0.00042
3986.67182,0.00055
3984.74309,0.00060
3982.81437,0.00068
3980.88564,0.00071
3978.95692,0.00063
3977.02820,0.00050
3975.09947,0.00039
3973.17075,0.00029
3971.24203,0.00023
3969.31330,0.00026
3967.38458,0.00028
3965.45586,0.00028
3963.52713,0.00042
3961.59841,0.00068
3959.66968,0.00082
3957.74096,0.00075
3955.81224,0.00062
3953.88351,0.00045
3951.95479,0.00027
3950.02607,0.00020
3948.09734,0.00033
3946.16862,0.00057
3944.23990,0.00074
3942.31117,0.00075
3940.38245,0.00064
3938.45372,0.00057
3936.52500,0.00062
3934.59628,0.00071
3932.66755,0.00068
3930.73883,0.00048
3928.81011,0.00021
3926.88138,0.00009
3924.95266,0.00025
3923.02393,0.00056
3921.09521,0.00075
3919.16649,0.00076
3917.23776,0.00066
3915.30904,0.00055
3913.38032,0.00049
3911.45159,0.00046
3909.52287,0.00038
3907.59415,0.00027
3905.66542,0.00025
3903.73670,0.00033
3901.80797,0.00051
3899.87925,0.00081
3897.95053,0.00097
3896.02180,0.00080
3894.09308,0.00054
3892.16436,0.00049
3890.23563,0.00054
3888.30691,0.00051
3886.37819,0.00048
3884.44946,0.00051
3882.52074,0.00055
3880.59201,0.00059
3878.66329,0.00051
3876.73457,0.00028
3874.80584,0.00015
3872.87712,0.00032
3870.94840,0.00077
3869.01967,0.00121
3867.09095,0.00120
3865.16222,0.00091
3863.23350,0.00077
3861.30478,0.00071
3859.37605,0.00049
3857.44733,0.00020
3855.51861,0.00036
3853.58988,0.00120
3851.66116,0.00177
3849.73244,0.00137
3847.80371,0.00062
3845.87499,0.00010
3843.94626,0.00000
3842.01754,0.00012
3840.08882,0.00031
3838.16009,0.00059
3836.23137,0.00088
3834.30265,0.00099
3832.37392,0.00094
3830.44520,0.00083
3828.51648,0.00073
3826.58775,0.00069
3824.65903,0.00071
3822.73030,0.00085
3820.80158,0.00115
3818.87286,0.00130
3816.94413,0.00125
3815.01541,0.00124
3813.08669,0.00118
3811.15796,0.00095
3809.22924,0.00079
3807.30052,0.00099
3805.37179,0.00136
3803.44307,0.00166
3801.51434,0.00199
3799.58562,0.00224
3797.65690,0.00218
3795.72817,0.00199
3793.79945,0.00179
3791.87073,0.00169
3789.94200,0.00175
3788.01328,0.00189
3786.08455,0.00197
3784.15583,0.00208
3782.22711,0.00231
3780.29838,0.00266
3778.36966,0.00310
3776.44094,0.00350
3774.51221,0.00373
3772.58349,0.00389
3770.65477,0.00410
3768.72604,0.00433
3766.79732,0.00458
3764.86859,0.00487
3762.93987,0.00509
3761.01115,0.00535
3759.08242,0.00592
3757.15370,0.00659
3755.22498,0.00706
3753.29625,0.00754
3751.36753,0.00842
3749.43881,0.00948
3747.51008,0.01022
3745.58136,0.01100
3743.65263,0.01189
3741.72391,0.01235
3739.79519,0.01251
3737.86646,0.01309
3735.93774,0.01462
3734.00902,0.01662
3732.08029,0.01808
3730.15157,0.01881
3728.22284,0.01951
3726.29412,0.02078
3724.36540,0.02248
3722.43667,0.02421
3720.50795,0.02588
3718.57923,0.02757
3716.65050,0.02918
3714.72178,0.03081
3712.79306,0.03311
3710.86433,0.03637
3708.93561,0.03955
3707.00688,0.04183
3705.07816,0.04364
3703.14944,0.04589
3701.22071,0.04879
3699.29199,0.05164
3697.36327,0.05405
3695.43454,0.05620
3693.50582,0.05828
3691.57710,0.06087
3689.64837,0.06457
3687.71965,0.06870
3685.79092,0.07209
3683.86220,0.07484
3681.93348,0.07763
3680.00475,0.08063
3678.07603,0.08397
3676.14731,0.08823
3674.21858,0.09279
3672.28986,0.09630
3670.36113,0.09960
3668.43241,0.10327
3666.50369,0.10638
3664.57496,0.10894
3662.64624,0.11154
3660.71752,0.11417
3658.78879,0.11684
3656.86007,0.11987
3654.93135,0.12286
3653.00262,0.12514
3651.07390,0.12741
3649.14517,0.13063
3647.21645,0.13382
3645.28773,0.13592
3643.35900,0.13750
3641.43028,0.13931
3639.50156,0.14138
3637.57283,0.14348
3635.64411,0.14553
3633.71539,0.14738
3631.78666,0.14892
3629.85794,0.15071
3627.92921,0.15310
3626.00049,0.15514
3624.07177,0.15643
3622.14304,0.15759
3620.21432,0.15913
3618.28560,0.16073
3616.35687,0.16180
3614.42815,0.16263
3612.49942,0.16389
3610.57070,0.16558
3608.64198,0.16737
3606.71325,0.16886
3604.78453,0.16983
3602.85581,0.17068
3600.92708,0.17188
3598.99836,0.17333
3597.06964,0.17475
3595.14091,0.17609
3593.21219,0.17718
3591.28346,0.17795
3589.35474,0.17895
3587.42602,0.18060
3585.49729,0.18219
3583.56857,0.18304
3581.63985,0.18365
3579.71112,0.18459
3577.78240,0.18569
3575.85368,0.18674
3573.92495,0.18775
3571.99623,0.18866
3570.06750,0.18960
3568.13878,0.19098
3566.21006,0.19267
3564.28133,0.19387
3562.35261,0.19447
3560.42389,0.19498
3558.49516,0.19559
3556.56644,0.19626
3554.63771,0.19708
3552.70899,0.19807
3550.78027,0.19893
3548.85154,0.19952
3546.92282,0.20030
3544.99410,0.20150
3543.06537,0.20269
3541.13665,0.20356
3539.20793,0.20420
3537.27920,0.20475
3535.35048,0.20526
3533.42175,0.20583
3531.49303,0.20656
3529.56431,0.20741
3527.63558,0.20823
3525.70686,0.20900
3523.77814,0.20980
3521.84941,0.21061
3519.92069,0.21127
3517.99197,0.21169
3516.06324,0.21201
3514.13452,0.21237
3512.20579,0.21287
3510.27707,0.21361
3508.34835,0.21440
3506.41962,0.21501
3504.49090,0.21560
3502.56218,0.21634
3500.63345,0.21708
3498.70473,0.21771
3496.77600,0.21841
3494.84728,0.21927
3492.91856,0.22008
3490.98983,0.22064
3489.06111,0.22101
3487.13239,0.22131
3485.20366,0.22153
3483.27494,0.22183
3481.34622,0.22246
3479.41749,0.22323
3477.48877,0.22376
3475.56004,0.22406
3473.63132,0.22437
3471.70260,0.22470
3469.77387,0.22502
3467.84515,0.22547
3465.91643,0.22603
3463.98770,0.22658
3462.05898,0.22714
3460.13026,0.22767
3458.20153,0.22807
3456.27281,0.22846
3454.34408,0.22890
3452.41536,0.22913
3450.48664,0.22911
3448.55791,0.22920
3446.62919,0.22969
3444.70047,0.23029
3442.77174,0.23072
3440.84302,0.23099
3438.91429,0.23116
3436.98557,0.23140
3435.05685,0.23185
3433.12812,0.23223
3431.19940,0.23236
3429.27068,0.23249
3427.34195,0.23272
3425.41323,0.23294
3423.48451,0.23310
3421.55578,0.23333
3419.62706,0.23375
3417.69833,0.23418
3415.76961,0.23431
3413.84089,0.23430
3411.91216,0.23446
3409.98344,0.23463
3408.05472,0.23470
3406.12599,0.23482
3404.19727,0.23495
3402.26855,0.23506
3400.33982,0.23523
3398.41110,0.23537
3396.48237,0.23527
3394.55365,0.23503
3392.62493,0.23492
3390.69620,0.23496
3388.76748,0.23502
3386.83876,0.23519
3384.91003,0.23546
3382.98131,0.23565
3381.05259,0.23562
3379.12386,0.23540
3377.19514,0.23517
3375.26641,0.23507
3373.33769,0.23502
3371.40897,0.23501
3369.48024,0.23511
3367.55152,0.23511
3365.62280,0.23486
3363.69407,0.23453
3361.76535,0.23430
3359.83662,0.23416
3357.90790,0.23398
3355.97918,0.23381
3354.05045,0.23368
3352.12173,0.23352
3350.19301,0.23329
3348.26428,0.23304
3346.33556,0.23282
3344.40684,0.23266
3342.47811,0.23247
3340.54939,0.23208
3338.62066,0.23152
3336.69194,0.23110
3334.76322,0.23097
3332.83449,0.23101
3330.90577,0.23114
3328.97705,0.23128
3327.04832,0.23109
3325.11960,0.23047
3323.19088,0.22975
3321.26215,0.22944
3319.33343,0.22966
3317.40470,0.22990
3315.47598,0.22974
3313.54726,0.22938
3311.61853,0.22912
3309.68981,0.22886
3307.76109,0.22859
3305.83236,0.22841
3303.90364,0.22815
3301.97491,0.22777
3300.04619,0.22737
3298.11747,0.22707
3296.18874,0.22695
3294.26002,0.22694
3292.33130,0.22683
3290.40257,0.22661
3288.47385,0.22640
3286.54513,0.22622
3284.61640,0.22600
3282.68768,0.22576
3280.75895,0.22562
3278.83023,0.22550
3276.90151,0.22524
3274.97278,0.22488
3273.04406,0.22459
3271.11534,0.22429
3269.18661,0.22394
3267.25789,0.22357
3265.32917,0.22316
3263.40044,0.22273
3261.47172,0.22227
3259.54299,0.22184
3257.61427,0.22153
3255.68555,0.22126
3253.75682,0.22083
3251.82810,0.22036
3249.89938,0.22005
3247.97065,0.21982
3246.04193,0.21953
3244.11320,0.21916
3242.18448,0.21885
3240.25576,0.21863
3238.32703,0.21827
3236.39831,0.21775
3234.46959,0.21735
3232.54086,0.21701
3230.61214,0.21660
3228.68342,0.21624
3226.75469,0.21599
3224.82597,0.21575
3222.89724,0.21535
3220.96852,0.21479
3219.03980,0.21432
3217.11107,0.21398
3215.18235,0.21356
3213.25363,0.21301
3211.32490,0.21252
3209.39618,0.21223
3207.46746,0.21194
3205.53873,0.21141
3203.61001,0.21069
3201.68128,0.20996
3199.75256,0.20937
3197.82384,0.20890
3195.89511,0.20836
3193.96639,0.20776
3192.03767,0.20710
3190.10894,0.20642
3188.18022,0.20580
3186.25149,0.20511
3184.32277,0.20429
3182.39405,0.20353
3180.46532,0.20289
3178.53660,0.20229
3176.60788,0.20167
3174.67915,0.20098
3172.75043,0.20027
3170.82171,0.19962
3168.89298,0.19897
3166.96426,0.19830
3165.03553,0.19764
3163.10681,0.19704
3161.17809,0.19650
3159.24936,0.19586
3157.32064,0.19508
3155.39192,0.19429
3153.46319,0.19355
3151.53447,0.19279
3149.60575,0.19203
3147.67702,0.19133
3145.74830,0.19068
3143.81957,0.19010
3141.89085,0.18954
3139.96213,0.18887
3138.03340,0.18807
3136.10468,0.18729
3134.17596,0.18656
3132.24723,0.18584
3130.31851,0.18510
3128.38978,0.18435
3126.46106,0.18364
3124.53234,0.18303
3122.60361,0.18242
3120.67489,0.18172
3118.74617,0.18092
3116.81744,0.18003
3114.88872,0.17920
3112.96000,0.17854
3111.03127,0.17790
3109.10255,0.17722
3107.17382,0.17655
3105.24510,0.17581
3103.31638,0.17500
3101.38765,0.17421
3099.45893,0.17347
3097.53021,0.17260
3095.60148,0.17153
3093.67276,0.17052
3091.74404,0.16976
3089.81531,0.16906
3087.88659,0.16825
3085.95786,0.16734
3084.02914,0.16640
3082.10042,0.16547
3080.17169,0.16464
3078.24297,0.16386
3076.31425,0.16301
3074.38552,0.16207
3072.45680,0.16111
3070.52807,0.16016
3068.59935,0.15932
3066.67063,0.15859
3064.74190,0.15781
3062.81318,0.15689
3060.88446,0.15601
3058.95573,0.15524
3057.02701,0.15449
3055.09829,0.15372
3053.16956,0.15295
3051.24084,0.15216
3049.31211,0.15129
3047.38339,0.15039
3045.45467,0.14951
3043.52594,0.14864
3041.59722,0.14780
3039.66850,0.14704
3037.73977,0.14638
3035.81105,0.14575
3033.88233,0.14503
3031.95360,0.14419
3030.02488,0.14324
3028.09615,0.14231
3026.16743,0.14153
3024.23871,0.14092
3022.30998,0.14032
3020.38126,0.13966
3018.45254,0.13901
3016.52381,0.13845
3014.59509,0.13797
3012.66636,0.13752
3010.73764,0.13703
3008.80892,0.13650
3006.88019,0.13608
3004.95147,0.13572
3003.02275,0.13523
3001.09402,0.13463
2999.16530,0.13403
2997.23658,0.13344
2995.30785,0.13291
2993.37913,0.13262
2991.45040,0.13251
2989.52168,0.13246
2987.59296,0.13246
2985.66423,0.13247
2983.73551,0.13251
2981.80679,0.13266
2979.87806,0.13296
2977.94934,0.13335
2976.02062,0.13379
2974.09189,0.13430
2972.16317,0.13489
2970.23444,0.13555
2968.30572,0.13621
2966.37700,0.13684
2964.44827,0.13744
2962.51955,0.13787
2960.59083,0.13804
2958.66210,0.13799
2956.73338,0.13766
2954.80466,0.13709
2952.87593,0.13650
2950.94721,0.13608
2949.01848,0.13598
2947.08976,0.13630
2945.16104,0.13712
2943.23231,0.13834
2941.30359,0.13964
2939.37487,0.14103
2937.44614,0.14273
2935.51742,0.14461
2933.58869,0.14633
2931.65997,0.14794
2929.73125,0.14953
2927.80252,0.15090
2925.87380,0.15174
2923.94508,0.15185
2922.01635,0.15111
2920.08763,0.14939
2918.15891,0.14652
2916.23018,0.14266
2914.30146,0.13852
2912.37273,0.13475
2910.44401,0.13152
2908.51529,0.12878
2906.58656,0.12643
2904.65784,0.12434
2902.72912,0.12243
2900.80039,0.12072
2898.87167,0.11922
2896.94295,0.11777
2895.01422,0.11627
2893.08550,0.11482
2891.15677,0.11350
2889.22805,0.11226
2887.29933,0.11114
2885.37060,0.11017
2883.44188,0.10939
2881.51316,0.10884
2879.58443,0.10842
2877.65571,0.10800
2875.72698,0.10760
2873.79826,0.10722
2871.86954,0.10672
2869.94081,0.10613
2868.01209,0.10572
2866.08337,0.10576
2864.15464,0.10628
2862.22592,0.10729
2860.29720,0.10867
2858.36847,0.11016
2856.43975,0.11160
2854.51102,0.11270
2852.58230,0.11275
2850.65358,0.11104
2848.72485,0.10739
2846.79613,0.10250
2844.86741,0.09762
2842.93868,0.09349
2841.00996,0.09025
2839.08124,0.08780
2837.15251,0.08590
2835.22379,0.08426
2833.29506,0.08270
2831.36634,0.08128
2829.43762,0.08005
2827.50889,0.07897
2825.58017,0.07793
2823.65145,0.07694
2821.72272,0.07612
2819.79400,0.07543
2817.86527,0.07475
2815.93655,0.07392
2814.00783,0.07299
2812.07910,0.07214
2810.15038,0.07140
2808.22166,0.07078
2806.29293,0.07019
2804.36421,0.06955
2802.43549,0.06892
2800.50676,0.06833
2798.57804,0.06767
2796.64931,0.06701
2794.72059,0.06647
2792.79187,0.06594
2790.86314,0.06537
2788.93442,0.06475
2787.00570,0.06406
2785.07697,0.06330
2783.14825,0.06260
2781.21953,0.06205
2779.29080,0.06155
2777.36208,0.06099
2775.43335,0.06042
2773.50463,0.05991
2771.57591,0.05940
2769.64718,0.05886
2767.71846,0.05834
2765.78974,0.05776
2763.86101,0.05710
2761.93229,0.05651
2760.00356,0.05608
2758.07484,0.05571
2756.14612,0.05530
2754.21739,0.05487
2752.28867,0.05442
2750.35995,0.05388
2748.43122,0.05329
2746.50250,0.05272
2744.57378,0.05229
2742.64505,0.05194
2740.71633,0.05155
2738.78760,0.05104
2736.85888,0.05050
2734.93016,0.05008
2733.00143,0.04975
2731.07271,0.04930
2729.14399,0.04872
2727.21526,0.04814
2725.28654,0.04764
2723.35782,0.04722
2721.42909,0.04680
2719.50037,0.04629
2717.57164,0.04573
2715.64292,0.04515
2713.71420,0.04463
2711.78547,0.04421
2709.85675,0.04383
2707.92803,0.04343
2705.99930,0.04303
2704.07058,0.04261
2702.14185,0.04214
2700.21313,0.04169
2698.28441,0.04133
2696.35568,0.04097
2694.42696,0.04051
2692.49824,0.04004
2690.56951,0.03966
2688.64079,0.03934
2686.71207,0.03899
2684.78334,0.03856
2682.85462,0.03811
2680.92589,0.03770
2678.99717,0.03730
2677.06845,0.03687
2675.13972,0.03643
2673.21100,0.03601
2671.28228,0.03556
2669.35355,0.03515
2667.42483,0.03487
2665.49611,0.03458
2663.56738,0.03418
2661.63866,0.03379
2659.70993,0.03347
2657.78121,0.03312
2655.85249,0.03271
2653.92376,0.03227
2651.99504,0.03183
2650.06632,0.03144
2648.13759,0.03107
2646.20887,0.03071
2644.28014,0.03038
2642.35142,0.03009
2640.42270,0.02982
2638.49397,0.02950
2636.56525,0.02910
2634.63653,0.02863
2632.70780,0.02817
2630.77908,0.02781
2628.85036,0.02753
2626.92163,0.02731
2624.99291,0.02711
2623.06418,0.02684
2621.13546,0.02644
2619.20674,0.02604
2617.27801,0.02576
2615.34929,0.02550
2613.42057,0.02519
2611.49184,0.02486
2609.56312,0.02451
2607.63440,0.02416
2605.70567,0.02391
2603.77695,0.02373
2601.84822,0.02348
2599.91950,0.02316
2597.99078,0.02281
2596.06205,0.02240
2594.13333,0.02199
2592.20461,0.02172
2590.27588,0.02161
2588.34716,0.02146
2586.41843,0.02119
2584.48971,0.02089
2582.56099,0.02062
2580.63226,0.02033
2578.70354,0.02005
2576.77482,0.01982
2574.84609,0.01955
2572.91737,0.01922
2570.98865,0.01898
2569.05992,0.01882
2567.13120,0.01866
2565.20247,0.01847
2563.27375,0.01824
2561.34503,0.01798
2559.41630,0.01775
2557.48758,0.01757
2555.55886,0.01739
2553.63013,0.01714
2551.70141,0.01685
2549.77269,0.01657
2547.84396,0.01638
2545.91524,0.01624
2543.98651,0.01607
2542.05779,0.01587
2540.12907,0.01568
2538.20034,0.01548
2536.27162,0.01525
2534.34290,0.01505
2532.41417,0.01489
2530.48545,0.01475
2528.55673,0.01456
2526.62800,0.01432
2524.69928,0.01417
2522.77055,0.01412
2520.84183,0.01402
2518.91311,0.01380
2516.98438,0.01356
2515.05566,0.01338
2513.12694,0.01324
2511.19821,0.01306
2509.26949,0.01278
2507.34076,0.01246
2505.41204,0.01227
2503.48332,0.01220
2501.55459,0.01213
2499.62587,0.01196
2497.69715,0.01176
2495.76842,0.01154
2493.83970,0.01135
2491.91098,0.01126
2489.98225,0.01118
2488.05353,0.01103
2486.12480,0.01085
2484.19608,0.01066
2482.26736,0.01042
2480.33863,0.01020
2478.40991,0.01007
2476.48119,0.00993
2474.55246,0.00974
2472.62374,0.00954
2470.69502,0.00938
2468.76629,0.00922
2466.83757,0.00902
2464.90884,0.00879
2462.98012,0.00859
2461.05140,0.00846
2459.12267,0.00835
2457.19395,0.00822
2455.26523,0.00811
2453.33650,0.00799
2451.40778,0.00783
2449.47905,0.00762
2447.55033,0.00746
2445.62161,0.00740
2443.69288,0.00732
2441.76416,0.00713
2439.83544,0.00696
2437.90671,0.00681
2435.97799,0.00659
2434.04927,0.00638
2432.12054,0.00625
2430.19182,0.00615
2428.26309,0.00603
2426.33437,0.00592
2424.40565,0.00579
2422.47692,0.00562
2420.54820,0.00548
2418.61948,0.00538
2416.69075,0.00526
2414.76203,0.00512
2412.83331,0.00497
2410.90458,0.00479
2408.97586,0.00464
2407.04713,0.00456
2405.11841,0.00450
2403.18969,0.00443
2401.26096,0.00431
2399.33224,0.00412
2397.40352,0.00394
2395.47479,0.00380
2393.54607,0.00371
2391.61734,0.00367
2389.68862,0.00367
2387.75990,0.00364
2385.83117,0.00353
2383.90245,0.00338
2381.97373,0.00329
2380.04500,0.00328
2378.11628,0.00328
2376.18756,0.00322
2374.25883,0.00318
2372.33011,0.00326
2370.40138,0.00345
2368.47266,0.00360
2366.54394,0.00359
2364.61521,0.00341
2362.68649,0.00327
2360.75777,0.00332
2358.82904,0.00343
2356.90032,0.00342
2354.97160,0.00333
2353.04287,0.00316
2351.11415,0.00283
2349.18542,0.00241
2347.25670,0.00216
2345.32798,0.00219
2343.39925,0.00237
2341.47053,0.00249
2339.54181,0.00245
2337.61308,0.00229
2335.68436,0.00206
2333.75563,0.00189
2331.82691,0.00188
2329.89819,0.00199
2327.96946,0.00203
2326.04074,0.00187
2324.11202,0.00172
2322.18329,0.00175
2320.25457,0.00184
2318.32585,0.00180
2316.39712,0.00166
2314.46840,0.00153
2312.53967,0.00148
2310.61095,0.00144
2308.68223,0.00140
2306.75350,0.00140
2304.82478,0.00134
2302.89606,0.00117
2300.96733,0.00101
2299.03861,0.00095
2297.10989,0.00092
2295.18116,0.00084
2293.25244,0.00077
2291.32371,0.00077
2289.39499,0.00081
2287.46627,0.00080
2285.53754,0.00072
2283.60882,0.00066
2281.68010,0.00068
2279.75137,0.00072
2277.82265,0.00073
2275.89392,0.00070
2273.96520,0.00061
2272.03648,0.00048
2270.10775,0.00042
2268.17903,0.00042
2266.25031,0.00037
2264.32158,0.00030
2262.39286,0.00031
2260.46414,0.00038
2258.53541,0.00041
2256.60669,0.00038
2254.67796,0.00036
2252.74924,0.00037
2250.82052,0.00034
2248.89179,0.00029
2246.96307,0.00031
2245.03435,0.00028
2243.10562,0.00018
2241.17690,0.00013
2239.24818,0.00012
2237.31945,0.00008
2235.39073,0.00007
2233.46200,0.00011
2231.53328,0.00013
2229.60456,0.00007
2227.67583,0.00012
2225.74711,0.00028
2223.81839,0.00036
2221.88966,0.00032
2219.96094,0.00025
2218.03221,0.00013
2216.10349,0.00000
2214.17477,-0.00003
2212.24604,-0.00003
2210.31732,-0.00008
2208.38860,-0.00009
2206.45987,0.00000
2204.53115,0.00005
2202.60243,0.00002
2200.67370,-0.00003
2198.74498,-0.00004
2196.81625,0.00002
2194.88753,0.00010
2192.95881,0.00012
2191.03008,0.00005
2189.10136,-0.00006
2187.17264,-0.00013
2185.24391,-0.00014
2183.31519,-0.00013
2181.38647,-0.00012
2179.45774,-0.00006
2177.52902,-0.00002
2175.60029,0.00000
2173.67157,0.00005
2171.74285,0.00013
2169.81412,0.00018
2167.88540,0.00015
2165.95668,0.00007
2164.02795,0.00007
2162.09923,0.00016
2160.17050,0.00021
2158.24178,0.00022
2156.31306,0.00022
2154.38433,0.00019
2152.45561,0.00013
2150.52689,0.00009
2148.59816,0.00014
2146.66944,0.00022
2144.74072,0.00022
2142.81199,0.00016
2140.88327,0.00014
2138.95454,0.00016
2137.02582,0.00020
2135.09710,0.00024
2133.16837,0.00027
2131.23965,0.00032
2129.31093,0.00036
2127.38220,0.00031
2125.45348,0.00024
2123.52476,0.00024
2121.59603,0.00031
2119.66731,0.00034
2117.73858,0.00030
2115.80986,0.00027
2113.88114,0.00025
2111.95241,0.00023
2110.02369,0.00018
2108.09497,0.00012
2106.16624,0.00003
2104.23752,-0.00003
2102.30880,0.00000
2100.38007,0.00007
2098.45135,0.00005
2096.52262,-0.00000
2094.59390,0.00000
2092.66518,0.00002
2090.73645,-0.00002
2088.80773,-0.00013
2086.87901,-0.00020
2084.95028,-0.00016
2083.02156,-0.00007
2081.09283,0.00000
2079.16411,-0.00002
2077.23539,-0.00016
2075.30666,-0.00031
2073.37794,-0.00040
2071.44922,-0.00036
2069.52049,-0.00027
2067.59177,-0.00023
2065.66305,-0.00020
2063.73432,-0.00017
2061.80560,-0.00019
2059.87687,-0.00020
2057.94815,-0.00011
2056.01943,0.00004
2054.09070,0.00014
2052.16198,0.00014
2050.23326,0.00011
2048.30453,0.00017
2046.37581,0.00031
2044.44709,0.00052
2042.51836,0.00073
2040.58964,0.00088
2038.66091,0.00099
2036.73219,0.00108
2034.80347,0.00121
2032.87474,0.00140
2030.94602,0.00155
2029.01730,0.00164
2027.08857,0.00170
2025.15985,0.00183
2023.23112,0.00202
2021.30240,0.00217
2019.37368,0.00226
2017.44495,0.00234
2015.51623,0.00245
2013.58751,0.00253
2011.65878,0.00260
2009.73006,0.00266
2007.80134,0.00272
2005.87261,0.00279
2003.94389,0.00284
2002.01516,0.00288
2000.08644,0.00292
1998.15772,0.00297
1996.22899,0.00298
1994.30027,0.00296
1992.37155,0.00294
1990.44282,0.00290
1988.51410,0.00280
1986.58538,0.00272
1984.65665,0.00267
1982.72793,0.00259
1980.79920,0.00247
1978.87048,0.00242
1976.94176,0.00239
1975.01303,0.00234
1973.08431,0.00228
1971.15559,0.00221
1969.22686,0.00209
1967.29814,0.00198
1965.36941,0.00191
1963.44069,0.00178
1961.51197,0.00157
1959.58324,0.00135
1957.65452,0.00118
1955.72580,0.00105
1953.79707,0.00094
1951.86835,0.00086
1949.93963,0.00073
1948.01090,0.00057
1946.08218,0.00044
1944.15345,0.00039
1942.22473,0.00040
1940.29601,0.00035
1938.36728,0.00023
1936.43856,0.00012
1934.50984,0.00003
1932.58111,-0.00006
1930.65239,-0.00009
1928.72367,-0.00005
1926.79494,0.00000
1924.86622,-0.00004
1922.93749,-0.00003
1921.00877,0.00010
1919.08005,0.00030
1917.15132,0.00053
1915.22260,0.00076
1913.29388,0.00096
1911.36515,0.00116
1909.43643,0.00142
1907.50770,0.00172
1905.57898,0.00204
1903.65026,0.00236
1901.72153,0.00276
1899.79281,0.00319
1897.86409,0.00360
1895.93536,0.00396
1894.00664,0.00431
1892.07792,0.00465
1890.14919,0.00501
1888.22047,0.00528
1886.29174,0.00544
1884.36302,0.00559
1882.43430,0.00577
1880.50557,0.00596
1878.57685,0.00616
1876.64813,0.00634
1874.71940,0.00644
1872.79068,0.00643
1870.86196,0.00636
1868.93323,0.00629
1867.00451,0.00615
1865.07578,0.00590
1863.14706,0.00557
1861.21834,0.00525
1859.28961,0.00490
1857.36089,0.00445
1855.43217,0.00392
1853.50344,0.00347
1851.57472,0.00312
1849.64599,0.00276
1847.71727,0.00235
1845.78855,0.00200
1843.85982,0.00178
1841.93110,0.00158
1840.00238,0.00131
1838.07365,0.00106
1836.14493,0.00082
1834.21621,0.00052
1832.28748,0.00026
1830.35876,0.00018
1828.43003,0.00022
1826.50131,0.00020
1824.57259,0.00014
1822.64386,0.00009
1820.71514,0.00005
1818.78642,0.00004
1816.85769,0.00004
1814.92897,0.00000
1813.00025,-0.00012
1811.07152,-0.00005
1809.14280,0.00018
1807.21407,0.00036
1805.28535,0.00043
1803.35663,0.00052
1801.42790,0.00076
1799.49918,0.00108
1797.57046,0.00133
1795.64173,0.00158
1793.71301,0.00205
1791.78428,0.00272
1789.85556,0.00325
1787.92684,0.00359
1785.99811,0.00402
1784.06939,0.00464
1782.14067,0.00531
1780.21194,0.00593
1778.28322,0.00649
1776.35450,0.00697
1774.42577,0.00758
1772.49705,0.00853
1770.56832,0.00963
1768.63960,0.01049
1766.71088,0.01106
1764.78215,0.01157
1762.85343,0.01228
1760.92471,0.01319
1758.99598,0.01402
1757.06726,0.01478
1755.13854,0.01557
1753.20981,0.01644
1751.28109,0.01761
1749.35236,0.01910
1747.42364,0.02053
1745.49492,0.02178
1743.56619,0.02305
1741.63747,0.02451
1739.70875,0.02610
1737.78002,0.02748
1735.85130,0.02875
1733.92257,0.03045
1731.99385,0.03225
1730.06513,0.03362
1728.13640,0.03479
1726.20768,0.03598
1724.27896,0.03723
1722.35023,0.03838
1720.42151,0.03940
1718.49279,0.04073
1716.56406,0.04260
1714.63534,0.04437
1712.70661,0.04570
1710.77789,0.04682
1708.84917,0.04801
1706.92044,0.04956
1704.99172,0.05138
1703.06300,0.05302
1701.13427,0.05491
1699.20555,0.05759
1697.27683,0.06061
1695.34810,0.06358
1693.41938,0.06609
1691.49065,0.06811
1689.56193,0.07010
1687.63321,0.07216
1685.70448,0.07493
1683.77576,0.07899
1681.84704,0.08275
1679.91831,0.08517
1677.98959,0.08715
1676.06087,0.08958
1674.13214,0.09242
1672.20342,0.09504
1670.27469,0.09771
1668.34597,0.10058
1666.41725,0.10293
1664.48852,0.10487
1662.55980,0.10694
1660.63108,0.10886
1658.70235,0.11013
1656.77363,0.11097
1654.84490,0.11233
1652.91618,0.11475
1650.98746,0.11661
1649.05873,0.11711
1647.13001,0.11738
1645.20129,0.11783
1643.27256,0.11789
1641.34384,0.11746
1639.41512,0.11687
1637.48639,0.11649
1635.55767,0.11644
1633.62894,0.11632
1631.70022,0.11585
1629.77150,0.11504
1627.84277,0.11404
1625.91405,0.11294
1623.98533,0.11173
1622.05660,0.11042
1620.12788,0.10902
1618.19916,0.10742
1616.27043,0.10558
1614.34171,0.10366
1612.41298,0.10167
1610.48426,0.09957
1608.55554,0.09746
1606.62681,0.09540
1604.69809,0.09336
1602.76937,0.09134
1600.84064,0.08944
1598.91192,0.08770
1596.98319,0.08603
1595.05447,0.08429
1593.12575,0.08248
1591.19702,0.08069
1589.26830,0.07900
1587.33958,0.07742
1585.41085,0.07590
1583.48213,0.07441
1581.55341,0.07299
1579.62468,0.07168
1577.69596,0.07050
1575.76723,0.06946
1573.83851,0.06847
1571.90979,0.06743
1569.98106,0.06637
1568.05234,0.06541
1566.12362,0.06452
1564.19489,0.06359
1562.26617,0.06269
1560.33745,0.06202
1558.40872,0.06173
1556.48000,0.06136
1554.55127,0.06067
1552.62255,0.05991
1550.69383,0.05921
1548.76510,0.05848
1546.83638,0.05755
1544.90766,0.05639
1542.97893,0.05513
1541.05021,0.05391
1539.12148,0.05279
1537.19276,0.05178
1535.26404,0.05062
1533.33531,0.04920
1531.40659,0.04774
1529.47787,0.04635
1527.54914,0.04493
1525.62042,0.04344
1523.69170,0.04192
1521.76297,0.04037
1519.83425,0.03891
1517.90552,0.03761
1515.97680,0.03632
1514.04808,0.03497
1512.11935,0.03356
1510.19063,0.03204
1508.26191,0.03027
1506.33318,0.02823
1504.40446,0.02632
1502.47574,0.02460
1500.54701,0.02293
1498.61829,0.02134
1496.68956,0.01994
1494.76084,0.01872
1492.83212,0.01766
1490.90339,0.01682
1488.97467,0.01626
1487.04595,0.01595
1485.11722,0.01577
1483.18850,0.01581
1481.25977,0.01621
1479.33105,0.01695
1477.40233,0.01800
1475.47360,0.01973
1473.54488,0.02258
1471.61616,0.02596
1469.68743,0.02837
1467.75871,0.02963
1465.82999,0.03049
1463.90126,0.03126
1461.97254,0.03172
1460.04381,0.03194
1458.11509,0.03236
1456.18637,0.03301
1454.25764,0.03326
1452.32892,0.03306
1450.40020,0.03281
1448.47147,0.03271
1446.54275,0.03276
1444.61403,0.03278
1442.68530,0.03270
1440.75658,0.03256
1438.82785,0.03257
1436.89913,0.03289
1434.97041,0.03329
1433.04168,0.03350
1431.11296,0.03364
1429.18424,0.03389
1427.25551,0.03431
1425.32679,0.03487
1423.39806,0.03546
1421.46934,0.03601
1419.54062,0.03680
1417.61189,0.03788
1415.68317,0.03882
1413.75445,0.03961
1411.82572,0.04052
1409.89700,0.04154
1407.96828,0.04248
1406.03955,0.04342
1404.11083,0.04430
1402.18210,0.04465
1400.25338,0.04418
1398.32466,0.04311
1396.39593,0.04186
1394.46721,0.04053
1392.53849,0.03905
1390.60976,0.03747
1388.68104,0.03597
1386.75232,0.03480
1384.82359,0.03398
1382.89487,0.03319
1380.96614,0.03224
1379.03742,0.03115
1377.10870,0.02992
1375.17997,0.02853
1373.25125,0.02710
1371.32253,0.02585
1369.39380,0.02476
1367.46508,0.02375
1365.53635,0.02273
1363.60763,0.02166
1361.67891,0.02064
1359.75018,0.01978
1357.82146,0.01906
1355.89274,0.01838
1353.96401,0.01772
1352.03529,0.01713
1350.10657,0.01662
1348.17784,0.01616
1346.24912,0.01574
1344.32039,0.01531
1342.39167,0.01487
1340.46295,0.01448
1338.53422,0.01416
1336.60550,0.01386
1334.67678,0.01360
1332.74805,0.01342
1330.81933,0.01329
1328.89061,0.01313
1326.96188,0.01293
1325.03316,0.01278
1323.10443,0.01273
1321.17571,0.01275
1319.24699,0.01266
1317.31826,0.01228
1315.38954,0.01166
1313.46082,0.01092
1311.53209,0.01011
1309.60337,0.00919
1307.67464,0.00813
1305.74592,0.00664
1303.81720,0.00461
1301.88847,0.00289
1299.95975,0.00259
1298.03103,0.00333
1296.10230,0.00410
1294.17358,0.00500
1292.24486,0.00662
1290.31613,0.00892
1288.38741,0.01174
1286.45868,0.01495
1284.52996,0.01832
1282.60124,0.02178
1280.67251,0.02535
1278.74379,0.02895
1276.81507,0.03250
1274.88634,0.03599
1272.95762,0.03957
1271.02890,0.04337
1269.10017,0.04743
1267.17145,0.05187
1265.24272,0.05687
1263.31400,0.06239
1261.38528,0.06852
1259.45655,0.07546
1257.52783,0.08304
1255.59911,0.09100
1253.67038,0.09933
1251.74166,0.10786
1249.81294,0.11620
1247.88421,0.12419
1245.95549,0.13178
1244.02676,0.13879
1242.09804,0.14509
1240.16932,0.15081
1238.24059,0.15599
1236.31187,0.16060
1234.38315,0.16473
1232.45442,0.16845
1230.52570,0.17176
1228.59697,0.17469
1226.66825,0.17735
1224.73953,0.17983
1222.81080,0.18206
1220.88208,0.18402
1218.95336,0.18590
1217.02463,0.18774
1215.09591,0.18952
1213.16719,0.19131
1211.23846,0.19309
1209.30974,0.19461
1207.38101,0.19571
1205.45229,0.19659
1203.52357,0.19743
1201.59484,0.19806
1199.66612,0.19817
1197.73740,0.19744
1195.80867,0.19586
1193.87995,0.19432
1191.95123,0.19430
1190.02250,0.19606
1188.09378,0.19815
1186.16505,0.19969
1184.23633,0.20151
1182.30761,0.20445
1180.37888,0.20807
1178.45016,0.21178
1176.52144,0.21528
1174.59271,0.21844
1172.66399,0.22160
1170.73526,0.22486
1168.80654,0.22792
1166.87782,0.23064
1164.94909,0.23314
1163.02037,0.23563
1161.09165,0.23796
1159.16292,0.23982
1157.23420,0.24131
1155.30548,0.24272
1153.37675,0.24419
1151.44803,0.24567
1149.51930,0.24708
1147.59058,0.24858
1145.66186,0.25027
1143.73313,0.25195
1141.80441,0.25341
1139.87569,0.25472
1137.94696,0.25623
1136.01824,0.25822
1134.08952,0.26056
1132.16079,0.26303
1130.23207,0.26552
1128.30334,0.26771
1126.37462,0.26968
1124.44590,0.27209
1122.51717,0.27495
1120.58845,0.27776
1118.65973,0.28072
1116.73100,0.28436
1114.80228,0.28881
1112.87355,0.29408
1110.94483,0.29988
1109.01611,0.30552
1107.08738,0.31093
1105.15866,0.31659
1103.22994,0.32250
1101.30121,0.32795
1099.37249,0.33222
1097.44377,0.33559
1095.51504,0.33878
1093.58632,0.34137
1091.65759,0.34259
1089.72887,0.34297
1087.80015,0.34330
1085.87142,0.34326
1083.94270,0.34233
1082.01398,0.34093
1080.08525,0.33969
1078.15653,0.33835
1076.22781,0.33658
1074.29908,0.33439
1072.37036,0.33194
1070.44163,0.32926
1068.51291,0.32605
1066.58419,0.32245
1064.65546,0.31896
1062.72674,0.31532
1060.79802,0.31085
1058.86929,0.30571
1056.94057,0.30046
1055.01184,0.29512
1053.08312,0.28978
1051.15440,0.28469
1049.22567,0.27965
1047.29695,0.27430
1045.36823,0.26872
1043.43950,0.26308
1041.51078,0.25721
1039.58206,0.25116
1037.65333,0.24529
1035.72461,0.23948
1033.79588,0.23326
1031.86716,0.22688
1029.93844,0.22107
1028.00971,0.21595
1026.08099,0.21093
1024.15227,0.20565
1022.22354,0.20051
1020.29482,0.19574
1018.36610,0.19120
1016.43737,0.18688
1014.50865,0.18271
1012.57992,0.17872
1010.65120,0.17508
1008.72248,0.17160
1006.79375,0.16805
1004.86503,0.16465
1002.93631,0.16149
1001.00758,0.15834
999.07886,0.15529
997.15013,0.15252
995.22141,0.14985
993.29269,0.14706
991.36396,0.14435
989.43524,0.14199
987.50652,0.14004
985.57779,0.13827
983.64907,0.13668
981.72035,0.13540
979.79162,0.13431
977.86290,0.13333
975.93417,0.13260
974.00545,0.13213
972.07673,0.13190
970.14800,0.13179
968.21928,0.13181
966.29056,0.13189
964.36183,0.13187
962.43311,0.13185
960.50439,0.13160
958.57566,0.13090
956.64694,0.13019
954.71821,0.12980
952.78949,0.12937
950.86077,0.12853
948.93204,0.12751
947.00332,0.12656
945.07460,0.12554
943.14587,0.12414
941.21715,0.12234
939.28842,0.12042
937.35970,0.11852
935.43098,0.11656
933.50225,0.11452
931.57353,0.11242
929.64481,0.11028
927.71608,0.10813
925.78736,0.10573
923.85864,0.10293
921.92991,0.10010
920.00119,0.09740
918.07246,0.09443
916.14374,0.09127
914.21502,0.08854
912.28629,0.08615
910.35757,0.08339
908.42885,0.08014
906.50012,0.07685
904.57140,0.07381
902.64268,0.07110
900.71395,0.06856
898.78523,0.06587
896.85650,0.06297
894.92778,0.06020
892.99906,0.05761
891.07033,0.05508
889.14161,0.05259
887.21289,0.05001
885.28416,0.04750
883.35544,0.04548
881.42671,0.04386
879.49799,0.04213
877.56927,0.04015
875.64054,0.03834
873.71182,0.03674
871.78310,0.03482
869.85437,0.03266
867.92565,0.03083
865.99693,0.02933
864.06820,0.02789
862.13948,0.02661
860.21075,0.02536
858.28203,0.02410
856.35331,0.02316
854.42458,0.02253
852.49586,0.02199
850.56714,0.02160
848.63841,0.02149
846.70969,0.02165
844.78097,0.02190
842.85224,0.02245
840.92352,0.02357
838.99479,0.02500
837.06607,0.02672
835.13735,0.02901
833.20862,0.03170
831.27990,0.03428
829.35118,0.03659
827.42245,0.03885
825.49373,0.04098
823.56501,0.04301
821.63628,0.04545
819.70756,0.04849
817.77883,0.05139
815.85011,0.05365
813.92139,0.05563
811.99266,0.05768
810.06394,0.05971
808.13522,0.06155
806.20649,0.06302
804.27777,0.06423
802.34904,0.06547
800.42032,0.06653
798.49160,0.06705
796.56287,0.06706
794.63415,0.06652
792.70543,0.06564
790.77670,0.06486
788.84798,0.06394
786.91926,0.06236
784.99053,0.06012
783.06181,0.05779
781.13308,0.05567
779.20436,0.05339
777.27564,0.05080
775.34691,0.04805
773.41819,0.04516
771.48947,0.04240
769.56074,0.04033
767.63202,0.03894
765.70330,0.03774
763.77457,0.03676
761.84585,0.03629
759.91712,0.03615
757.98840,0.03615
756.05968,0.03621
754.13095,0.03604
752.20223,0.03543
750.27351,0.03465
748.34478,0.03419
746.41606,0.03420
744.48733,0.03431
742.55861,0.03442
740.62989,0.03447
738.70116,0.03411
736.77244,0.03345
734.84372,0.03301
732.91499,0.03291
730.98627,0.03303
729.05755,0.03342
727.12882,0.03411
725.20010,0.03478
723.27137,0.03508
721.34265,0.03506
719.41393,0.03485
717.48520,0.03483
715.55648,0.03521
713.62776,0.03585
711.69903,0.03641
709.77031,0.03663
707.84159,0.03655
705.91286,0.03649
703.98414,0.03662
702.05541,0.03674
700.12669,0.03690
698.19797,0.03751
696.26924,0.03859
694.34052,0.03957
692.41180,0.04000
690.48307,0.03988
688.55435,0.03962
686.62562,0.03962
684.69690,0.03972
682.76818,0.03960
680.83945,0.03931
678.91073,0.03904
676.98201,0.03883
675.05328,0.03887
673.12456,0.03902
671.19584,0.03883
669.26711,0.03840
667.33839,0.03834
665.40966,0.03871
663.48094,0.03920
661.55222,0.03995
659.62349,0.04107
657.69477,0.04221
655.76605,0.04299
653.83732,0.04363
651.90860,0.04473
649.97988,0.04638
648.05115,0.04804
646.12243,0.04919
644.19370,0.04973
642.26498,0.04997
640.33626,0.05049
638.40753,0.05166
636.47881,0.05329
634.55009,0.05482
632.62136,0.05572
630.69264,0.05596
628.76391,0.05620
626.83519,0.05704
624.90647,0.05805
622.97774,0.05888
621.04902,0.05950
619.12030,0.05996
617.19157,0.06032
615.26285,0.06086
613.33413,0.06214
611.40540,0.06371
609.47668,0.06436
607.54795,0.06427
605.61923,0.06473
603.69051,0.06636
601.76178,0.06866
599.83306,0.07054
597.90434,0.07140
595.97561,0.07168
594.04689,0.07239
592.11817,0.07364
590.18944,0.07507
588.26072,0.07660
586.33199,0.07761
584.40327,0.07800
582.47455,0.07850
580.54582,0.07903
578.61710,0.07911
576.68838,0.07866
574.75965,0.07798
572.83093,0.07771
570.90220,0.07818
568.97348,0.07882
567.04476,0.07911
565.11603,0.07908
563.18731,0.07875
561.25859,0.07855
559.32986,0.07899
557.40114,0.08000
555.47242,0.08113
553.54369,0.08175
551.61497,0.08188
549.68624,0.08209
547.75752,0.08245
545.82880,0.08267
543.90007,0.08285
541.97135,0.08299
540.04263,0.08284
538.11390,0.08270
536.18518,0.08278
534.25646,0.08262
532.32773,0.08206
530.39901,0.08170
528.47028,0.08204
526.54156,0.08234
524.61284,0.08193
522.68411,0.08186
520.75539,0.08276
518.82667,0.08361
516.89794,0.08408
514.96922,0.08416
513.04049,0.08397
511.11177,0.08499
509.18305,0.08781
507.25432,0.09099
505.32560,0.09373
503.39688,0.09714
501.46815,0.10207
499.53943,0.10728
497.61071,0.11215
495.68198,0.11771
493.75326,0.12428
491.82453,0.13082
489.89581,0.13647
487.96709,0.14152
486.03836,0.14665
484.10964,0.15180
482.18092,0.15582
480.25219,0.15796
478.32347,0.16055
476.39475,0.16660
474.46602,0.17619
472.53730,0.18664
470.60857,0.19362
468.67985,0.19568
466.75113,0.19611
464.82240,0.19742
462.89368,0.19859
460.96496,0.19718
459.03623,0.19214
457.10751,0.18552
455.17878,0.18012
453.25006,0.17577
451.32134,0.17115
449.39261,0.16644
447.46389,0.16325
445.53517,0.16226
443.60644,0.16142
441.67772,0.15828
439.74900,0.15336
437.82027,0.14936
435.89155,0.14656
433.96282,0.14134
432.03410,0.13185
430.10538,0.12112
428.17665,0.11322
426.24793,0.10978
424.31921,0.10987
422.39048,0.11144
420.46176,0.11078
418.53304,0.10460
416.60431,0.09627
414.67559,0.08963
412.74686,0.08383
410.81814,0.07896
408.88942,0.07491
406.96069,0.06898
405.03197,0.06132
403.10325,0.05635
401.17452,0.05584
399.24580,0.05809
397.31708,0.06057
395.38835,0.05798
393.45963,0.04841
391.53090,0.03653
389.60218,0.02739
387.67346,0.02211
385.74473,0.02157
383.81601,0.02796
381.88729,0.03991
379.95856,0.04985
378.02984,0.04348
376.10111,0.01753
374.17239,0.00000
372.24367,-0.00573
370.31494,-0.00104
368.38622,0.00000
