3996.31543,0.00001
3994.38671,0.00000
3992.45799,0.00004
3990.52926,0.00015
3988.60054,0.00032
3986.67182,0.00042
3984.74309,0.00040
3982.81437,0.00037
3980.88564,0.00041
3978.95692,0.00044
3977.02820,0.00044
3975.09947,0.00046
3973.17075,0.00053
3971.24203,0.00064
3969.31330,0.00070
3967.38458,0.00064
3965.45586,0.00054
3963.52713,0.00049
3961.59841,0.00050
3959.66968,0.00052
3957.74096,0.00054
3955.81224,0.00051
3953.88351,0.00044
3951.95479,0.00041
3950.02607,0.00052
3948.09734,0.00073
3946.16862,0.00083
3944.23990,0.00077
3942.31117,0.00063
3940.38245,0.00041
3938.45372,0.00021
3936.52500,0.00020
3934.59628,0.00042
3932.66755,0.00085
3930.73883,0.00116
3928.81011,0.00099
3926.88138,0.00054
3924.95266,0.00025
3923.02393,0.00020
3921.09521,0.00027
3919.16649,0.00038
3917.23776,0.00043
3915.30904,0.00031
3913.38032,0.00010
3911.45159,0.00000
3909.52287,0.00004
3907.59415,0.00008
3905.66542,0.00016
3903.73670,0.00041
3901.80797,0.00055
3899.87925,0.00044
3897.95053,0.00029
3896.02180,0.00009
3894.09308,-0.00013
3892.16436,-0.00011
3890.23563,0.00005
3888.30691,0.00000
3886.37819,-0.00009
3884.44946,0.00000
3882.52074,0.00009
3880.59201,0.00020
3878.66329,0.00022
3876.73457,0.00007
3874.80584,0.00000
3872.87712,0.00008
3870.94840,0.00016
3869.01967,0.00019
3867.09095,0.00001
3865.16222,-0.00017
3863.23350,0.00001
3861.30478,0.00023
3859.37605,0.00001
3857.44733,-0.00054
3855.51861,-0.00068
3853.58988,0.00012
3851.66116,0.00092
3849.73244,0.00074
3847.80371,0.00009
3845.87499,-0.00041
3843.94626,-0.00060
3842.01754,-0.00055
3840.08882,-0.00034
3838.16009,-0.00009
3836.23137,0.00006
3834.30265,0.00008
3832.37392,0.00003
3830.44520,-0.00003
3828.51648,0.00000
3826.58775,0.00014
3824.65903,0.00022
3822.73030,0.00038
3820.80158,0.00081
3818.87286,0.00088
3816.94413,0.00050
3815.01541,0.00034
3813.08669,0.00031
3811.15796,0.00015
3809.22924,0.00015
3807.30052,0.00057
3805.37179,0.00102
3803.44307,0.00126
3801.51434,0.00164
3799.58562,0.00197
3797.65690,0.00185
3795.72817,0.00160
3793.79945,0.00148
3791.87073,0.00146
3789.94200,0.00152
3788.01328,0.00174
3786.08455,0.00218
3784.15583,0.00271
3782.22711,0.00304
3780.29838,0.00329
3778.36966,0.00359
3776.44094,0.00368
3774.51221,0.00360
3772.58349,0.00371
3770.65477,0.00421
3768.72604,0.00488
3766.79732,0.00554
3764.86859,0.00608
3762.93987,0.00634
3761.01115,0.00647
3759.08242,0.00689
3757.15370,0.00748
3755.22498,0.00784
3753.29625,0.00829
3751.36753,0.00943
3749.43881,0.01077
3747.51008,0.01153
3745.58136,0.01251
3743.65263,0.01414
3741.72391,0.01529
3739.79519,0.01568
3737.86646,0.01631
3735.93774,0.01810
3734.00902,0.02070
3732.08029,0.02286
3730.15157,0.02409
3728.22284,0.02504
3726.29412,0.02652
3724.36540,0.02860
3722.43667,0.03091
3720.50795,0.03332
3718.57923,0.03585
3716.65050,0.03830
3714.72178,0.04066
3712.79306,0.04376
3710.86433,0.04809
3708.93561,0.05235
3707.00688,0.05550
3705.07816,0.05813
3703.14944,0.06126
3701.22071,0.06528
3699.29199,0.06944
3697.36327,0.07309
3695.43454,0.07618
3693.50582,0.07895
3691.57710,0.08240
3689.64837,0.08755
3687.71965,0.09324
3685.79092,0.09757
3683.86220,0.10091
3681.93348,0.10430
3680.00475,0.10788
3678.07603,0.11186
3676.14731,0.11711
3674.21858,0.12298
3672.28986,0.12773
3670.36113,0.13256
3668.43241,0.13798
3666.50369,0.14227
3664.57496,0.14541
3662.64624,0.14846
3660.71752,0.15170
3658.78879,0.15519
3656.86007,0.15916
3654.93135,0.16288
3653.00262,0.16534
3651.07390,0.16790
3649.14517,0.17256
3647.21645,0.17788
3645.28773,0.18133
3643.35900,0.18335
3641.43028,0.18530
3639.50156,0.18754
3637.57283,0.18985
3635.64411,0.19214
3633.71539,0.19418
3631.78666,0.19602
3629.85794,0.19874
3627.92921,0.20255
3626.00049,0.20544
3624.07177,0.20690
3622.14304,0.20810
3620.21432,0.20991
3618.28560,0.21217
3616.35687,0.21404
3614.42815,0.21540
3612.49942,0.21669
3610.57070,0.21804
3608.64198,0.21968
3606.71325,0.22166
3604.78453,0.22343
3602.85581,0.22486
3600.92708,0.22636
3598.99836,0.22800
3597.06964,0.22956
3595.14091,0.23100
3593.21219,0.23227
3591.28346,0.23317
3589.35474,0.23412
3587.42602,0.23596
3585.49729,0.23838
3583.56857,0.24030
3581.63985,0.24150
3579.71112,0.24253
3577.78240,0.24376
3575.85368,0.24520
3573.92495,0.24650
3571.99623,0.24735
3570.06750,0.24795
3568.13878,0.24917
3566.21006,0.25134
3564.28133,0.25336
3562.35261,0.25459
3560.42389,0.25554
3558.49516,0.25656
3556.56644,0.25765
3554.63771,0.25890
3552.70899,0.26031
3550.78027,0.26148
3548.85154,0.26225
3546.92282,0.26300
3544.99410,0.26413
3543.06537,0.26554
3541.13665,0.26684
3539.20793,0.26788
3537.27920,0.26877
3535.35048,0.26971
3533.42175,0.27073
3531.49303,0.27172
3529.56431,0.27261
3527.63558,0.27362
3525.70686,0.27490
3523.77814,0.27625
3521.84941,0.27734
3519.92069,0.27818
3517.99197,0.27897
3516.06324,0.27982
3514.13452,0.28058
3512.20579,0.28132
3510.27707,0.28226
3508.34835,0.28338
3506.41962,0.28438
3504.49090,0.28521
3502.56218,0.28607
3500.63345,0.28693
3498.70473,0.28775
3496.77600,0.28867
3494.84728,0.28966
3492.91856,0.29051
3490.98983,0.29123
3489.06111,0.29202
3487.13239,0.29289
3485.20366,0.29366
3483.27494,0.29430
3481.34622,0.29493
3479.41749,0.29559
3477.48877,0.29632
3475.56004,0.29715
3473.63132,0.29789
3471.70260,0.29836
3469.77387,0.29883
3467.84515,0.29946
3465.91643,0.30002
3463.98770,0.30048
3462.05898,0.30093
3460.13026,0.30140
3458.20153,0.30202
3456.27281,0.30280
3454.34408,0.30361
3452.41536,0.30436
3450.48664,0.30490
3448.55791,0.30512
3446.62919,0.30518
3444.70047,0.30528
3442.77174,0.30556
3440.84302,0.30624
3438.91429,0.30719
3436.98557,0.30785
3435.05685,0.30808
3433.12812,0.30825
3431.19940,0.30850
3429.27068,0.30869
3427.34195,0.30900
3425.41323,0.30953
3423.48451,0.30985
3421.55578,0.30985
3419.62706,0.31003
3417.69833,0.31055
3415.76961,0.31098
3413.84089,0.31107
3411.91216,0.31105
3409.98344,0.31097
3408.05472,0.31086
3406.12599,0.31096
3404.19727,0.31114
3402.26855,0.31113
3400.33982,0.31108
3398.41110,0.31126
3396.48237,0.31167
3394.55365,0.31210
3392.62493,0.31224
3390.69620,0.31206
3388.76748,0.31168
3386.83876,0.31133
3384.91003,0.31117
3382.98131,0.31115
3381.05259,0.31101
3379.12386,0.31069
3377.19514,0.31040
3375.26641,0.31028
3373.33769,0.31033
3371.40897,0.31028
3369.48024,0.30998
3367.55152,0.30971
3365.62280,0.30963
3363.69407,0.30963
3361.76535,0.30964
3359.83662,0.30955
3357.90790,0.30931
3355.97918,0.30906
3354.05045,0.30887
3352.12173,0.30868
3350.19301,0.30843
3348.26428,0.30803
3346.33556,0.30753
3344.40684,0.30713
3342.47811,0.30685
3340.54939,0.30655
3338.62066,0.30615
3336.69194,0.30572
3334.76322,0.30535
3332.83449,0.30504
3330.90577,0.30483
3328.97705,0.30472
3327.04832,0.30434
3325.11960,0.30361
3323.19088,0.30306
3321.26215,0.30281
3319.33343,0.30252
3317.40470,0.30225
3315.47598,0.30215
3313.54726,0.30211
3311.61853,0.30191
3309.68981,0.30155
3307.76109,0.30119
3305.83236,0.30089
3303.90364,0.30043
3301.97491,0.29991
3300.04619,0.29958
3298.11747,0.29932
3296.18874,0.29894
3294.26002,0.29854
3292.33130,0.29822
3290.40257,0.29792
3288.47385,0.29769
3286.54513,0.29752
3284.61640,0.29734
3282.68768,0.29704
3280.75895,0.29656
3278.83023,0.29613
3276.90151,0.29593
3274.97278,0.29580
3273.04406,0.29547
3271.11534,0.29487
3269.18661,0.29413
3267.25789,0.29330
3265.32917,0.29251
3263.40044,0.29197
3261.47172,0.29167
3259.54299,0.29133
3257.61427,0.29087
3255.68555,0.29039
3253.75682,0.28994
3251.82810,0.28943
3249.89938,0.28887
3247.97065,0.28831
3246.04193,0.28770
3244.11320,0.28710
3242.18448,0.28672
3240.25576,0.28649
3238.32703,0.28607
3236.39831,0.28536
3234.46959,0.28455
3232.54086,0.28374
3230.61214,0.28302
3228.68342,0.28257
3226.75469,0.28228
3224.82597,0.28185
3222.89724,0.28119
3220.96852,0.28051
3219.03980,0.27985
3217.11107,0.27913
3215.18235,0.27831
3213.25363,0.27751
3211.32490,0.27675
3209.39618,0.27599
3207.46746,0.27518
3205.53873,0.27433
3203.61001,0.27349
3201.68128,0.27266
3199.75256,0.27189
3197.82384,0.27124
3195.89511,0.27068
3193.96639,0.27007
3192.03767,0.26923
3190.10894,0.26810
3188.18022,0.26690
3186.25149,0.26601
3184.32277,0.26549
3182.39405,0.26498
3180.46532,0.26423
3178.53660,0.26327
3176.60788,0.26218
3174.67915,0.26113
3172.75043,0.26022
3170.82171,0.25934
3168.89298,0.25841
3166.96426,0.25748
3165.03553,0.25661
3163.10681,0.25577
3161.17809,0.25489
3159.24936,0.25400
3157.32064,0.25305
3155.39192,0.25194
3153.46319,0.25081
3151.53447,0.24976
3149.60575,0.24872
3147.67702,0.24776
3145.74830,0.24698
3143.81957,0.24627
3141.89085,0.24551
3139.96213,0.24466
3138.03340,0.24361
3136.10468,0.24244
3134.17596,0.24145
3132.24723,0.24072
3130.31851,0.23987
3128.38978,0.23868
3126.46106,0.23741
3124.53234,0.23638
3122.60361,0.23557
3120.67489,0.23481
3118.74617,0.23400
3116.81744,0.23312
3114.88872,0.23208
3112.96000,0.23100
3111.03127,0.23009
3109.10255,0.22934
3107.17382,0.22848
3105.24510,0.22746
3103.31638,0.22641
3101.38765,0.22535
3099.45893,0.22421
3097.53021,0.22305
3095.60148,0.22188
3093.67276,0.22072
3091.74404,0.21969
3089.81531,0.21877
3087.88659,0.21774
3085.95786,0.21660
3084.02914,0.21554
3082.10042,0.21454
3080.17169,0.21356
3078.24297,0.21254
3076.31425,0.21130
3074.38552,0.20992
3072.45680,0.20871
3070.52807,0.20767
3068.59935,0.20658
3066.67063,0.20543
3064.74190,0.20434
3062.81318,0.20327
3060.88446,0.20218
3058.95573,0.20110
3057.02701,0.20006
3055.09829,0.19897
3053.16956,0.19774
3051.24084,0.19657
3049.31211,0.19560
3047.38339,0.19460
3045.45467,0.19349
3043.52594,0.19243
3041.59722,0.19146
3039.66850,0.19036
3037.73977,0.18919
3035.81105,0.18818
3033.88233,0.18721
3031.95360,0.18618
3030.02488,0.18515
3028.09615,0.18411
3026.16743,0.18310
3024.23871,0.18215
3022.30998,0.18117
3020.38126,0.18012
3018.45254,0.17914
3016.52381,0.17828
3014.59509,0.17749
3012.66636,0.17676
3010.73764,0.17603
3008.80892,0.17521
3006.88019,0.17442
3004.95147,0.17377
3003.02275,0.17315
3001.09402,0.17244
2999.16530,0.17162
2997.23658,0.17088
2995.30785,0.17027
2993.37913,0.16977
2991.45040,0.16939
2989.52168,0.16906
2987.59296,0.16870
2985.66423,0.16832
2983.73551,0.16808
2981.80679,0.16804
2979.87806,0.16803
2977.94934,0.16802
2976.02062,0.16811
2974.09189,0.16826
2972.16317,0.16841
2970.23444,0.16855
2968.30572,0.16868
2966.37700,0.16879
2964.44827,0.16892
2962.51955,0.16905
2960.59083,0.16906
2958.66210,0.16884
2956.73338,0.16837
2954.80466,0.16772
2952.87593,0.16711
2950.94721,0.16673
2949.01848,0.16661
2947.08976,0.16669
2945.16104,0.16701
2943.23231,0.16743
2941.30359,0.16798
2939.37487,0.16883
2937.44614,0.16992
2935.51742,0.17097
2933.58869,0.17183
2931.65997,0.17254
2929.73125,0.17289
2927.80252,0.17268
2925.87380,0.17207
2923.94508,0.17107
2922.01635,0.16948
2920.08763,0.16734
2918.15891,0.16479
2916.23018,0.16182
2914.30146,0.15873
2912.37273,0.15598
2910.44401,0.15360
2908.51529,0.15134
2906.58656,0.14919
2904.65784,0.14728
2902.72912,0.14562
2900.80039,0.14415
2898.87167,0.14275
2896.94295,0.14137
2895.01422,0.13995
2893.08550,0.13846
2891.15677,0.13703
2889.22805,0.13572
2887.29933,0.13447
2885.37060,0.13334
2883.44188,0.13242
2881.51316,0.13166
2879.58443,0.13095
2877.65571,0.13022
2875.72698,0.12951
2873.79826,0.12885
2871.86954,0.12819
2869.94081,0.12744
2868.01209,0.12666
2866.08337,0.12605
2864.15464,0.12577
2862.22592,0.12586
2860.29720,0.12628
2858.36847,0.12682
2856.43975,0.12714
2854.51102,0.12690
2852.58230,0.12587
2850.65358,0.12385
2848.72485,0.12089
2846.79613,0.11742
2844.86741,0.11405
2842.93868,0.11111
2841.00996,0.10863
2839.08124,0.10648
2837.15251,0.10457
2835.22379,0.10293
2833.29506,0.10148
2831.36634,0.10014
2829.43762,0.09890
2827.50889,0.09774
2825.58017,0.09665
2823.65145,0.09560
2821.72272,0.09451
2819.79400,0.09346
2817.86527,0.09251
2815.93655,0.09153
2814.00783,0.09054
2812.07910,0.08961
2810.15038,0.08874
2808.22166,0.08793
2806.29293,0.08707
2804.36421,0.08611
2802.43549,0.08517
2800.50676,0.08433
2798.57804,0.08360
2796.64931,0.08300
2794.72059,0.08240
2792.79187,0.08172
2790.86314,0.08101
2788.93442,0.08021
2787.00570,0.07928
2785.07697,0.07844
2783.14825,0.07779
2781.21953,0.07716
2779.29080,0.07642
2777.36208,0.07564
2775.43335,0.07488
2773.50463,0.07410
2771.57591,0.07333
2769.64718,0.07267
2767.71846,0.07206
2765.78974,0.07136
2763.86101,0.07065
2761.93229,0.07001
2760.00356,0.06941
2758.07484,0.06876
2756.14612,0.06801
2754.21739,0.06725
2752.28867,0.06666
2750.35995,0.06619
2748.43122,0.06565
2746.50250,0.06504
2744.57378,0.06442
2742.64505,0.06376
2740.71633,0.06306
2738.78760,0.06237
2736.85888,0.06173
2734.93016,0.06113
2733.00143,0.06055
2731.07271,0.05999
2729.14399,0.05947
2727.21526,0.05900
2725.28654,0.05851
2723.35782,0.05790
2721.42909,0.05726
2719.50037,0.05663
2717.57164,0.05601
2715.64292,0.05542
2713.71420,0.05483
2711.78547,0.05423
2709.85675,0.05375
2707.92803,0.05334
2705.99930,0.05280
2704.07058,0.05210
2702.14185,0.05148
2700.21313,0.05092
2698.28441,0.05027
2696.35568,0.04960
2694.42696,0.04905
2692.49824,0.04863
2690.56951,0.04823
2688.64079,0.04780
2686.71207,0.04733
2684.78334,0.04685
2682.85462,0.04638
2680.92589,0.04589
2678.99717,0.04540
2677.06845,0.04494
2675.13972,0.04444
2673.21100,0.04388
2671.28228,0.04328
2669.35355,0.04273
2667.42483,0.04228
2665.49611,0.04188
2663.56738,0.04147
2661.63866,0.04105
2659.70993,0.04061
2657.78121,0.04015
2655.85249,0.03969
2653.92376,0.03925
2651.99504,0.03876
2650.06632,0.03829
2648.13759,0.03786
2646.20887,0.03738
2644.28014,0.03691
2642.35142,0.03656
2640.42270,0.03620
2638.49397,0.03577
2636.56525,0.03535
2634.63653,0.03498
2632.70780,0.03465
2630.77908,0.03425
2628.85036,0.03376
2626.92163,0.03326
2624.99291,0.03286
2623.06418,0.03252
2621.13546,0.03217
2619.20674,0.03182
2617.27801,0.03143
2615.34929,0.03104
2613.42057,0.03078
2611.49184,0.03059
2609.56312,0.03025
2607.63440,0.02979
2605.70567,0.02930
2603.77695,0.02886
2601.84822,0.02854
2599.91950,0.02829
2597.99078,0.02801
2596.06205,0.02773
2594.13333,0.02744
2592.20461,0.02714
2590.27588,0.02679
2588.34716,0.02640
2586.41843,0.02606
2584.48971,0.02577
2582.56099,0.02541
2580.63226,0.02496
2578.70354,0.02454
2576.77482,0.02422
2574.84609,0.02398
2572.91737,0.02380
2570.98865,0.02362
2569.05992,0.02342
2567.13120,0.02315
2565.20247,0.02281
2563.27375,0.02247
2561.34503,0.02225
2559.41630,0.02203
2557.48758,0.02171
2555.55886,0.02137
2553.63013,0.02109
2551.70141,0.02089
2549.77269,0.02075
2547.84396,0.02061
2545.91524,0.02042
2543.98651,0.02019
2542.05779,0.01992
2540.12907,0.01964
2538.20034,0.01940
2536.27162,0.01922
2534.34290,0.01898
2532.41417,0.01865
2530.48545,0.01838
2528.55673,0.01820
2526.62800,0.01799
2524.69928,0.01777
2522.77055,0.01755
2520.84183,0.01730
2518.91311,0.01707
2516.98438,0.01686
2515.05566,0.01663
2513.12694,0.01639
2511.19821,0.01619
2509.26949,0.01599
2507.34076,0.01579
2505.41204,0.01559
2503.48332,0.01545
2501.55459,0.01533
2499.62587,0.01514
2497.69715,0.01492
2495.76842,0.01470
2493.83970,0.01446
2491.91098,0.01419
2489.98225,0.01394
2488.05353,0.01377
2486.12480,0.01366
2484.19608,0.01354
2482.26736,0.01337
2480.33863,0.01315
2478.40991,0.01294
2476.48119,0.01276
2474.55246,0.01255
2472.62374,0.01230
2470.69502,0.01208
2468.76629,0.01183
2466.83757,0.01157
2464.90884,0.01138
2462.98012,0.01127
2461.05140,0.01113
2459.12267,0.01093
2457.19395,0.01074
2455.26523,0.01053
2453.33650,0.01031
2451.40778,0.01010
2449.47905,0.00989
2447.55033,0.00968
2445.62161,0.00953
2443.69288,0.00941
2441.76416,0.00930
2439.83544,0.00918
2437.90671,0.00899
2435.97799,0.00878
2434.04927,0.00864
2432.12054,0.00847
2430.19182,0.00821
2428.26309,0.00800
2426.33437,0.00788
2424.40565,0.00779
2422.47692,0.00767
2420.54820,0.00750
2418.61948,0.00729
2416.69075,0.00711
2414.76203,0.00693
2412.83331,0.00674
2410.90458,0.00665
2408.97586,0.00662
2407.04713,0.00650
2405.11841,0.00628
2403.18969,0.00613
2401.26096,0.00607
2399.33224,0.00598
2397.40352,0.00581
2395.47479,0.00557
2393.54607,0.00536
2391.61734,0.00524
2389.68862,0.00516
2387.75990,0.00509
2385.83117,0.00503
2383.90245,0.00499
2381.97373,0.00495
2380.04500,0.00490
2378.11628,0.00480
2376.18756,0.00465
2374.25883,0.00458
2372.33011,0.00466
2370.40138,0.00477
2368.47266,0.00481
2366.54394,0.00480
2364.61521,0.00484
2362.68649,0.00491
2360.75777,0.00488
2358.82904,0.00470
2356.90032,0.00446
2354.97160,0.00429
2353.04287,0.00437
2351.11415,0.00466
2349.18542,0.00466
2347.25670,0.00409
2345.32798,0.00351
2343.39925,0.00337
2341.47053,0.00349
2339.54181,0.00359
2337.61308,0.00351
2335.68436,0.00329
2333.75563,0.00312
2331.82691,0.00305
2329.89819,0.00292
2327.96946,0.00272
2326.04074,0.00259
2324.11202,0.00253
2322.18329,0.00245
2320.25457,0.00232
2318.32585,0.00220
2316.39712,0.00207
2314.46840,0.00189
2312.53967,0.00174
2310.61095,0.00167
2308.68223,0.00166
2306.75350,0.00163
2304.82478,0.00153
2302.89606,0.00138
2300.96733,0.00129
2299.03861,0.00129
2297.10989,0.00135
2295.18116,0.00137
2293.25244,0.00129
2291.32371,0.00118
2289.39499,0.00107
2287.46627,0.00098
2285.53754,0.00090
2283.60882,0.00086
2281.68010,0.00084
2279.75137,0.00079
2277.82265,0.00071
2275.89392,0.00066
2273.96520,0.00060
2272.03648,0.00055
2270.10775,0.00055
2268.17903,0.00058
2266.25031,0.00057
2264.32158,0.00049
2262.39286,0.00041
2260.46414,0.00039
2258.53541,0.00038
2256.60669,0.00037
2254.67796,0.00036
2252.74924,0.00037
2250.82052,0.00029
2248.89179,0.00012
2246.96307,0.00010
2245.03435,0.00014
2243.10562,0.00018
2241.17690,0.00022
2239.24818,0.00028
2237.31945,0.00027
2235.39073,0.00020
2233.46200,0.00015
2231.53328,0.00014
2229.60456,0.00012
2227.67583,0.00005
2225.74711,0.00000
2223.81839,-0.00001
2221.88966,0.00001
2219.96094,0.00004
2218.03221,0.00002
2216.10349,-0.00003
2214.17477,-0.00011
2212.24604,-0.00010
2210.31732,0.00000
2208.38860,0.00003
2206.45987,0.00000
2204.53115,-0.00001
2202.60243,0.00001
2200.67370,0.00000
2198.74498,0.00001
2196.81625,0.00004
2194.88753,-0.00000
2192.95881,-0.00009
2191.03008,-0.00015
2189.10136,-0.00014
2187.17264,-0.00005
2185.24391,0.00004
2183.31519,0.00006
2181.38647,0.00007
2179.45774,0.00012
2177.52902,0.00019
2175.60029,0.00026
2173.67157,0.00027
2171.74285,0.00022
2169.81412,0.00016
2167.88540,0.00016
2165.95668,0.00022
2164.02795,0.00031
2162.09923,0.00037
2160.17050,0.00036
2158.24178,0.00031
2156.31306,0.00032
2154.38433,0.00042
2152.45561,0.00053
2150.52689,0.00059
2148.59816,0.00056
2146.66944,0.00051
2144.74072,0.00048
2142.81199,0.00050
2140.88327,0.00051
2138.95454,0.00049
2137.02582,0.00046
2135.09710,0.00045
2133.16837,0.00046
2131.23965,0.00044
2129.31093,0.00037
2127.38220,0.00031
2125.45348,0.00032
2123.52476,0.00035
2121.59603,0.00027
2119.66731,0.00016
2117.73858,0.00019
2115.80986,0.00028
2113.88114,0.00027
2111.95241,0.00019
2110.02369,0.00019
2108.09497,0.00024
2106.16624,0.00024
2104.23752,0.00016
2102.30880,0.00005
2100.38007,-0.00002
2098.45135,-0.00001
2096.52262,0.00001
2094.59390,0.00000
2092.66518,-0.00006
2090.73645,-0.00010
2088.80773,-0.00014
2086.87901,-0.00020
2084.95028,-0.00034
2083.02156,-0.00047
2081.09283,-0.00053
2079.16411,-0.00055
2077.23539,-0.00058
2075.30666,-0.00061
2073.37794,-0.00060
2071.44922,-0.00052
2069.52049,-0.00047
2067.59177,-0.00055
2065.66305,-0.00065
2063.73432,-0.00067
2061.80560,-0.00067
2059.87687,-0.00062
2057.94815,-0.00047
2056.01943,-0.00033
2054.09070,-0.00028
2052.16198,-0.00024
2050.23326,-0.00012
2048.30453,0.00009
2046.37581,0.00032
2044.44709,0.00050
2042.51836,0.00064
2040.58964,0.00078
2038.66091,0.00089
2036.73219,0.00095
2034.80347,0.00109
2032.87474,0.00137
2030.94602,0.00167
2029.01730,0.00187
2027.08857,0.00200
2025.15985,0.00215
2023.23112,0.00234
2021.30240,0.00255
2019.37368,0.00267
2017.44495,0.00270
2015.51623,0.00270
2013.58751,0.00275
2011.65878,0.00287
2009.73006,0.00307
2007.80134,0.00327
2005.87261,0.00338
2003.94389,0.00347
2002.01516,0.00358
2000.08644,0.00367
1998.15772,0.00368
1996.22899,0.00361
1994.30027,0.00357
1992.37155,0.00361
1990.44282,0.00366
1988.51410,0.00366
1986.58538,0.00361
1984.65665,0.00354
1982.72793,0.00346
1980.79920,0.00339
1978.87048,0.00328
1976.94176,0.00312
1975.01303,0.00297
1973.08431,0.00282
1971.15559,0.00264
1969.22686,0.00246
1967.29814,0.00240
1965.36941,0.00244
1963.44069,0.00237
1961.51197,0.00213
1959.58324,0.00186
1957.65452,0.00165
1955.72580,0.00148
1953.79707,0.00131
1951.86835,0.00116
1949.93963,0.00104
1948.01090,0.00091
1946.08218,0.00071
1944.15345,0.00052
1942.22473,0.00043
1940.29601,0.00038
1938.36728,0.00027
1936.43856,0.00013
1934.50984,0.00006
1932.58111,0.00010
1930.65239,0.00015
1928.72367,0.00011
1926.79494,0.00000
1924.86622,-0.00008
1922.93749,-0.00001
1921.00877,0.00014
1919.08005,0.00033
1917.15132,0.00067
1915.22260,0.00103
1913.29388,0.00128
1911.36515,0.00154
1909.43643,0.00195
1907.50770,0.00244
1905.57898,0.00291
1903.65026,0.00340
1901.72153,0.00389
1899.79281,0.00429
1897.86409,0.00465
1895.93536,0.00512
1894.00664,0.00562
1892.07792,0.00601
1890.14919,0.00642
1888.22047,0.00692
1886.29174,0.00736
1884.36302,0.00769
1882.43430,0.00794
1880.50557,0.00808
1878.57685,0.00817
1876.64813,0.00827
1874.71940,0.00833
1872.79068,0.00824
1870.86196,0.00806
1868.93323,0.00796
1867.00451,0.00786
1865.07578,0.00755
1863.14706,0.00710
1861.21834,0.00668
1859.28961,0.00626
1857.36089,0.00575
1855.43217,0.00517
1853.50344,0.00463
1851.57472,0.00414
1849.64599,0.00362
1847.71727,0.00309
1845.78855,0.00267
1843.85982,0.00240
1841.93110,0.00209
1840.00238,0.00164
1838.07365,0.00120
1836.14493,0.00087
1834.21621,0.00055
1832.28748,0.00022
1830.35876,0.00000
1828.43003,-0.00011
1826.50131,-0.00017
1824.57259,-0.00012
1822.64386,-0.00004
1820.71514,-0.00007
1818.78642,-0.00013
1816.85769,-0.00008
1814.92897,0.00000
1813.00025,-0.00009
1811.07152,-0.00002
1809.14280,0.00025
1807.21407,0.00051
1805.28535,0.00064
1803.35663,0.00081
1801.42790,0.00121
1799.49918,0.00183
1797.57046,0.00238
1795.64173,0.00279
1793.71301,0.00339
1791.78428,0.00441
1789.85556,0.00543
1787.92684,0.00612
1785.99811,0.00678
1784.06939,0.00766
1782.14067,0.00872
1780.21194,0.00984
1778.28322,0.01081
1776.35450,0.01146
1774.42577,0.01216
1772.49705,0.01334
1770.56832,0.01483
1768.63960,0.01609
1766.71088,0.01703
1764.78215,0.01779
1762.85343,0.01871
1760.92471,0.01989
1758.99598,0.02107
1757.06726,0.02225
1755.13854,0.02349
1753.20981,0.02468
1751.28109,0.02611
1749.35236,0.02798
1747.42364,0.02987
1745.49492,0.03158
1743.56619,0.03341
1741.63747,0.03557
1739.70875,0.03783
1737.78002,0.03966
1735.85130,0.04151
1733.92257,0.04443
1731.99385,0.04774
1730.06513,0.05031
1728.13640,0.05255
1726.20768,0.05489
1724.27896,0.05734
1722.35023,0.05952
1720.42151,0.06120
1718.49279,0.06315
1716.56406,0.06601
1714.63534,0.06889
1712.70661,0.07111
1710.77789,0.07294
1708.84917,0.07485
1706.92044,0.07724
1704.99172,0.07990
1703.06300,0.08223
1701.13427,0.08472
1699.20555,0.08795
1697.27683,0.09146
1695.34810,0.09508
1693.41938,0.09826
1691.49065,0.10077
1689.56193,0.10315
1687.63321,0.10552
1685.70448,0.10865
1683.77576,0.11343
1681.84704,0.11801
1679.91831,0.12097
1677.98959,0.12326
1676.06087,0.12595
1674.13214,0.12902
1672.20342,0.13191
1670.27469,0.13501
1668.34597,0.13840
1666.41725,0.14106
1664.48852,0.14318
1662.55980,0.14562
1660.63108,0.14795
1658.70235,0.14938
1656.77363,0.15003
1654.84490,0.15109
1652.91618,0.15344
1650.98746,0.15537
1649.05873,0.15595
1647.13001,0.15662
1645.20129,0.15782
1643.27256,0.15862
1641.34384,0.15882
1639.41512,0.15873
1637.48639,0.15872
1635.55767,0.15904
1633.62894,0.15909
1631.70022,0.15848
1629.77150,0.15749
1627.84277,0.15630
1625.91405,0.15478
1623.98533,0.15287
1622.05660,0.15076
1620.12788,0.14852
1618.19916,0.14592
1616.27043,0.14303
1614.34171,0.14034
1612.41298,0.13779
1610.48426,0.13504
1608.55554,0.13204
1606.62681,0.12902
1604.69809,0.12607
1602.76937,0.12318
1600.84064,0.12040
1598.91192,0.11779
1596.98319,0.11527
1595.05447,0.11276
1593.12575,0.11033
1591.19702,0.10806
1589.26830,0.10595
1587.33958,0.10390
1585.41085,0.10181
1583.48213,0.09977
1581.55341,0.09783
1579.62468,0.09588
1577.69596,0.09398
1575.76723,0.09236
1573.83851,0.09109
1571.90979,0.08985
1569.98106,0.08856
1568.05234,0.08734
1566.12362,0.08619
1564.19489,0.08498
1562.26617,0.08357
1560.33745,0.08205
1558.40872,0.08104
1556.48000,0.08060
1554.55127,0.08000
1552.62255,0.07904
1550.69383,0.07785
1548.76510,0.07657
1546.83638,0.07520
1544.90766,0.07362
1542.97893,0.07175
1541.05021,0.06984
1539.12148,0.06828
1537.19276,0.06694
1535.26404,0.06536
1533.33531,0.06352
1531.40659,0.06170
1529.47787,0.05986
1527.54914,0.05776
1525.62042,0.05547
1523.69170,0.05321
1521.76297,0.05108
1519.83425,0.04911
1517.90552,0.04723
1515.97680,0.04535
1514.04808,0.04337
1512.11935,0.04116
1510.19063,0.03870
1508.26191,0.03597
1506.33318,0.03318
1504.40446,0.03082
1502.47574,0.02878
1500.54701,0.02670
1498.61829,0.02464
1496.68956,0.02293
1494.76084,0.02163
1492.83212,0.02046
1490.90339,0.01943
1488.97467,0.01886
1487.04595,0.01885
1485.11722,0.01913
1483.18850,0.01958
1481.25977,0.02019
1479.33105,0.02086
1477.40233,0.02165
1475.47360,0.02300
1473.54488,0.02552
1471.61616,0.02891
1469.68743,0.03171
1467.75871,0.03348
1465.82999,0.03493
1463.90126,0.03633
1461.97254,0.03715
1460.04381,0.03744
1458.11509,0.03820
1456.18637,0.03971
1454.25764,0.04074
1452.32892,0.04106
1450.40020,0.04120
1448.47147,0.04143
1446.54275,0.04171
1444.61403,0.04190
1442.68530,0.04200
1440.75658,0.04203
1438.82785,0.04212
1436.89913,0.04260
1434.97041,0.04329
1433.04168,0.04370
1431.11296,0.04394
1429.18424,0.04430
1427.25551,0.04471
1425.32679,0.04510
1423.39806,0.04554
1421.46934,0.04611
1419.54062,0.04702
1417.61189,0.04823
1415.68317,0.04930
1413.75445,0.05017
1411.82572,0.05106
1409.89700,0.05195
1407.96828,0.05284
1406.03955,0.05382
1404.11083,0.05470
1402.18210,0.05496
1400.25338,0.05446
1398.32466,0.05338
1396.39593,0.05185
1394.46721,0.05004
1392.53849,0.04824
1390.60976,0.04662
1388.68104,0.04536
1386.75232,0.04461
1384.82359,0.04396
1382.89487,0.04280
1380.96614,0.04119
1379.03742,0.03954
1377.10870,0.03798
1375.17997,0.03643
1373.25125,0.03497
1371.32253,0.03365
1369.39380,0.03235
1367.46508,0.03102
1365.53635,0.02962
1363.60763,0.02823
1361.67891,0.02702
1359.75018,0.02601
1357.82146,0.02503
1355.89274,0.02408
1353.96401,0.02327
1352.03529,0.02261
1350.10657,0.02200
1348.17784,0.02140
1346.24912,0.02084
1344.32039,0.02024
1342.39167,0.01956
1340.46295,0.01892
1338.53422,0.01852
1336.60550,0.01829
1334.67678,0.01806
1332.74805,0.01778
1330.81933,0.01754
1328.89061,0.01747
1326.96188,0.01753
1325.03316,0.01756
1323.10443,0.01746
1321.17571,0.01726
1319.24699,0.01698
1317.31826,0.01662
1315.38954,0.01620
1313.46082,0.01583
1311.53209,0.01546
1309.60337,0.01495
1307.67464,0.01420
1305.74592,0.01301
1303.81720,0.01128
1301.88847,0.00986
1299.95975,0.00993
1298.03103,0.01119
1296.10230,0.01255
1294.17358,0.01397
1292.24486,0.01600
1290.31613,0.01875
1288.38741,0.02202
1286.45868,0.02564
1284.52996,0.02962
1282.60124,0.03395
1280.67251,0.03839
1278.74379,0.04267
1276.81507,0.04688
1274.88634,0.05132
1272.95762,0.05624
1271.02890,0.06172
1269.10017,0.06777
1267.17145,0.07443
1265.24272,0.08187
1263.31400,0.09013
1261.38528,0.09934
1259.45655,0.10964
1257.52783,0.12074
1255.59911,0.13225
1253.67038,0.14402
1251.74166,0.15582
1249.81294,0.16744
1247.88421,0.17860
1245.95549,0.18895
1244.02676,0.19839
1242.09804,0.20696
1240.16932,0.21471
1238.24059,0.22185
1236.31187,0.22835
1234.38315,0.23409
1232.45442,0.23916
1230.52570,0.24365
1228.59697,0.24762
1226.66825,0.25122
1224.73953,0.25457
1222.81080,0.25772
1220.88208,0.26065
1218.95336,0.26333
1217.02463,0.26580
1215.09591,0.26819
1213.16719,0.27057
1211.23846,0.27297
1209.30974,0.27534
1207.38101,0.27750
1205.45229,0.27928
1203.52357,0.28079
1201.59484,0.28226
1199.66612,0.28326
1197.73740,0.28317
1195.80867,0.28246
1193.87995,0.28195
1191.95123,0.28239
1190.02250,0.28405
1188.09378,0.28614
1186.16505,0.28817
1184.23633,0.29074
1182.30761,0.29401
1180.37888,0.29759
1178.45016,0.30133
1176.52144,0.30521
1174.59271,0.30927
1172.66399,0.31322
1170.73526,0.31660
1168.80654,0.31957
1166.87782,0.32267
1164.94909,0.32593
1163.02037,0.32896
1161.09165,0.33146
1159.16292,0.33354
1157.23420,0.33541
1155.30548,0.33711
1153.37675,0.33876
1151.44803,0.34046
1149.51930,0.34246
1147.59058,0.34486
1145.66186,0.34736
1143.73313,0.34974
1141.80441,0.35184
1139.87569,0.35371
1137.94696,0.35574
1136.01824,0.35786
1134.08952,0.35998
1132.16079,0.36251
1130.23207,0.36565
1128.30334,0.36932
1126.37462,0.37327
1124.44590,0.37707
1122.51717,0.38082
1120.58845,0.38502
1118.65973,0.38967
1116.73100,0.39472
1114.80228,0.40030
1112.87355,0.40685
1110.94483,0.41437
1109.01611,0.42180
1107.08738,0.42862
1105.15866,0.43529
1103.22994,0.44181
1101.30121,0.44761
1099.37249,0.45260
1097.44377,0.45661
1095.51504,0.45928
1093.58632,0.46110
1091.65759,0.46272
1089.72887,0.46410
1087.80015,0.46446
1085.87142,0.46365
1083.94270,0.46243
1082.01398,0.46087
1080.08525,0.45893
1078.15653,0.45673
1076.22781,0.45390
1074.29908,0.45044
1072.37036,0.44681
1070.44163,0.44288
1068.51291,0.43838
1066.58419,0.43371
1064.65546,0.42925
1062.72674,0.42462
1060.79802,0.41905
1058.86929,0.41253
1056.94057,0.40557
1055.01184,0.39840
1053.08312,0.39136
1051.15440,0.38466
1049.22567,0.37784
1047.29695,0.37038
1045.36823,0.36240
1043.43950,0.35428
1041.51078,0.34620
1039.58206,0.33803
1037.65333,0.32951
1035.72461,0.32112
1033.79588,0.31343
1031.86716,0.30595
1029.93844,0.29806
1028.00971,0.29012
1026.08099,0.28249
1024.15227,0.27493
1022.22354,0.26756
1020.29482,0.26078
1018.36610,0.25448
1016.43737,0.24824
1014.50865,0.24217
1012.57992,0.23654
1010.65120,0.23114
1008.72248,0.22583
1006.79375,0.22089
1004.86503,0.21630
1002.93631,0.21173
1001.00758,0.20720
999.07886,0.20276
997.15013,0.19829
995.22141,0.19405
993.29269,0.19035
991.36396,0.18692
989.43524,0.18359
987.50652,0.18042
985.57779,0.17739
983.64907,0.17454
981.72035,0.17212
979.79162,0.17031
977.86290,0.16894
975.93417,0.16763
974.00545,0.16647
972.07673,0.16598
970.14800,0.16601
968.21928,0.16596
966.29056,0.16578
964.36183,0.16568
962.43311,0.16562
960.50439,0.16551
958.57566,0.16534
956.64694,0.16514
954.71821,0.16468
952.78949,0.16378
950.86077,0.16257
948.93204,0.16097
947.00332,0.15901
945.07460,0.15704
943.14587,0.15526
941.21715,0.15355
939.28842,0.15164
937.35970,0.14946
935.43098,0.14712
933.50225,0.14445
931.57353,0.14129
929.64481,0.13815
927.71608,0.13523
925.78736,0.13207
923.85864,0.12870
921.92991,0.12530
920.00119,0.12150
918.07246,0.11723
916.14374,0.11304
914.21502,0.10920
912.28629,0.10551
910.35757,0.10169
908.42885,0.09760
906.50012,0.09341
904.57140,0.08941
902.64268,0.08581
900.71395,0.08247
898.78523,0.07911
896.85650,0.07554
894.92778,0.07167
892.99906,0.06782
891.07033,0.06441
889.14161,0.06123
887.21289,0.05801
885.28416,0.05486
883.35544,0.05187
881.42671,0.04909
879.49799,0.04643
877.56927,0.04358
875.64054,0.04084
873.71182,0.03861
871.78310,0.03668
869.85437,0.03490
867.92565,0.03323
865.99693,0.03158
864.06820,0.02988
862.13948,0.02790
860.21075,0.02592
858.28203,0.02455
856.35331,0.02360
854.42458,0.02255
852.49586,0.02168
850.56714,0.02163
848.63841,0.02224
846.70969,0.02312
844.78097,0.02434
842.85224,0.02604
840.92352,0.02826
838.99479,0.03068
837.06607,0.03324
835.13735,0.03650
833.20862,0.04037
831.27990,0.04417
829.35118,0.04796
827.42245,0.05187
825.49373,0.05547
823.56501,0.05888
821.63628,0.06271
819.70756,0.06661
817.77883,0.07001
815.85011,0.07324
813.92139,0.07650
811.99266,0.07934
810.06394,0.08177
808.13522,0.08434
806.20649,0.08734
804.27777,0.09026
802.34904,0.09228
800.42032,0.09317
798.49160,0.09308
796.56287,0.09229
794.63415,0.09153
792.70543,0.09099
790.77670,0.08977
788.84798,0.08736
786.91926,0.08407
784.99053,0.08027
783.06181,0.07649
781.13308,0.07315
779.20436,0.06959
777.27564,0.06497
775.34691,0.06001
773.41819,0.05587
771.48947,0.05239
769.56074,0.04913
767.63202,0.04650
765.70330,0.04491
763.77457,0.04414
761.84585,0.04371
759.91712,0.04324
757.98840,0.04281
756.05968,0.04250
754.13095,0.04219
752.20223,0.04186
750.27351,0.04140
748.34478,0.04078
746.41606,0.04031
744.48733,0.04012
742.55861,0.03994
740.62989,0.03946
738.70116,0.03914
736.77244,0.03923
734.84372,0.03911
732.91499,0.03861
730.98627,0.03838
729.05755,0.03864
727.12882,0.03912
725.20010,0.03976
723.27137,0.04053
721.34265,0.04112
719.41393,0.04099
717.48520,0.04040
715.55648,0.04013
713.62776,0.04043
711.69903,0.04098
709.77031,0.04165
707.84159,0.04256
705.91286,0.04367
703.98414,0.04470
702.05541,0.04568
700.12669,0.04684
698.19797,0.04802
696.26924,0.04888
694.34052,0.04918
692.41180,0.04899
690.48307,0.04873
688.55435,0.04871
686.62562,0.04888
684.69690,0.04909
682.76818,0.04918
680.83945,0.04909
678.91073,0.04880
676.98201,0.04865
675.05328,0.04911
673.12456,0.04992
671.19584,0.04982
669.26711,0.04878
667.33839,0.04897
665.40966,0.05050
663.48094,0.05150
661.55222,0.05187
659.62349,0.05230
657.69477,0.05292
655.76605,0.05375
653.83732,0.05505
651.90860,0.05686
649.97988,0.05851
648.05115,0.05943
646.12243,0.05987
644.19370,0.06047
642.26498,0.06163
640.33626,0.06342
638.40753,0.06556
636.47881,0.06753
634.55009,0.06878
632.62136,0.06932
630.69264,0.06968
628.76391,0.07015
626.83519,0.07060
624.90647,0.07133
622.97774,0.07288
621.04902,0.07494
619.12030,0.07690
617.19157,0.07817
615.26285,0.07909
613.33413,0.08041
611.40540,0.08182
609.47668,0.08258
607.54795,0.08288
605.61923,0.08372
603.69051,0.08524
601.76178,0.08667
599.83306,0.08777
597.90434,0.08906
595.97561,0.09067
594.04689,0.09219
592.11817,0.09357
590.18944,0.09479
588.26072,0.09579
586.33199,0.09700
584.40327,0.09843
582.47455,0.09967
580.54582,0.10079
578.61710,0.10166
576.68838,0.10191
574.75965,0.10171
572.83093,0.10165
570.90220,0.10246
568.97348,0.10381
567.04476,0.10431
565.11603,0.10392
563.18731,0.10419
561.25859,0.10560
559.32986,0.10668
557.40114,0.10651
555.47242,0.10645
553.54369,0.10730
551.61497,0.10837
549.68624,0.10945
547.75752,0.11044
545.82880,0.11086
543.90007,0.11081
541.97135,0.11035
540.04263,0.10941
538.11390,0.10864
536.18518,0.10840
534.25646,0.10811
532.32773,0.10760
530.39901,0.10762
528.47028,0.10820
526.54156,0.10893
524.61284,0.11016
522.68411,0.11100
520.75539,0.11081
518.82667,0.11088
516.89794,0.11120
514.96922,0.11126
513.04049,0.11235
511.11177,0.11471
509.18305,0.11727
507.25432,0.12055
505.32560,0.12606
503.39688,0.13345
501.46815,0.14051
499.53943,0.14626
497.61071,0.15227
495.68198,0.15961
493.75326,0.16733
491.82453,0.17447
489.89581,0.18176
487.96709,0.19014
486.03836,0.19757
484.10964,0.20122
482.18092,0.20403
480.25219,0.21072
478.32347,0.21962
476.39475,0.22884
474.46602,0.24060
472.53730,0.25381
470.60857,0.26246
468.67985,0.26348
466.75113,0.25938
464.82240,0.25444
462.89368,0.25161
460.96496,0.25194
459.03623,0.25395
457.10751,0.25399
455.17878,0.25083
453.25006,0.24614
451.32134,0.23881
449.39261,0.22798
447.46389,0.21779
445.53517,0.21145
443.60644,0.20639
441.67772,0.19898
439.74900,0.18965
437.82027,0.18067
435.89155,0.17233
433.96282,0.16479
432.03410,0.15934
430.10538,0.15615
428.17665,0.15182
426.24793,0.14255
424.31921,0.13139
422.39048,0.12427
420.46176,0.11931
418.53304,0.11224
416.60431,0.10487
414.67559,0.09754
412.74686,0.08861
410.81814,0.07969
408.88942,0.07416
406.96069,0.07431
405.03197,0.07842
403.10325,0.08178
401.17452,0.08262
399.24580,0.08094
397.31708,0.07346
395.38835,0.06033
393.45963,0.04389
391.53090,0.02407
389.60218,0.00897
387.67346,0.01183
385.74473,0.03293
383.81601,0.05417
381.88729,0.05486
379.95856,0.03552
378.02984,0.01453
376.10111,0.00445
374.17239,0.00000
372.24367,-0.02240
370.31494,-0.02183
368.38622,0.00000
