3996.31543,0.00000
3994.38671,0.00017
3992.45799,0.00023
3990.52926,0.00018
3988.60054,0.00013
3986.67182,0.00012
3984.74309,0.00010
3982.81437,0.00006
3980.88564,0.00011
3978.95692,0.00026
3977.02820,0.00042
3975.09947,0.00049
3973.17075,0.00050
3971.24203,0.00058
3969.31330,0.00073
3967.38458,0.00081
3965.45586,0.00075
3963.52713,0.00066
3961.59841,0.00069
3959.66968,0.00082
3957.74096,0.00090
3955.81224,0.00083
3953.88351,0.00065
3951.95479,0.00051
3950.02607,0.00055
3948.09734,0.00067
3946.16862,0.00077
3944.23990,0.00088
3942.31117,0.00104
3940.38245,0.00106
3938.45372,0.00084
3936.52500,0.00053
3934.59628,0.00048
3932.66755,0.00085
3930.73883,0.00126
3928.81011,0.00122
3926.88138,0.00097
3924.95266,0.00094
3923.02393,0.00101
3921.09521,0.00098
3919.16649,0.00109
3917.23776,0.00139
3915.30904,0.00154
3913.38032,0.00133
3911.45159,0.00096
3909.52287,0.00070
3907.59415,0.00071
3905.66542,0.00104
3903.73670,0.00148
3901.80797,0.00173
3899.87925,0.00169
3897.95053,0.00129
3896.02180,0.00071
3894.09308,0.00033
3892.16436,0.00033
3890.23563,0.00041
3888.30691,0.00036
3886.37819,0.00043
3884.44946,0.00068
3882.52074,0.00086
3880.59201,0.00096
3878.66329,0.00090
3876.73457,0.00063
3874.80584,0.00054
3872.87712,0.00090
3870.94840,0.00144
3869.01967,0.00160
3867.09095,0.00127
3865.16222,0.00107
3863.23350,0.00118
3861.30478,0.00100
3859.37605,0.00046
3857.44733,0.00000
3855.51861,0.00007
3853.58988,0.00096
3851.66116,0.00164
3849.73244,0.00129
3847.80371,0.00046
3845.87499,-0.00008
3843.94626,-0.00002
3842.01754,0.00044
3840.08882,0.00093
3838.16009,0.00126
3836.23137,0.00126
3834.30265,0.00101
3832.37392,0.00087
3830.44520,0.00084
3828.51648,0.00071
3826.58775,0.00046
3824.65903,0.00022
3822.73030,0.00041
3820.80158,0.00122
3818.87286,0.00191
3816.94413,0.00213
3815.01541,0.00206
3813.08669,0.00162
3811.15796,0.00102
3809.22924,0.00083
3807.30052,0.00128
3805.37179,0.00189
3803.44307,0.00232
3801.51434,0.00271
3799.58562,0.00285
3797.65690,0.00270
3795.72817,0.00270
3793.79945,0.00278
3791.87073,0.00272
3789.94200,0.00263
3788.01328,0.00269
3786.08455,0.00302
3784.15583,0.00348
3782.22711,0.00377
3780.29838,0.00400
3778.36966,0.00436
3776.44094,0.00468
3774.51221,0.00485
3772.58349,0.00506
3770.65477,0.00550
3768.72604,0.00612
3766.79732,0.00672
3764.86859,0.00708
3762.93987,0.00720
3761.01115,0.00748
3759.08242,0.00814
3757.15370,0.00866
3755.22498,0.00888
3753.29625,0.00950
3751.36753,0.01096
3749.43881,0.01226
3747.51008,0.01276
3745.58136,0.01348
3743.65263,0.01481
3741.72391,0.01578
3739.79519,0.01637
3737.86646,0.01758
3735.93774,0.01987
3734.00902,0.02242
3732.08029,0.02434
3730.15157,0.02573
3728.22284,0.02723
3726.29412,0.02921
3724.36540,0.03155
3722.43667,0.03404
3720.50795,0.03666
3718.57923,0.03925
3716.65050,0.04156
3714.72178,0.04397
3712.79306,0.04757
3710.86433,0.05242
3708.93561,0.05670
3707.00688,0.05958
3705.07816,0.06215
3703.14944,0.06566
3701.22071,0.07019
3699.29199,0.07443
3697.36327,0.07779
3695.43454,0.08071
3693.50582,0.08367
3691.57710,0.08760
3689.64837,0.09318
3687.71965,0.09884
3685.79092,0.10283
3683.86220,0.10587
3681.93348,0.10928
3680.00475,0.11331
3678.07603,0.11800
3676.14731,0.12398
3674.21858,0.13009
3672.28986,0.13481
3670.36113,0.13989
3668.43241,0.14553
3666.50369,0.14965
3664.57496,0.15276
3662.64624,0.15621
3660.71752,0.15992
3658.78879,0.16370
3656.86007,0.16796
3654.93135,0.17207
3653.00262,0.17497
3651.07390,0.17805
3649.14517,0.18302
3647.21645,0.18818
3645.28773,0.19145
3643.35900,0.19361
3641.43028,0.19598
3639.50156,0.19881
3637.57283,0.20171
3635.64411,0.20446
3633.71539,0.20693
3631.78666,0.20922
3629.85794,0.21238
3627.92921,0.21655
3626.00049,0.21962
3624.07177,0.22122
3622.14304,0.22267
3620.21432,0.22495
3618.28560,0.22775
3616.35687,0.23003
3614.42815,0.23179
3612.49942,0.23362
3610.57070,0.23572
3608.64198,0.23817
3606.71325,0.24053
3604.78453,0.24225
3602.85581,0.24379
3600.92708,0.24565
3598.99836,0.24762
3597.06964,0.24959
3595.14091,0.25177
3593.21219,0.25376
3591.28346,0.25495
3589.35474,0.25608
3587.42602,0.25824
3585.49729,0.26072
3583.56857,0.26249
3581.63985,0.26391
3579.71112,0.26540
3577.78240,0.26680
3575.85368,0.26806
3573.92495,0.26935
3571.99623,0.27070
3570.06750,0.27217
3568.13878,0.27409
3566.21006,0.27633
3564.28133,0.27810
3562.35261,0.27934
3560.42389,0.28045
3558.49516,0.28150
3556.56644,0.28240
3554.63771,0.28330
3552.70899,0.28446
3550.78027,0.28574
3548.85154,0.28689
3546.92282,0.28808
3544.99410,0.28951
3543.06537,0.29094
3541.13665,0.29217
3539.20793,0.29330
3537.27920,0.29450
3535.35048,0.29571
3533.42175,0.29661
3531.49303,0.29725
3529.56431,0.29806
3527.63558,0.29921
3525.70686,0.30053
3523.77814,0.30197
3521.84941,0.30339
3519.92069,0.30449
3517.99197,0.30519
3516.06324,0.30573
3514.13452,0.30641
3512.20579,0.30739
3510.27707,0.30860
3508.34835,0.30963
3506.41962,0.31028
3504.49090,0.31091
3502.56218,0.31178
3500.63345,0.31273
3498.70473,0.31375
3496.77600,0.31494
3494.84728,0.31605
3492.91856,0.31673
3490.98983,0.31719
3489.06111,0.31788
3487.13239,0.31878
3485.20366,0.31950
3483.27494,0.32013
3481.34622,0.32087
3479.41749,0.32149
3477.48877,0.32192
3475.56004,0.32241
3473.63132,0.32307
3471.70260,0.32376
3469.77387,0.32434
3467.84515,0.32488
3465.91643,0.32550
3463.98770,0.32609
3462.05898,0.32655
3460.13026,0.32688
3458.20153,0.32723
3456.27281,0.32783
3454.34408,0.32861
3452.41536,0.32919
3450.48664,0.32946
3448.55791,0.32976
3446.62919,0.33025
3444.70047,0.33056
3442.77174,0.33065
3440.84302,0.33100
3438.91429,0.33167
3436.98557,0.33235
3435.05685,0.33279
3433.12812,0.33312
3431.19940,0.33361
3429.27068,0.33406
3427.34195,0.33421
3425.41323,0.33414
3423.48451,0.33417
3421.55578,0.33451
3419.62706,0.33497
3417.69833,0.33522
3415.76961,0.33538
3413.84089,0.33564
3411.91216,0.33581
3409.98344,0.33576
3408.05472,0.33576
3406.12599,0.33601
3404.19727,0.33629
3402.26855,0.33630
3400.33982,0.33605
3398.41110,0.33591
3396.48237,0.33610
3394.55365,0.33615
3392.62493,0.33607
3390.69620,0.33601
3388.76748,0.33586
3386.83876,0.33562
3384.91003,0.33546
3382.98131,0.33538
3381.05259,0.33536
3379.12386,0.33540
3377.19514,0.33538
3375.26641,0.33525
3373.33769,0.33516
3371.40897,0.33516
3369.48024,0.33499
3367.55152,0.33457
3365.62280,0.33418
3363.69407,0.33391
3361.76535,0.33361
3359.83662,0.33325
3357.90790,0.33295
3355.97918,0.33287
3354.05045,0.33296
3352.12173,0.33290
3350.19301,0.33262
3348.26428,0.33231
3346.33556,0.33203
3344.40684,0.33160
3342.47811,0.33105
3340.54939,0.33065
3338.62066,0.33050
3336.69194,0.33040
3334.76322,0.33018
3332.83449,0.32974
3330.90577,0.32924
3328.97705,0.32886
3327.04832,0.32849
3325.11960,0.32811
3323.19088,0.32783
3321.26215,0.32752
3319.33343,0.32717
3317.40470,0.32685
3315.47598,0.32634
3313.54726,0.32565
3311.61853,0.32521
3309.68981,0.32511
3307.76109,0.32503
3305.83236,0.32482
3303.90364,0.32442
3301.97491,0.32388
3300.04619,0.32347
3298.11747,0.32334
3296.18874,0.32314
3294.26002,0.32266
3292.33130,0.32216
3290.40257,0.32174
3288.47385,0.32128
3286.54513,0.32093
3284.61640,0.32066
3282.68768,0.32035
3280.75895,0.32008
3278.83023,0.31988
3276.90151,0.31950
3274.97278,0.31891
3273.04406,0.31832
3271.11534,0.31765
3269.18661,0.31688
3267.25789,0.31617
3265.32917,0.31566
3263.40044,0.31540
3261.47172,0.31517
3259.54299,0.31466
3257.61427,0.31395
3255.68555,0.31330
3253.75682,0.31282
3251.82810,0.31234
3249.89938,0.31172
3247.97065,0.31098
3246.04193,0.31033
3244.11320,0.30988
3242.18448,0.30937
3240.25576,0.30869
3238.32703,0.30807
3236.39831,0.30765
3234.46959,0.30720
3232.54086,0.30654
3230.61214,0.30567
3228.68342,0.30478
3226.75469,0.30408
3224.82597,0.30351
3222.89724,0.30283
3220.96852,0.30200
3219.03980,0.30122
3217.11107,0.30061
3215.18235,0.30003
3213.25363,0.29925
3211.32490,0.29831
3209.39618,0.29746
3207.46746,0.29681
3205.53873,0.29623
3203.61001,0.29541
3201.68128,0.29436
3199.75256,0.29337
3197.82384,0.29254
3195.89511,0.29174
3193.96639,0.29095
3192.03767,0.29025
3190.10894,0.28958
3188.18022,0.28867
3186.25149,0.28747
3184.32277,0.28637
3182.39405,0.28547
3180.46532,0.28450
3178.53660,0.28352
3176.60788,0.28269
3174.67915,0.28185
3172.75043,0.28087
3170.82171,0.27981
3168.89298,0.27873
3166.96426,0.27767
3165.03553,0.27677
3163.10681,0.27599
3161.17809,0.27508
3159.24936,0.27402
3157.32064,0.27299
3155.39192,0.27207
3153.46319,0.27121
3151.53447,0.27024
3149.60575,0.26911
3147.67702,0.26806
3145.74830,0.26716
3143.81957,0.26625
3141.89085,0.26531
3139.96213,0.26432
3138.03340,0.26318
3136.10468,0.26201
3134.17596,0.26103
3132.24723,0.26012
3130.31851,0.25909
3128.38978,0.25800
3126.46106,0.25696
3124.53234,0.25591
3122.60361,0.25485
3120.67489,0.25383
3118.74617,0.25281
3116.81744,0.25178
3114.88872,0.25072
3112.96000,0.24968
3111.03127,0.24875
3109.10255,0.24785
3107.17382,0.24678
3105.24510,0.24556
3103.31638,0.24435
3101.38765,0.24325
3099.45893,0.24225
3097.53021,0.24123
3095.60148,0.24015
3093.67276,0.23913
3091.74404,0.23811
3089.81531,0.23698
3087.88659,0.23579
3085.95786,0.23468
3084.02914,0.23362
3082.10042,0.23246
3080.17169,0.23124
3078.24297,0.23006
3076.31425,0.22895
3074.38552,0.22781
3072.45680,0.22656
3070.52807,0.22527
3068.59935,0.22406
3066.67063,0.22290
3064.74190,0.22174
3062.81318,0.22059
3060.88446,0.21950
3058.95573,0.21847
3057.02701,0.21741
3055.09829,0.21624
3053.16956,0.21504
3051.24084,0.21390
3049.31211,0.21273
3047.38339,0.21153
3045.45467,0.21038
3043.52594,0.20924
3041.59722,0.20816
3039.66850,0.20721
3037.73977,0.20625
3035.81105,0.20518
3033.88233,0.20404
3031.95360,0.20290
3030.02488,0.20183
3028.09615,0.20083
3026.16743,0.19990
3024.23871,0.19902
3022.30998,0.19810
3020.38126,0.19708
3018.45254,0.19598
3016.52381,0.19492
3014.59509,0.19405
3012.66636,0.19337
3010.73764,0.19266
3008.80892,0.19174
3006.88019,0.19070
3004.95147,0.18966
3003.02275,0.18876
3001.09402,0.18806
2999.16530,0.18748
2997.23658,0.18674
2995.30785,0.18593
2993.37913,0.18529
2991.45040,0.18484
2989.52168,0.18438
2987.59296,0.18389
2985.66423,0.18356
2983.73551,0.18339
2981.80679,0.18331
2979.87806,0.18330
2977.94934,0.18336
2976.02062,0.18348
2974.09189,0.18369
2972.16317,0.18404
2970.23444,0.18451
2968.30572,0.18507
2966.37700,0.18566
2964.44827,0.18619
2962.51955,0.18653
2960.59083,0.18654
2958.66210,0.18632
2956.73338,0.18603
2954.80466,0.18562
2952.87593,0.18501
2950.94721,0.18439
2949.01848,0.18412
2947.08976,0.18432
2945.16104,0.18491
2943.23231,0.18576
2941.30359,0.18683
2939.37487,0.18821
2937.44614,0.18989
2935.51742,0.19163
2933.58869,0.19335
2931.65997,0.19504
2929.73125,0.19647
2927.80252,0.19734
2925.87380,0.19763
2923.94508,0.19724
2922.01635,0.19585
2920.08763,0.19345
2918.15891,0.19031
2916.23018,0.18655
2914.30146,0.18230
2912.37273,0.17807
2910.44401,0.17439
2908.51529,0.17131
2906.58656,0.16865
2904.65784,0.16628
2902.72912,0.16408
2900.80039,0.16198
2898.87167,0.16005
2896.94295,0.15828
2895.01422,0.15652
2893.08550,0.15478
2891.15677,0.15313
2889.22805,0.15154
2887.29933,0.15004
2885.37060,0.14871
2883.44188,0.14760
2881.51316,0.14668
2879.58443,0.14578
2877.65571,0.14495
2875.72698,0.14434
2873.79826,0.14384
2871.86954,0.14324
2869.94081,0.14252
2868.01209,0.14187
2866.08337,0.14155
2864.15464,0.14170
2862.22592,0.14238
2860.29720,0.14356
2858.36847,0.14495
2856.43975,0.14612
2854.51102,0.14665
2852.58230,0.14603
2850.65358,0.14374
2848.72485,0.13971
2846.79613,0.13469
2844.86741,0.12971
2842.93868,0.12537
2841.00996,0.12184
2839.08124,0.11896
2837.15251,0.11652
2835.22379,0.11448
2833.29506,0.11276
2831.36634,0.11122
2829.43762,0.10981
2827.50889,0.10852
2825.58017,0.10727
2823.65145,0.10603
2821.72272,0.10482
2819.79400,0.10368
2817.86527,0.10256
2815.93655,0.10149
2814.00783,0.10048
2812.07910,0.09949
2810.15038,0.09852
2808.22166,0.09755
2806.29293,0.09650
2804.36421,0.09550
2802.43549,0.09467
2800.50676,0.09390
2798.57804,0.09310
2796.64931,0.09231
2794.72059,0.09153
2792.79187,0.09070
2790.86314,0.08989
2788.93442,0.08906
2787.00570,0.08816
2785.07697,0.08722
2783.14825,0.08632
2781.21953,0.08552
2779.29080,0.08478
2777.36208,0.08403
2775.43335,0.08322
2773.50463,0.08235
2771.57591,0.08147
2769.64718,0.08070
2767.71846,0.08005
2765.78974,0.07936
2763.86101,0.07857
2761.93229,0.07783
2760.00356,0.07716
2758.07484,0.07638
2756.14612,0.07558
2754.21739,0.07493
2752.28867,0.07435
2750.35995,0.07372
2748.43122,0.07308
2746.50250,0.07242
2744.57378,0.07173
2742.64505,0.07099
2740.71633,0.07026
2738.78760,0.06960
2736.85888,0.06898
2734.93016,0.06829
2733.00143,0.06756
2731.07271,0.06690
2729.14399,0.06632
2727.21526,0.06581
2725.28654,0.06528
2723.35782,0.06461
2721.42909,0.06384
2719.50037,0.06306
2717.57164,0.06237
2715.64292,0.06174
2713.71420,0.06106
2711.78547,0.06035
2709.85675,0.05966
2707.92803,0.05898
2705.99930,0.05836
2704.07058,0.05783
2702.14185,0.05734
2700.21313,0.05681
2698.28441,0.05616
2696.35568,0.05544
2694.42696,0.05483
2692.49824,0.05435
2690.56951,0.05379
2688.64079,0.05314
2686.71207,0.05257
2684.78334,0.05209
2682.85462,0.05165
2680.92589,0.05118
2678.99717,0.05063
2677.06845,0.05007
2675.13972,0.04957
2673.21100,0.04901
2671.28228,0.04841
2669.35355,0.04787
2667.42483,0.04738
2665.49611,0.04680
2663.56738,0.04621
2661.63866,0.04569
2659.70993,0.04517
2657.78121,0.04464
2655.85249,0.04416
2653.92376,0.04373
2651.99504,0.04325
2650.06632,0.04275
2648.13759,0.04229
2646.20887,0.04178
2644.28014,0.04120
2642.35142,0.04067
2640.42270,0.04022
2638.49397,0.03976
2636.56525,0.03934
2634.63653,0.03901
2632.70780,0.03861
2630.77908,0.03811
2628.85036,0.03764
2626.92163,0.03727
2624.99291,0.03690
2623.06418,0.03649
2621.13546,0.03602
2619.20674,0.03551
2617.27801,0.03501
2615.34929,0.03456
2613.42057,0.03409
2611.49184,0.03366
2609.56312,0.03324
2607.63440,0.03282
2605.70567,0.03245
2603.77695,0.03210
2601.84822,0.03173
2599.91950,0.03139
2597.99078,0.03110
2596.06205,0.03081
2594.13333,0.03046
2592.20461,0.03000
2590.27588,0.02950
2588.34716,0.02913
2586.41843,0.02886
2584.48971,0.02851
2582.56099,0.02811
2580.63226,0.02775
2578.70354,0.02742
2576.77482,0.02712
2574.84609,0.02684
2572.91737,0.02659
2570.98865,0.02631
2569.05992,0.02598
2567.13120,0.02562
2565.20247,0.02528
2563.27375,0.02499
2561.34503,0.02480
2559.41630,0.02464
2557.48758,0.02441
2555.55886,0.02412
2553.63013,0.02384
2551.70141,0.02359
2549.77269,0.02332
2547.84396,0.02296
2545.91524,0.02255
2543.98651,0.02225
2542.05779,0.02207
2540.12907,0.02191
2538.20034,0.02172
2536.27162,0.02151
2534.34290,0.02125
2532.41417,0.02098
2530.48545,0.02074
2528.55673,0.02052
2526.62800,0.02028
2524.69928,0.02000
2522.77055,0.01976
2520.84183,0.01959
2518.91311,0.01935
2516.98438,0.01909
2515.05566,0.01887
2513.12694,0.01860
2511.19821,0.01822
2509.26949,0.01787
2507.34076,0.01759
2505.41204,0.01737
2503.48332,0.01724
2501.55459,0.01715
2499.62587,0.01702
2497.69715,0.01685
2495.76842,0.01663
2493.83970,0.01635
2491.91098,0.01609
2489.98225,0.01591
2488.05353,0.01574
2486.12480,0.01555
2484.19608,0.01536
2482.26736,0.01511
2480.33863,0.01478
2478.40991,0.01445
2476.48119,0.01421
2474.55246,0.01401
2472.62374,0.01380
2470.69502,0.01357
2468.76629,0.01332
2466.83757,0.01311
2464.90884,0.01298
2462.98012,0.01287
2461.05140,0.01273
2459.12267,0.01259
2457.19395,0.01244
2455.26523,0.01221
2453.33650,0.01192
2451.40778,0.01165
2449.47905,0.01146
2447.55033,0.01127
2445.62161,0.01104
2443.69288,0.01081
2441.76416,0.01058
2439.83544,0.01038
2437.90671,0.01024
2435.97799,0.01010
2434.04927,0.00993
2432.12054,0.00972
2430.19182,0.00948
2428.26309,0.00928
2426.33437,0.00911
2424.40565,0.00888
2422.47692,0.00862
2420.54820,0.00843
2418.61948,0.00829
2416.69075,0.00816
2414.76203,0.00805
2412.83331,0.00793
2410.90458,0.00773
2408.97586,0.00752
2407.04713,0.00733
2405.11841,0.00713
2403.18969,0.00692
2401.26096,0.00674
2399.33224,0.00665
2397.40352,0.00657
2395.47479,0.00640
2393.54607,0.00622
2391.61734,0.00610
2389.68862,0.00600
2387.75990,0.00587
2385.83117,0.00575
2383.90245,0.00571
2381.97373,0.00567
2380.04500,0.00556
2378.11628,0.00544
2376.18756,0.00537
2374.25883,0.00539
2372.33011,0.00551
2370.40138,0.00560
2368.47266,0.00557
2366.54394,0.00557
2364.61521,0.00568
2362.68649,0.00577
2360.75777,0.00577
2358.82904,0.00565
2356.90032,0.00539
2354.97160,0.00513
2353.04287,0.00512
2351.11415,0.00539
2349.18542,0.00535
2347.25670,0.00467
2345.32798,0.00397
2343.39925,0.00391
2341.47053,0.00421
2339.54181,0.00447
2337.61308,0.00450
2335.68436,0.00432
2333.75563,0.00412
2331.82691,0.00403
2329.89819,0.00400
2327.96946,0.00393
2326.04074,0.00380
2324.11202,0.00368
2322.18329,0.00354
2320.25457,0.00333
2318.32585,0.00312
2316.39712,0.00294
2314.46840,0.00277
2312.53967,0.00265
2310.61095,0.00256
2308.68223,0.00249
2306.75350,0.00243
2304.82478,0.00235
2302.89606,0.00220
2300.96733,0.00204
2299.03861,0.00193
2297.10989,0.00189
2295.18116,0.00188
2293.25244,0.00181
2291.32371,0.00171
2289.39499,0.00163
2287.46627,0.00162
2285.53754,0.00165
2283.60882,0.00166
2281.68010,0.00167
2279.75137,0.00166
2277.82265,0.00161
2275.89392,0.00150
2273.96520,0.00140
2272.03648,0.00136
2270.10775,0.00135
2268.17903,0.00132
2266.25031,0.00129
2264.32158,0.00128
2262.39286,0.00126
2260.46414,0.00123
2258.53541,0.00121
2256.60669,0.00121
2254.67796,0.00123
2252.74924,0.00119
2250.82052,0.00103
2248.89179,0.00079
2246.96307,0.00069
2245.03435,0.00066
2243.10562,0.00067
2241.17690,0.00070
2239.24818,0.00074
2237.31945,0.00076
2235.39073,0.00076
2233.46200,0.00072
2231.53328,0.00068
2229.60456,0.00068
2227.67583,0.00072
2225.74711,0.00075
2223.81839,0.00071
2221.88966,0.00066
2219.96094,0.00061
2218.03221,0.00058
2216.10349,0.00056
2214.17477,0.00049
2212.24604,0.00036
2210.31732,0.00030
2208.38860,0.00034
2206.45987,0.00040
2204.53115,0.00045
2202.60243,0.00047
2200.67370,0.00047
2198.74498,0.00046
2196.81625,0.00039
2194.88753,0.00031
2192.95881,0.00031
2191.03008,0.00040
2189.10136,0.00046
2187.17264,0.00048
2185.24391,0.00051
2183.31519,0.00050
2181.38647,0.00048
2179.45774,0.00048
2177.52902,0.00050
2175.60029,0.00047
2173.67157,0.00037
2171.74285,0.00028
2169.81412,0.00026
2167.88540,0.00037
2165.95668,0.00050
2164.02795,0.00054
2162.09923,0.00052
2160.17050,0.00050
2158.24178,0.00050
2156.31306,0.00048
2154.38433,0.00046
2152.45561,0.00050
2150.52689,0.00054
2148.59816,0.00051
2146.66944,0.00047
2144.74072,0.00051
2142.81199,0.00057
2140.88327,0.00054
2138.95454,0.00043
2137.02582,0.00036
2135.09710,0.00038
2133.16837,0.00043
2131.23965,0.00042
2129.31093,0.00043
2127.38220,0.00043
2125.45348,0.00037
2123.52476,0.00037
2121.59603,0.00045
2119.66731,0.00048
2117.73858,0.00046
2115.80986,0.00043
2113.88114,0.00037
2111.95241,0.00031
2110.02369,0.00026
2108.09497,0.00026
2106.16624,0.00030
2104.23752,0.00030
2102.30880,0.00023
2100.38007,0.00010
2098.45135,0.00002
2096.52262,0.00001
2094.59390,0.00000
2092.66518,-0.00005
2090.73645,-0.00004
2088.80773,-0.00003
2086.87901,-0.00005
2084.95028,-0.00007
2083.02156,-0.00010
2081.09283,-0.00014
2079.16411,-0.00017
2077.23539,-0.00017
2075.30666,-0.00016
2073.37794,-0.00016
2071.44922,-0.00016
2069.52049,-0.00014
2067.59177,-0.00014
2065.66305,-0.00014
2063.73432,-0.00009
2061.80560,0.00001
2059.87687,0.00015
2057.94815,0.00026
2056.01943,0.00034
2054.09070,0.00042
2052.16198,0.00051
2050.23326,0.00063
2048.30453,0.00081
2046.37581,0.00103
2044.44709,0.00120
2042.51836,0.00135
2040.58964,0.00152
2038.66091,0.00173
2036.73219,0.00199
2034.80347,0.00225
2032.87474,0.00246
2030.94602,0.00266
2029.01730,0.00283
2027.08857,0.00298
2025.15985,0.00313
2023.23112,0.00328
2021.30240,0.00338
2019.37368,0.00349
2017.44495,0.00365
2015.51623,0.00380
2013.58751,0.00387
2011.65878,0.00390
2009.73006,0.00396
2007.80134,0.00407
2005.87261,0.00420
2003.94389,0.00431
2002.01516,0.00435
2000.08644,0.00436
1998.15772,0.00436
1996.22899,0.00431
1994.30027,0.00426
1992.37155,0.00429
1990.44282,0.00437
1988.51410,0.00436
1986.58538,0.00426
1984.65665,0.00414
1982.72793,0.00404
1980.79920,0.00397
1978.87048,0.00388
1976.94176,0.00376
1975.01303,0.00358
1973.08431,0.00334
1971.15559,0.00312
1969.22686,0.00296
1967.29814,0.00283
1965.36941,0.00268
1963.44069,0.00251
1961.51197,0.00234
1959.58324,0.00214
1957.65452,0.00189
1955.72580,0.00166
1953.79707,0.00148
1951.86835,0.00128
1949.93963,0.00103
1948.01090,0.00079
1946.08218,0.00066
1944.15345,0.00063
1942.22473,0.00065
1940.29601,0.00058
1938.36728,0.00037
1936.43856,0.00014
1934.50984,0.00000
1932.58111,-0.00004
1930.65239,-0.00000
1928.72367,0.00004
1926.79494,0.00008
1924.86622,0.00016
1922.93749,0.00029
1921.00877,0.00036
1919.08005,0.00044
1917.15132,0.00062
1915.22260,0.00084
1913.29388,0.00110
1911.36515,0.00152
1909.43643,0.00206
1907.50770,0.00252
1905.57898,0.00289
1903.65026,0.00331
1901.72153,0.00383
1899.79281,0.00432
1897.86409,0.00481
1895.93536,0.00537
1894.00664,0.00592
1892.07792,0.00639
1890.14919,0.00687
1888.22047,0.00732
1886.29174,0.00766
1884.36302,0.00794
1882.43430,0.00818
1880.50557,0.00837
1878.57685,0.00852
1876.64813,0.00865
1874.71940,0.00868
1872.79068,0.00861
1870.86196,0.00858
1868.93323,0.00865
1867.00451,0.00854
1865.07578,0.00809
1863.14706,0.00753
1861.21834,0.00707
1859.28961,0.00666
1857.36089,0.00619
1855.43217,0.00563
1853.50344,0.00502
1851.57472,0.00445
1849.64599,0.00394
1847.71727,0.00349
1845.78855,0.00307
1843.85982,0.00265
1841.93110,0.00211
1840.00238,0.00149
1838.07365,0.00097
1836.14493,0.00063
1834.21621,0.00041
1832.28748,0.00033
1830.35876,0.00035
1828.43003,0.00030
1826.50131,0.00016
1824.57259,0.00009
1822.64386,0.00005
1820.71514,-0.00006
1818.78642,-0.00014
1816.85769,-0.00009
1814.92897,0.00000
1813.00025,-0.00016
1811.07152,-0.00019
1809.14280,-0.00012
1807.21407,-0.00006
1805.28535,-0.00005
1803.35663,0.00000
1801.42790,0.00023
1799.49918,0.00055
1797.57046,0.00075
1795.64173,0.00093
1793.71301,0.00143
1791.78428,0.00229
1789.85556,0.00296
1787.92684,0.00329
1785.99811,0.00369
1784.06939,0.00442
1782.14067,0.00536
1780.21194,0.00631
1778.28322,0.00703
1776.35450,0.00757
1774.42577,0.00839
1772.49705,0.00973
1770.56832,0.01100
1768.63960,0.01179
1766.71088,0.01235
1764.78215,0.01294
1762.85343,0.01380
1760.92471,0.01492
1758.99598,0.01601
1757.06726,0.01708
1755.13854,0.01808
1753.20981,0.01908
1751.28109,0.02059
1749.35236,0.02268
1747.42364,0.02468
1745.49492,0.02633
1743.56619,0.02797
1741.63747,0.02987
1739.70875,0.03190
1737.78002,0.03362
1735.85130,0.03537
1733.92257,0.03801
1731.99385,0.04075
1730.06513,0.04259
1728.13640,0.04394
1726.20768,0.04537
1724.27896,0.04703
1722.35023,0.04868
1720.42151,0.05032
1718.49279,0.05267
1716.56406,0.05581
1714.63534,0.05831
1712.70661,0.05972
1710.77789,0.06092
1708.84917,0.06263
1706.92044,0.06508
1704.99172,0.06782
1703.06300,0.07026
1701.13427,0.07322
1699.20555,0.07737
1697.27683,0.08189
1695.34810,0.08621
1693.41938,0.08972
1691.49065,0.09265
1689.56193,0.09581
1687.63321,0.09917
1685.70448,0.10350
1683.77576,0.10957
1681.84704,0.11487
1679.91831,0.11814
1677.98959,0.12088
1676.06087,0.12438
1674.13214,0.12847
1672.20342,0.13238
1670.27469,0.13650
1668.34597,0.14053
1666.41725,0.14326
1664.48852,0.14551
1662.55980,0.14834
1660.63108,0.15094
1658.70235,0.15244
1656.77363,0.15344
1654.84490,0.15522
1652.91618,0.15806
1650.98746,0.15980
1649.05873,0.16034
1647.13001,0.16133
1645.20129,0.16247
1643.27256,0.16274
1641.34384,0.16261
1639.41512,0.16261
1637.48639,0.16300
1635.55767,0.16367
1633.62894,0.16375
1631.70022,0.16305
1629.77150,0.16206
1627.84277,0.16090
1625.91405,0.15944
1623.98533,0.15760
1622.05660,0.15544
1620.12788,0.15314
1618.19916,0.15074
1616.27043,0.14796
1614.34171,0.14486
1612.41298,0.14170
1610.48426,0.13856
1608.55554,0.13554
1606.62681,0.13284
1604.69809,0.13038
1602.76937,0.12796
1600.84064,0.12558
1598.91192,0.12330
1596.98319,0.12114
1595.05447,0.11897
1593.12575,0.11667
1591.19702,0.11427
1589.26830,0.11190
1587.33958,0.10968
1585.41085,0.10756
1583.48213,0.10545
1581.55341,0.10340
1579.62468,0.10159
1577.69596,0.10005
1575.76723,0.09850
1573.83851,0.09671
1571.90979,0.09490
1569.98106,0.09326
1568.05234,0.09182
1566.12362,0.09050
1564.19489,0.08921
1562.26617,0.08809
1560.33745,0.08734
1558.40872,0.08664
1556.48000,0.08535
1554.55127,0.08370
1552.62255,0.08202
1550.69383,0.08041
1548.76510,0.07887
1546.83638,0.07745
1544.90766,0.07610
1542.97893,0.07473
1541.05021,0.07311
1539.12148,0.07091
1537.19276,0.06859
1535.26404,0.06654
1533.33531,0.06445
1531.40659,0.06211
1529.47787,0.05963
1527.54914,0.05701
1525.62042,0.05437
1523.69170,0.05182
1521.76297,0.04914
1519.83425,0.04632
1517.90552,0.04354
1515.97680,0.04067
1514.04808,0.03784
1512.11935,0.03533
1510.19063,0.03320
1508.26191,0.03108
1506.33318,0.02838
1504.40446,0.02537
1502.47574,0.02269
1500.54701,0.02036
1498.61829,0.01828
1496.68956,0.01631
1494.76084,0.01447
1492.83212,0.01296
1490.90339,0.01190
1488.97467,0.01130
1487.04595,0.01096
1485.11722,0.01077
1483.18850,0.01087
1481.25977,0.01144
1479.33105,0.01243
1477.40233,0.01385
1475.47360,0.01613
1473.54488,0.01971
1471.61616,0.02375
1469.68743,0.02649
1467.75871,0.02811
1465.82999,0.02971
1463.90126,0.03119
1461.97254,0.03195
1460.04381,0.03248
1458.11509,0.03361
1456.18637,0.03478
1454.25764,0.03485
1452.32892,0.03433
1450.40020,0.03402
1448.47147,0.03407
1446.54275,0.03428
1444.61403,0.03446
1442.68530,0.03462
1440.75658,0.03481
1438.82785,0.03510
1436.89913,0.03568
1434.97041,0.03628
1433.04168,0.03657
1431.11296,0.03688
1429.18424,0.03741
1427.25551,0.03791
1425.32679,0.03846
1423.39806,0.03918
1421.46934,0.03990
1419.54062,0.04083
1417.61189,0.04199
1415.68317,0.04283
1413.75445,0.04332
1411.82572,0.04379
1409.89700,0.04439
1407.96828,0.04511
1406.03955,0.04586
1404.11083,0.04637
1402.18210,0.04628
1400.25338,0.04554
1398.32466,0.04415
1396.39593,0.04225
1394.46721,0.04017
1392.53849,0.03822
1390.60976,0.03655
1388.68104,0.03518
1386.75232,0.03404
1384.82359,0.03293
1382.89487,0.03174
1380.96614,0.03046
1379.03742,0.02909
1377.10870,0.02760
1375.17997,0.02594
1373.25125,0.02414
1371.32253,0.02238
1369.39380,0.02080
1367.46508,0.01936
1365.53635,0.01794
1363.60763,0.01648
1361.67891,0.01502
1359.75018,0.01365
1357.82146,0.01246
1355.89274,0.01141
1353.96401,0.01044
1352.03529,0.00956
1350.10657,0.00886
1348.17784,0.00829
1346.24912,0.00772
1344.32039,0.00702
1342.39167,0.00625
1340.46295,0.00558
1338.53422,0.00509
1336.60550,0.00461
1334.67678,0.00405
1332.74805,0.00354
1330.81933,0.00319
1328.89061,0.00301
1326.96188,0.00288
1325.03316,0.00270
1323.10443,0.00251
1321.17571,0.00242
1319.24699,0.00243
1317.31826,0.00251
1315.38954,0.00275
1313.46082,0.00321
1311.53209,0.00370
1309.60337,0.00400
1307.67464,0.00426
1305.74592,0.00476
1303.81720,0.00562
1301.88847,0.00661
1299.95975,0.00749
1298.03103,0.00834
1296.10230,0.00936
1294.17358,0.01057
1292.24486,0.01198
1290.31613,0.01358
1288.38741,0.01539
1286.45868,0.01740
1284.52996,0.01964
1282.60124,0.02221
1280.67251,0.02511
1278.74379,0.02832
1276.81507,0.03187
1274.88634,0.03582
1272.95762,0.04023
1271.02890,0.04517
1269.10017,0.05071
1267.17145,0.05685
1265.24272,0.06366
1263.31400,0.07133
1261.38528,0.08005
1259.45655,0.08994
1257.52783,0.10081
1255.59911,0.11242
1253.67038,0.12452
1251.74166,0.13671
1249.81294,0.14870
1247.88421,0.16023
1245.95549,0.17098
1244.02676,0.18085
1242.09804,0.18995
1240.16932,0.19823
1238.24059,0.20558
1236.31187,0.21206
1234.38315,0.21792
1232.45442,0.22329
1230.52570,0.22820
1228.59697,0.23258
1226.66825,0.23654
1224.73953,0.24032
1222.81080,0.24389
1220.88208,0.24726
1218.95336,0.25050
1217.02463,0.25351
1215.09591,0.25628
1213.16719,0.25896
1211.23846,0.26160
1209.30974,0.26419
1207.38101,0.26667
1205.45229,0.26912
1203.52357,0.27156
1201.59484,0.27399
1199.66612,0.27639
1197.73740,0.27864
1195.80867,0.28096
1193.87995,0.28351
1191.95123,0.28605
1190.02250,0.28832
1188.09378,0.29039
1186.16505,0.29258
1184.23633,0.29481
1182.30761,0.29662
1180.37888,0.29816
1178.45016,0.29971
1176.52144,0.30127
1174.59271,0.30307
1172.66399,0.30521
1170.73526,0.30757
1168.80654,0.30993
1166.87782,0.31204
1164.94909,0.31392
1163.02037,0.31582
1161.09165,0.31782
1159.16292,0.31987
1157.23420,0.32188
1155.30548,0.32372
1153.37675,0.32543
1151.44803,0.32705
1149.51930,0.32863
1147.59058,0.33041
1145.66186,0.33237
1143.73313,0.33455
1141.80441,0.33700
1139.87569,0.33925
1137.94696,0.34108
1136.01824,0.34307
1134.08952,0.34555
1132.16079,0.34831
1130.23207,0.35108
1128.30334,0.35409
1126.37462,0.35771
1124.44590,0.36181
1122.51717,0.36612
1120.58845,0.37074
1118.65973,0.37576
1116.73100,0.38141
1114.80228,0.38794
1112.87355,0.39471
1110.94483,0.40133
1109.01611,0.40871
1107.08738,0.41703
1105.15866,0.42507
1103.22994,0.43199
1101.30121,0.43754
1099.37249,0.44168
1097.44377,0.44488
1095.51504,0.44787
1093.58632,0.45071
1091.65759,0.45244
1089.72887,0.45279
1087.80015,0.45227
1085.87142,0.45109
1083.94270,0.44950
1082.01398,0.44789
1080.08525,0.44591
1078.15653,0.44319
1076.22781,0.44002
1074.29908,0.43657
1072.37036,0.43287
1070.44163,0.42862
1068.51291,0.42395
1066.58419,0.41929
1064.65546,0.41437
1062.72674,0.40880
1060.79802,0.40237
1058.86929,0.39548
1056.94057,0.38881
1055.01184,0.38220
1053.08312,0.37508
1051.15440,0.36732
1049.22567,0.35918
1047.29695,0.35110
1045.36823,0.34348
1043.43950,0.33595
1041.51078,0.32793
1039.58206,0.31957
1037.65333,0.31115
1035.72461,0.30293
1033.79588,0.29496
1031.86716,0.28704
1029.93844,0.27913
1028.00971,0.27154
1026.08099,0.26428
1024.15227,0.25712
1022.22354,0.25030
1020.29482,0.24402
1018.36610,0.23819
1016.43737,0.23274
1014.50865,0.22754
1012.57992,0.22258
1010.65120,0.21801
1008.72248,0.21375
1006.79375,0.20943
1004.86503,0.20503
1002.93631,0.20099
1001.00758,0.19751
999.07886,0.19431
997.15013,0.19107
995.22141,0.18795
993.29269,0.18533
991.36396,0.18303
989.43524,0.18060
987.50652,0.17812
985.57779,0.17589
983.64907,0.17409
981.72035,0.17289
979.79162,0.17219
977.86290,0.17171
975.93417,0.17138
974.00545,0.17117
972.07673,0.17083
970.14800,0.17012
968.21928,0.16920
966.29056,0.16859
964.36183,0.16837
962.43311,0.16797
960.50439,0.16715
958.57566,0.16632
956.64694,0.16547
954.71821,0.16421
952.78949,0.16270
950.86077,0.16111
948.93204,0.15911
947.00332,0.15662
945.07460,0.15404
943.14587,0.15152
941.21715,0.14905
939.28842,0.14658
937.35970,0.14386
935.43098,0.14078
933.50225,0.13752
931.57353,0.13397
929.64481,0.13006
927.71608,0.12603
925.78736,0.12190
923.85864,0.11769
921.92991,0.11366
920.00119,0.10977
918.07246,0.10559
916.14374,0.10106
914.21502,0.09661
912.28629,0.09213
910.35757,0.08738
908.42885,0.08272
906.50012,0.07843
904.57140,0.07432
902.64268,0.07004
900.71395,0.06570
898.78523,0.06155
896.85650,0.05759
894.92778,0.05385
892.99906,0.05020
891.07033,0.04660
889.14161,0.04335
887.21289,0.04018
885.28416,0.03684
883.35544,0.03375
881.42671,0.03090
879.49799,0.02805
877.56927,0.02533
875.64054,0.02273
873.71182,0.02021
871.78310,0.01782
869.85437,0.01556
867.92565,0.01357
865.99693,0.01190
864.06820,0.01030
862.13948,0.00854
860.21075,0.00689
858.28203,0.00553
856.35331,0.00434
854.42458,0.00334
852.49586,0.00241
850.56714,0.00152
848.63841,0.00120
846.70969,0.00180
844.78097,0.00288
842.85224,0.00426
840.92352,0.00624
838.99479,0.00856
837.06607,0.01096
835.13735,0.01379
833.20862,0.01698
831.27990,0.02037
829.35118,0.02404
827.42245,0.02752
825.49373,0.03052
823.56501,0.03346
821.63628,0.03667
819.70756,0.04009
817.77883,0.04359
815.85011,0.04687
813.92139,0.04968
811.99266,0.05238
810.06394,0.05539
808.13522,0.05827
806.20649,0.06083
804.27777,0.06331
802.34904,0.06534
800.42032,0.06664
798.49160,0.06715
796.56287,0.06682
794.63415,0.06589
792.70543,0.06463
790.77670,0.06311
788.84798,0.06106
786.91926,0.05823
784.99053,0.05497
783.06181,0.05182
781.13308,0.04872
779.20436,0.04525
777.27564,0.04114
775.34691,0.03653
773.41819,0.03199
771.48947,0.02817
769.56074,0.02530
767.63202,0.02313
765.70330,0.02136
763.77457,0.02009
761.84585,0.01934
759.91712,0.01894
757.98840,0.01882
756.05968,0.01881
754.13095,0.01835
752.20223,0.01748
750.27351,0.01688
748.34478,0.01682
746.41606,0.01696
744.48733,0.01693
742.55861,0.01671
740.62989,0.01647
738.70116,0.01616
736.77244,0.01583
734.84372,0.01584
732.91499,0.01622
730.98627,0.01659
729.05755,0.01698
727.12882,0.01764
725.20010,0.01842
723.27137,0.01849
721.34265,0.01807
719.41393,0.01804
717.48520,0.01875
715.55648,0.01966
713.62776,0.02027
711.69903,0.02065
709.77031,0.02119
707.84159,0.02208
705.91286,0.02305
703.98414,0.02387
702.05541,0.02486
700.12669,0.02631
698.19797,0.02795
696.26924,0.02919
694.34052,0.02983
692.41180,0.02995
690.48307,0.02956
688.55435,0.02908
686.62562,0.02917
684.69690,0.02966
682.76818,0.02995
680.83945,0.03014
678.91073,0.03056
676.98201,0.03096
675.05328,0.03101
673.12456,0.03079
671.19584,0.03014
669.26711,0.02948
667.33839,0.03049
665.40966,0.03261
663.48094,0.03358
661.55222,0.03336
659.62349,0.03327
657.69477,0.03379
655.76605,0.03486
653.83732,0.03641
651.90860,0.03819
649.97988,0.03988
648.05115,0.04132
646.12243,0.04258
644.19370,0.04373
642.26498,0.04478
640.33626,0.04572
638.40753,0.04661
636.47881,0.04753
634.55009,0.04854
632.62136,0.04965
630.69264,0.05067
628.76391,0.05137
626.83519,0.05195
624.90647,0.05288
622.97774,0.05427
621.04902,0.05559
619.12030,0.05685
617.19157,0.05837
615.26285,0.05990
613.33413,0.06139
611.40540,0.06266
609.47668,0.06319
607.54795,0.06302
605.61923,0.06278
603.69051,0.06330
601.76178,0.06542
599.83306,0.06899
597.90434,0.07266
595.97561,0.07487
594.04689,0.07537
592.11817,0.07539
590.18944,0.07587
588.26072,0.07682
586.33199,0.07816
584.40327,0.07959
582.47455,0.08055
580.54582,0.08082
578.61710,0.08094
576.68838,0.08136
574.75965,0.08211
572.83093,0.08326
570.90220,0.08416
568.97348,0.08372
567.04476,0.08254
565.11603,0.08214
563.18731,0.08297
561.25859,0.08501
559.32986,0.08730
557.40114,0.08777
555.47242,0.08633
553.54369,0.08540
551.61497,0.08596
549.68624,0.08649
547.75752,0.08563
545.82880,0.08429
543.90007,0.08434
541.97135,0.08572
540.04263,0.08670
538.11390,0.08650
536.18518,0.08552
534.25646,0.08407
532.32773,0.08240
530.39901,0.08077
528.47028,0.07944
526.54156,0.07864
524.61284,0.07832
522.68411,0.07797
520.75539,0.07755
518.82667,0.07782
516.89794,0.07925
514.96922,0.08157
513.04049,0.08468
511.11177,0.08813
509.18305,0.09110
507.25432,0.09391
505.32560,0.09716
503.39688,0.10136
501.46815,0.10719
499.53943,0.11359
497.61071,0.11893
495.68198,0.12407
493.75326,0.13094
491.82453,0.13975
489.89581,0.14880
487.96709,0.15612
486.03836,0.16169
484.10964,0.16842
482.18092,0.17846
480.25219,0.18878
478.32347,0.19598
476.39475,0.20236
474.46602,0.21095
472.53730,0.21878
470.60857,0.22207
468.67985,0.22232
466.75113,0.22165
464.82240,0.21984
462.89368,0.21614
460.96496,0.21122
459.03623,0.20655
457.10751,0.20260
455.17878,0.19927
453.25006,0.19665
451.32134,0.19485
449.39261,0.19260
447.46389,0.18773
445.53517,0.18036
443.60644,0.17312
441.67772,0.16819
439.74900,0.16432
437.82027,0.15764
435.89155,0.14719
433.96282,0.13551
432.03410,0.12457
430.10538,0.11682
428.17665,0.11397
426.24793,0.11308
424.31921,0.11069
422.39048,0.10729
420.46176,0.10175
418.53304,0.08833
416.60431,0.06993
414.67559,0.05807
412.74686,0.05651
410.81814,0.05820
408.88942,0.05423
406.96069,0.04869
405.03197,0.05031
403.10325,0.05441
401.17452,0.05177
399.24580,0.04200
397.31708,0.02838
395.38835,0.01564
393.45963,0.01383
391.53090,0.02011
389.60218,0.02681
387.67346,0.03245
385.74473,0.03636
383.81601,0.03209
381.88729,0.01792
379.95856,0.00402
378.02984,0.00000
376.10111,-0.00237
374.17239,0.00114
372.24367,-0.00208
370.31494,-0.00411
368.38622,0.00000
