3996.31543,0.00016
3994.38671,0.00028
3992.45799,0.00028
3990.52926,0.00012
3988.60054,0.00000
3986.67182,0.00005
3984.74309,0.00015
3982.81437,0.00022
3980.88564,0.00028
3978.95692,0.00029
3977.02820,0.00031
3975.09947,0.00048
3973.17075,0.00071
3971.24203,0.00078
3969.31330,0.00076
3967.38458,0.00063
3965.45586,0.00040
3963.52713,0.00025
3961.59841,0.00036
3959.66968,0.00058
3957.74096,0.00074
3955.81224,0.00078
3953.88351,0.00068
3951.95479,0.00052
3950.02607,0.00051
3948.09734,0.00066
3946.16862,0.00079
3944.23990,0.00090
3942.31117,0.00116
3940.38245,0.00136
3938.45372,0.00119
3936.52500,0.00079
3934.59628,0.00055
3932.66755,0.00077
3930.73883,0.00117
3928.81011,0.00124
3926.88138,0.00100
3924.95266,0.00085
3923.02393,0.00086
3921.09521,0.00087
3919.16649,0.00099
3917.23776,0.00124
3915.30904,0.00133
3913.38032,0.00115
3911.45159,0.00082
3909.52287,0.00040
3907.59415,0.00003
3905.66542,0.00008
3903.73670,0.00072
3901.80797,0.00151
3899.87925,0.00197
3897.95053,0.00190
3896.02180,0.00121
3894.09308,0.00041
3892.16436,0.00023
3890.23563,0.00042
3888.30691,0.00031
3886.37819,0.00026
3884.44946,0.00060
3882.52074,0.00095
3880.59201,0.00117
3878.66329,0.00106
3876.73457,0.00053
3874.80584,0.00018
3872.87712,0.00030
3870.94840,0.00068
3869.01967,0.00099
3867.09095,0.00078
3865.16222,0.00046
3863.23350,0.00067
3861.30478,0.00097
3859.37605,0.00069
3857.44733,0.00003
3855.51861,0.00000
3853.58988,0.00131
3851.66116,0.00253
3849.73244,0.00216
3847.80371,0.00110
3845.87499,0.00038
3843.94626,0.00012
3842.01754,0.00011
3840.08882,0.00040
3838.16009,0.00101
3836.23137,0.00142
3834.30265,0.00143
3832.37392,0.00142
3830.44520,0.00142
3828.51648,0.00127
3826.58775,0.00105
3824.65903,0.00075
3822.73030,0.00069
3820.80158,0.00129
3818.87286,0.00185
3816.94413,0.00202
3815.01541,0.00226
3813.08669,0.00221
3811.15796,0.00157
3809.22924,0.00090
3807.30052,0.00080
3805.37179,0.00099
3803.44307,0.00129
3801.51434,0.00215
3799.58562,0.00296
3797.65690,0.00307
3795.72817,0.00298
3793.79945,0.00289
3791.87073,0.00270
3789.94200,0.00252
3788.01328,0.00249
3786.08455,0.00280
3784.15583,0.00340
3782.22711,0.00394
3780.29838,0.00444
3778.36966,0.00496
3776.44094,0.00514
3774.51221,0.00490
3772.58349,0.00468
3770.65477,0.00501
3768.72604,0.00582
3766.79732,0.00664
3764.86859,0.00724
3762.93987,0.00743
3761.01115,0.00743
3759.08242,0.00787
3757.15370,0.00849
3755.22498,0.00870
3753.29625,0.00906
3751.36753,0.01048
3749.43881,0.01221
3747.51008,0.01299
3745.58136,0.01378
3743.65263,0.01520
3741.72391,0.01584
3739.79519,0.01547
3737.86646,0.01570
3735.93774,0.01776
3734.00902,0.02073
3732.08029,0.02279
3730.15157,0.02364
3728.22284,0.02432
3726.29412,0.02582
3724.36540,0.02812
3722.43667,0.03067
3720.50795,0.03324
3718.57923,0.03568
3716.65050,0.03771
3714.72178,0.03967
3712.79306,0.04285
3710.86433,0.04778
3708.93561,0.05249
3707.00688,0.05563
3705.07816,0.05822
3703.14944,0.06177
3701.22071,0.06641
3699.29199,0.07073
3697.36327,0.07419
3695.43454,0.07730
3693.50582,0.08039
3691.57710,0.08418
3689.64837,0.08956
3687.71965,0.09542
3685.79092,0.09993
3683.86220,0.10343
3681.93348,0.10694
3680.00475,0.11063
3678.07603,0.11500
3676.14731,0.12147
3674.21858,0.12879
3672.28986,0.13434
3670.36113,0.13986
3668.43241,0.14610
3666.50369,0.15086
3664.57496,0.15439
3662.64624,0.15814
3660.71752,0.16220
3658.78879,0.16645
3656.86007,0.17122
3654.93135,0.17564
3653.00262,0.17865
3651.07390,0.18202
3649.14517,0.18789
3647.21645,0.19419
3645.28773,0.19815
3643.35900,0.20057
3641.43028,0.20307
3639.50156,0.20602
3637.57283,0.20915
3635.64411,0.21224
3633.71539,0.21492
3631.78666,0.21730
3629.85794,0.22096
3627.92921,0.22618
3626.00049,0.22981
3624.07177,0.23106
3622.14304,0.23191
3620.21432,0.23392
3618.28560,0.23680
3616.35687,0.23911
3614.42815,0.24072
3612.49942,0.24226
3610.57070,0.24397
3608.64198,0.24623
3606.71325,0.24871
3604.78453,0.25036
3602.85581,0.25137
3600.92708,0.25275
3598.99836,0.25456
3597.06964,0.25634
3595.14091,0.25807
3593.21219,0.25967
3591.28346,0.26093
3589.35474,0.26251
3587.42602,0.26514
3585.49729,0.26780
3583.56857,0.26928
3581.63985,0.27006
3579.71112,0.27103
3577.78240,0.27247
3575.85368,0.27420
3573.92495,0.27578
3571.99623,0.27682
3570.06750,0.27751
3568.13878,0.27884
3566.21006,0.28110
3564.28133,0.28311
3562.35261,0.28441
3560.42389,0.28562
3558.49516,0.28689
3556.56644,0.28799
3554.63771,0.28902
3552.70899,0.29031
3550.78027,0.29160
3548.85154,0.29267
3546.92282,0.29393
3544.99410,0.29553
3543.06537,0.29695
3541.13665,0.29800
3539.20793,0.29897
3537.27920,0.30009
3535.35048,0.30130
3533.42175,0.30239
3531.49303,0.30333
3529.56431,0.30436
3527.63558,0.30558
3525.70686,0.30687
3523.77814,0.30803
3521.84941,0.30909
3519.92069,0.31011
3517.99197,0.31112
3516.06324,0.31214
3514.13452,0.31306
3512.20579,0.31385
3510.27707,0.31480
3508.34835,0.31599
3506.41962,0.31707
3504.49090,0.31799
3502.56218,0.31894
3500.63345,0.31990
3498.70473,0.32086
3496.77600,0.32190
3494.84728,0.32287
3492.91856,0.32363
3490.98983,0.32429
3489.06111,0.32503
3487.13239,0.32589
3485.20366,0.32679
3483.27494,0.32759
3481.34622,0.32815
3479.41749,0.32849
3477.48877,0.32894
3475.56004,0.32970
3473.63132,0.33067
3471.70260,0.33161
3469.77387,0.33233
3467.84515,0.33289
3465.91643,0.33347
3463.98770,0.33414
3462.05898,0.33489
3460.13026,0.33562
3458.20153,0.33627
3456.27281,0.33689
3454.34408,0.33755
3452.41536,0.33810
3450.48664,0.33843
3448.55791,0.33864
3446.62919,0.33894
3444.70047,0.33952
3442.77174,0.34024
3440.84302,0.34073
3438.91429,0.34100
3436.98557,0.34132
3435.05685,0.34180
3433.12812,0.34233
3431.19940,0.34277
3429.27068,0.34303
3427.34195,0.34318
3425.41323,0.34329
3423.48451,0.34348
3421.55578,0.34391
3419.62706,0.34442
3417.69833,0.34473
3415.76961,0.34487
3413.84089,0.34491
3411.91216,0.34468
3409.98344,0.34431
3408.05472,0.34430
3406.12599,0.34458
3404.19727,0.34464
3402.26855,0.34458
3400.33982,0.34469
3398.41110,0.34488
3396.48237,0.34503
3394.55365,0.34490
3392.62493,0.34463
3390.69620,0.34465
3388.76748,0.34489
3386.83876,0.34492
3384.91003,0.34460
3382.98131,0.34413
3381.05259,0.34380
3379.12386,0.34374
3377.19514,0.34383
3375.26641,0.34380
3373.33769,0.34354
3371.40897,0.34306
3369.48024,0.34251
3367.55152,0.34209
3365.62280,0.34180
3363.69407,0.34153
3361.76535,0.34124
3359.83662,0.34105
3357.90790,0.34088
3355.97918,0.34050
3354.05045,0.33993
3352.12173,0.33942
3350.19301,0.33898
3348.26428,0.33854
3346.33556,0.33810
3344.40684,0.33771
3342.47811,0.33741
3340.54939,0.33711
3338.62066,0.33664
3336.69194,0.33612
3334.76322,0.33578
3332.83449,0.33554
3330.90577,0.33512
3328.97705,0.33449
3327.04832,0.33390
3325.11960,0.33338
3323.19088,0.33283
3321.26215,0.33221
3319.33343,0.33178
3317.40470,0.33152
3315.47598,0.33114
3313.54726,0.33064
3311.61853,0.33028
3309.68981,0.33002
3307.76109,0.32974
3305.83236,0.32946
3303.90364,0.32920
3301.97491,0.32891
3300.04619,0.32850
3298.11747,0.32799
3296.18874,0.32748
3294.26002,0.32697
3292.33130,0.32646
3290.40257,0.32596
3288.47385,0.32557
3286.54513,0.32528
3284.61640,0.32505
3282.68768,0.32480
3280.75895,0.32438
3278.83023,0.32386
3276.90151,0.32346
3274.97278,0.32322
3273.04406,0.32298
3271.11534,0.32260
3269.18661,0.32208
3267.25789,0.32148
3265.32917,0.32083
3263.40044,0.32013
3261.47172,0.31948
3259.54299,0.31904
3257.61427,0.31869
3255.68555,0.31807
3253.75682,0.31722
3251.82810,0.31657
3249.89938,0.31615
3247.97065,0.31576
3246.04193,0.31535
3244.11320,0.31500
3242.18448,0.31458
3240.25576,0.31395
3238.32703,0.31316
3236.39831,0.31242
3234.46959,0.31188
3232.54086,0.31148
3230.61214,0.31093
3228.68342,0.31019
3226.75469,0.30942
3224.82597,0.30867
3222.89724,0.30794
3220.96852,0.30734
3219.03980,0.30683
3217.11107,0.30613
3215.18235,0.30514
3213.25363,0.30410
3211.32490,0.30320
3209.39618,0.30236
3207.46746,0.30152
3205.53873,0.30069
3203.61001,0.29995
3201.68128,0.29928
3199.75256,0.29850
3197.82384,0.29748
3195.89511,0.29636
3193.96639,0.29544
3192.03767,0.29467
3190.10894,0.29389
3188.18022,0.29313
3186.25149,0.29235
3184.32277,0.29144
3182.39405,0.29035
3180.46532,0.28916
3178.53660,0.28812
3176.60788,0.28730
3174.67915,0.28652
3172.75043,0.28548
3170.82171,0.28417
3168.89298,0.28287
3166.96426,0.28179
3165.03553,0.28088
3163.10681,0.27999
3161.17809,0.27897
3159.24936,0.27789
3157.32064,0.27687
3155.39192,0.27589
3153.46319,0.27496
3151.53447,0.27400
3149.60575,0.27299
3147.67702,0.27203
3145.74830,0.27111
3143.81957,0.27013
3141.89085,0.26908
3139.96213,0.26797
3138.03340,0.26680
3136.10468,0.26560
3134.17596,0.26450
3132.24723,0.26358
3130.31851,0.26273
3128.38978,0.26181
3126.46106,0.26077
3124.53234,0.25962
3122.60361,0.25847
3120.67489,0.25743
3118.74617,0.25643
3116.81744,0.25533
3114.88872,0.25412
3112.96000,0.25289
3111.03127,0.25168
3109.10255,0.25044
3107.17382,0.24910
3105.24510,0.24774
3103.31638,0.24648
3101.38765,0.24525
3099.45893,0.24385
3097.53021,0.24229
3095.60148,0.24083
3093.67276,0.23958
3091.74404,0.23835
3089.81531,0.23706
3087.88659,0.23572
3085.95786,0.23425
3084.02914,0.23276
3082.10042,0.23138
3080.17169,0.23013
3078.24297,0.22887
3076.31425,0.22746
3074.38552,0.22593
3072.45680,0.22446
3070.52807,0.22313
3068.59935,0.22188
3066.67063,0.22056
3064.74190,0.21918
3062.81318,0.21787
3060.88446,0.21658
3058.95573,0.21527
3057.02701,0.21396
3055.09829,0.21265
3053.16956,0.21140
3051.24084,0.21023
3049.31211,0.20901
3047.38339,0.20771
3045.45467,0.20640
3043.52594,0.20506
3041.59722,0.20372
3039.66850,0.20248
3037.73977,0.20132
3035.81105,0.20016
3033.88233,0.19901
3031.95360,0.19798
3030.02488,0.19707
3028.09615,0.19607
3026.16743,0.19494
3024.23871,0.19387
3022.30998,0.19294
3020.38126,0.19203
3018.45254,0.19098
3016.52381,0.18989
3014.59509,0.18883
3012.66636,0.18778
3010.73764,0.18678
3008.80892,0.18589
3006.88019,0.18504
3004.95147,0.18420
3003.02275,0.18336
3001.09402,0.18249
2999.16530,0.18165
2997.23658,0.18079
2995.30785,0.17990
2993.37913,0.17908
2991.45040,0.17836
2989.52168,0.17771
2987.59296,0.17710
2985.66423,0.17661
2983.73551,0.17626
2981.80679,0.17599
2979.87806,0.17580
2977.94934,0.17564
2976.02062,0.17548
2974.09189,0.17534
2972.16317,0.17528
2970.23444,0.17530
2968.30572,0.17542
2966.37700,0.17560
2964.44827,0.17579
2962.51955,0.17584
2960.59083,0.17558
2958.66210,0.17509
2956.73338,0.17464
2954.80466,0.17424
2952.87593,0.17377
2950.94721,0.17329
2949.01848,0.17290
2947.08976,0.17274
2945.16104,0.17285
2943.23231,0.17319
2941.30359,0.17380
2939.37487,0.17462
2937.44614,0.17544
2935.51742,0.17620
2933.58869,0.17700
2931.65997,0.17774
2929.73125,0.17810
2927.80252,0.17799
2925.87380,0.17741
2923.94508,0.17622
2922.01635,0.17436
2920.08763,0.17192
2918.15891,0.16905
2916.23018,0.16594
2914.30146,0.16291
2912.37273,0.16018
2910.44401,0.15776
2908.51529,0.15552
2906.58656,0.15345
2904.65784,0.15153
2902.72912,0.14964
2900.80039,0.14778
2898.87167,0.14611
2896.94295,0.14466
2895.01422,0.14321
2893.08550,0.14166
2891.15677,0.14008
2889.22805,0.13855
2887.29933,0.13714
2885.37060,0.13591
2883.44188,0.13486
2881.51316,0.13404
2879.58443,0.13335
2877.65571,0.13261
2875.72698,0.13185
2873.79826,0.13119
2871.86954,0.13057
2869.94081,0.12995
2868.01209,0.12930
2866.08337,0.12874
2864.15464,0.12841
2862.22592,0.12854
2860.29720,0.12913
2858.36847,0.12977
2856.43975,0.12992
2854.51102,0.12933
2852.58230,0.12798
2850.65358,0.12583
2848.72485,0.12293
2846.79613,0.11952
2844.86741,0.11606
2842.93868,0.11294
2841.00996,0.11035
2839.08124,0.10822
2837.15251,0.10630
2835.22379,0.10448
2833.29506,0.10282
2831.36634,0.10143
2829.43762,0.10017
2827.50889,0.09890
2825.58017,0.09769
2823.65145,0.09663
2821.72272,0.09569
2819.79400,0.09475
2817.86527,0.09377
2815.93655,0.09283
2814.00783,0.09196
2812.07910,0.09108
2810.15038,0.09021
2808.22166,0.08938
2806.29293,0.08850
2804.36421,0.08751
2802.43549,0.08655
2800.50676,0.08575
2798.57804,0.08502
2796.64931,0.08421
2794.72059,0.08335
2792.79187,0.08255
2790.86314,0.08172
2788.93442,0.08082
2787.00570,0.07995
2785.07697,0.07918
2783.14825,0.07838
2781.21953,0.07747
2779.29080,0.07659
2777.36208,0.07594
2775.43335,0.07541
2773.50463,0.07471
2771.57591,0.07391
2769.64718,0.07315
2767.71846,0.07237
2765.78974,0.07157
2763.86101,0.07074
2761.93229,0.06991
2760.00356,0.06921
2758.07484,0.06860
2756.14612,0.06794
2754.21739,0.06725
2752.28867,0.06662
2750.35995,0.06600
2748.43122,0.06534
2746.50250,0.06475
2744.57378,0.06421
2742.64505,0.06361
2740.71633,0.06293
2738.78760,0.06223
2736.85888,0.06159
2734.93016,0.06100
2733.00143,0.06037
2731.07271,0.05973
2729.14399,0.05911
2727.21526,0.05854
2725.28654,0.05798
2723.35782,0.05735
2721.42909,0.05666
2719.50037,0.05597
2717.57164,0.05535
2715.64292,0.05480
2713.71420,0.05427
2711.78547,0.05368
2709.85675,0.05303
2707.92803,0.05238
2705.99930,0.05178
2704.07058,0.05120
2702.14185,0.05062
2700.21313,0.05013
2698.28441,0.04969
2696.35568,0.04918
2694.42696,0.04864
2692.49824,0.04817
2690.56951,0.04767
2688.64079,0.04707
2686.71207,0.04646
2684.78334,0.04596
2682.85462,0.04559
2680.92589,0.04522
2678.99717,0.04473
2677.06845,0.04422
2675.13972,0.04381
2673.21100,0.04340
2671.28228,0.04286
2669.35355,0.04230
2667.42483,0.04177
2665.49611,0.04124
2663.56738,0.04074
2661.63866,0.04026
2659.70993,0.03983
2657.78121,0.03939
2655.85249,0.03891
2653.92376,0.03838
2651.99504,0.03786
2650.06632,0.03744
2648.13759,0.03714
2646.20887,0.03678
2644.28014,0.03632
2642.35142,0.03585
2640.42270,0.03542
2638.49397,0.03499
2636.56525,0.03455
2634.63653,0.03413
2632.70780,0.03375
2630.77908,0.03342
2628.85036,0.03307
2626.92163,0.03267
2624.99291,0.03222
2623.06418,0.03174
2621.13546,0.03133
2619.20674,0.03100
2617.27801,0.03066
2615.34929,0.03028
2613.42057,0.02991
2611.49184,0.02956
2609.56312,0.02920
2607.63440,0.02881
2605.70567,0.02843
2603.77695,0.02812
2601.84822,0.02777
2599.91950,0.02732
2597.99078,0.02687
2596.06205,0.02651
2594.13333,0.02618
2592.20461,0.02584
2590.27588,0.02549
2588.34716,0.02519
2586.41843,0.02492
2584.48971,0.02459
2582.56099,0.02423
2580.63226,0.02392
2578.70354,0.02362
2576.77482,0.02329
2574.84609,0.02293
2572.91737,0.02262
2570.98865,0.02239
2569.05992,0.02215
2567.13120,0.02182
2565.20247,0.02145
2563.27375,0.02115
2561.34503,0.02090
2559.41630,0.02069
2557.48758,0.02045
2555.55886,0.02019
2553.63013,0.01996
2551.70141,0.01978
2549.77269,0.01956
2547.84396,0.01930
2545.91524,0.01900
2543.98651,0.01873
2542.05779,0.01851
2540.12907,0.01827
2538.20034,0.01792
2536.27162,0.01757
2534.34290,0.01735
2532.41417,0.01719
2530.48545,0.01702
2528.55673,0.01679
2526.62800,0.01654
2524.69928,0.01632
2522.77055,0.01614
2520.84183,0.01595
2518.91311,0.01576
2516.98438,0.01556
2515.05566,0.01531
2513.12694,0.01501
2511.19821,0.01475
2509.26949,0.01459
2507.34076,0.01444
2505.41204,0.01424
2503.48332,0.01401
2501.55459,0.01370
2499.62587,0.01335
2497.69715,0.01312
2495.76842,0.01304
2493.83970,0.01296
2491.91098,0.01281
2489.98225,0.01263
2488.05353,0.01240
2486.12480,0.01212
2484.19608,0.01189
2482.26736,0.01176
2480.33863,0.01160
2478.40991,0.01141
2476.48119,0.01123
2474.55246,0.01106
2472.62374,0.01087
2470.69502,0.01063
2468.76629,0.01040
2466.83757,0.01022
2464.90884,0.01005
2462.98012,0.00989
2461.05140,0.00979
2459.12267,0.00965
2457.19395,0.00946
2455.26523,0.00928
2453.33650,0.00909
2451.40778,0.00887
2449.47905,0.00868
2447.55033,0.00848
2445.62161,0.00825
2443.69288,0.00805
2441.76416,0.00790
2439.83544,0.00776
2437.90671,0.00764
2435.97799,0.00749
2434.04927,0.00727
2432.12054,0.00706
2430.19182,0.00694
2428.26309,0.00687
2426.33437,0.00679
2424.40565,0.00665
2422.47692,0.00650
2420.54820,0.00633
2418.61948,0.00610
2416.69075,0.00587
2414.76203,0.00574
2412.83331,0.00566
2410.90458,0.00554
2408.97586,0.00542
2407.04713,0.00530
2405.11841,0.00517
2403.18969,0.00502
2401.26096,0.00485
2399.33224,0.00467
2397.40352,0.00456
2395.47479,0.00451
2393.54607,0.00440
2391.61734,0.00421
2389.68862,0.00403
2387.75990,0.00394
2385.83117,0.00388
2383.90245,0.00379
2381.97373,0.00368
2380.04500,0.00358
2378.11628,0.00350
2376.18756,0.00341
2374.25883,0.00337
2372.33011,0.00342
2370.40138,0.00353
2368.47266,0.00366
2366.54394,0.00380
2364.61521,0.00394
2362.68649,0.00401
2360.75777,0.00392
2358.82904,0.00371
2356.90032,0.00353
2354.97160,0.00350
2353.04287,0.00353
2351.11415,0.00340
2349.18542,0.00303
2347.25670,0.00259
2345.32798,0.00237
2343.39925,0.00244
2341.47053,0.00265
2339.54181,0.00277
2337.61308,0.00270
2335.68436,0.00253
2333.75563,0.00234
2331.82691,0.00221
2329.89819,0.00218
2327.96946,0.00222
2326.04074,0.00223
2324.11202,0.00214
2322.18329,0.00202
2320.25457,0.00198
2318.32585,0.00193
2316.39712,0.00178
2314.46840,0.00157
2312.53967,0.00141
2310.61095,0.00134
2308.68223,0.00128
2306.75350,0.00120
2304.82478,0.00113
2302.89606,0.00109
2300.96733,0.00102
2299.03861,0.00090
2297.10989,0.00076
2295.18116,0.00068
2293.25244,0.00065
2291.32371,0.00064
2289.39499,0.00062
2287.46627,0.00058
2285.53754,0.00050
2283.60882,0.00040
2281.68010,0.00035
2279.75137,0.00040
2277.82265,0.00049
2275.89392,0.00053
2273.96520,0.00048
2272.03648,0.00039
2270.10775,0.00031
2268.17903,0.00024
2266.25031,0.00022
2264.32158,0.00021
2262.39286,0.00018
2260.46414,0.00014
2258.53541,0.00006
2256.60669,0.00000
2254.67796,-0.00003
2252.74924,-0.00005
2250.82052,-0.00007
2248.89179,-0.00004
2246.96307,0.00004
2245.03435,0.00011
2243.10562,0.00013
2241.17690,0.00012
2239.24818,0.00008
2237.31945,0.00001
2235.39073,-0.00002
2233.46200,-0.00001
2231.53328,-0.00002
2229.60456,-0.00007
2227.67583,-0.00006
2225.74711,0.00001
2223.81839,0.00004
2221.88966,-0.00000
2219.96094,-0.00005
2218.03221,-0.00008
2216.10349,-0.00013
2214.17477,-0.00017
2212.24604,-0.00018
2210.31732,-0.00016
2208.38860,-0.00009
2206.45987,0.00000
2204.53115,0.00001
2202.60243,-0.00005
2200.67370,-0.00009
2198.74498,-0.00010
2196.81625,-0.00011
2194.88753,-0.00009
2192.95881,0.00001
2191.03008,0.00008
2189.10136,0.00006
2187.17264,0.00003
2185.24391,0.00001
2183.31519,-0.00006
2181.38647,-0.00010
2179.45774,-0.00010
2177.52902,-0.00011
2175.60029,-0.00013
2173.67157,-0.00014
2171.74285,-0.00012
2169.81412,-0.00005
2167.88540,0.00002
2165.95668,0.00013
2164.02795,0.00021
2162.09923,0.00025
2160.17050,0.00027
2158.24178,0.00031
2156.31306,0.00029
2154.38433,0.00027
2152.45561,0.00030
2150.52689,0.00032
2148.59816,0.00028
2146.66944,0.00031
2144.74072,0.00041
2142.81199,0.00042
2140.88327,0.00035
2138.95454,0.00029
2137.02582,0.00027
2135.09710,0.00028
2133.16837,0.00030
2131.23965,0.00034
2129.31093,0.00040
2127.38220,0.00038
2125.45348,0.00029
2123.52476,0.00021
2121.59603,0.00021
2119.66731,0.00020
2117.73858,0.00016
2115.80986,0.00013
2113.88114,0.00013
2111.95241,0.00014
2110.02369,0.00015
2108.09497,0.00013
2106.16624,0.00007
2104.23752,0.00004
2102.30880,0.00009
2100.38007,0.00012
2098.45135,0.00006
2096.52262,0.00001
2094.59390,0.00000
2092.66518,-0.00007
2090.73645,-0.00017
2088.80773,-0.00028
2086.87901,-0.00036
2084.95028,-0.00037
2083.02156,-0.00039
2081.09283,-0.00048
2079.16411,-0.00057
2077.23539,-0.00064
2075.30666,-0.00069
2073.37794,-0.00069
2071.44922,-0.00060
2069.52049,-0.00050
2067.59177,-0.00046
2065.66305,-0.00044
2063.73432,-0.00043
2061.80560,-0.00043
2059.87687,-0.00043
2057.94815,-0.00042
2056.01943,-0.00037
2054.09070,-0.00024
2052.16198,-0.00006
2050.23326,0.00014
2048.30453,0.00034
2046.37581,0.00055
2044.44709,0.00073
2042.51836,0.00089
2040.58964,0.00105
2038.66091,0.00124
2036.73219,0.00146
2034.80347,0.00174
2032.87474,0.00203
2030.94602,0.00225
2029.01730,0.00237
2027.08857,0.00250
2025.15985,0.00270
2023.23112,0.00295
2021.30240,0.00321
2019.37368,0.00345
2017.44495,0.00368
2015.51623,0.00385
2013.58751,0.00398
2011.65878,0.00410
2009.73006,0.00421
2007.80134,0.00430
2005.87261,0.00439
2003.94389,0.00446
2002.01516,0.00452
2000.08644,0.00458
1998.15772,0.00462
1996.22899,0.00458
1994.30027,0.00450
1992.37155,0.00449
1990.44282,0.00460
1988.51410,0.00467
1986.58538,0.00458
1984.65665,0.00440
1982.72793,0.00426
1980.79920,0.00423
1978.87048,0.00422
1976.94176,0.00410
1975.01303,0.00391
1973.08431,0.00375
1971.15559,0.00357
1969.22686,0.00335
1967.29814,0.00319
1965.36941,0.00301
1963.44069,0.00270
1961.51197,0.00242
1959.58324,0.00224
1957.65452,0.00210
1955.72580,0.00191
1953.79707,0.00172
1951.86835,0.00152
1949.93963,0.00133
1948.01090,0.00112
1946.08218,0.00095
1944.15345,0.00087
1942.22473,0.00087
1940.29601,0.00076
1938.36728,0.00048
1936.43856,0.00027
1934.50984,0.00021
1932.58111,0.00022
1930.65239,0.00019
1928.72367,0.00011
1926.79494,0.00000
1924.86622,-0.00007
1922.93749,0.00003
1921.00877,0.00022
1919.08005,0.00048
1917.15132,0.00088
1915.22260,0.00122
1913.29388,0.00144
1911.36515,0.00179
1909.43643,0.00237
1907.50770,0.00299
1905.57898,0.00346
1903.65026,0.00387
1901.72153,0.00435
1899.79281,0.00489
1897.86409,0.00543
1895.93536,0.00596
1894.00664,0.00643
1892.07792,0.00681
1890.14919,0.00731
1888.22047,0.00792
1886.29174,0.00841
1884.36302,0.00875
1882.43430,0.00900
1880.50557,0.00916
1878.57685,0.00929
1876.64813,0.00940
1874.71940,0.00941
1872.79068,0.00930
1870.86196,0.00921
1868.93323,0.00928
1867.00451,0.00929
1865.07578,0.00894
1863.14706,0.00834
1861.21834,0.00773
1859.28961,0.00718
1857.36089,0.00662
1855.43217,0.00599
1853.50344,0.00533
1851.57472,0.00466
1849.64599,0.00399
1847.71727,0.00335
1845.78855,0.00287
1843.85982,0.00262
1841.93110,0.00237
1840.00238,0.00195
1838.07365,0.00148
1836.14493,0.00103
1834.21621,0.00053
1832.28748,0.00009
1830.35876,-0.00003
1828.43003,0.00005
1826.50131,0.00003
1824.57259,-0.00005
1822.64386,-0.00014
1820.71514,-0.00025
1818.78642,-0.00026
1816.85769,-0.00014
1814.92897,0.00000
1813.00025,-0.00007
1811.07152,0.00005
1809.14280,0.00032
1807.21407,0.00051
1805.28535,0.00059
1803.35663,0.00075
1801.42790,0.00116
1799.49918,0.00173
1797.57046,0.00216
1795.64173,0.00248
1793.71301,0.00318
1791.78428,0.00443
1789.85556,0.00556
1787.92684,0.00620
1785.99811,0.00680
1784.06939,0.00766
1782.14067,0.00873
1780.21194,0.00987
1778.28322,0.01082
1776.35450,0.01149
1774.42577,0.01236
1772.49705,0.01389
1770.56832,0.01565
1768.63960,0.01691
1766.71088,0.01768
1764.78215,0.01829
1762.85343,0.01918
1760.92471,0.02046
1758.99598,0.02173
1757.06726,0.02295
1755.13854,0.02408
1753.20981,0.02507
1751.28109,0.02652
1749.35236,0.02866
1747.42364,0.03074
1745.49492,0.03242
1743.56619,0.03409
1741.63747,0.03615
1739.70875,0.03847
1737.78002,0.04049
1735.85130,0.04263
1733.92257,0.04602
1731.99385,0.04978
1730.06513,0.05259
1728.13640,0.05497
1726.20768,0.05745
1724.27896,0.06003
1722.35023,0.06227
1720.42151,0.06412
1718.49279,0.06666
1716.56406,0.07024
1714.63534,0.07331
1712.70661,0.07528
1710.77789,0.07694
1708.84917,0.07886
1706.92044,0.08131
1704.99172,0.08398
1703.06300,0.08633
1701.13427,0.08916
1699.20555,0.09309
1697.27683,0.09709
1695.34810,0.10074
1693.41938,0.10367
1691.49065,0.10601
1689.56193,0.10853
1687.63321,0.11125
1685.70448,0.11490
1683.77576,0.12031
1681.84704,0.12514
1679.91831,0.12805
1677.98959,0.13045
1676.06087,0.13360
1674.13214,0.13718
1672.20342,0.14039
1670.27469,0.14383
1668.34597,0.14754
1666.41725,0.15023
1664.48852,0.15236
1662.55980,0.15505
1660.63108,0.15770
1658.70235,0.15924
1656.77363,0.15995
1654.84490,0.16145
1652.91618,0.16468
1650.98746,0.16707
1649.05873,0.16780
1647.13001,0.16896
1645.20129,0.17067
1643.27256,0.17150
1641.34384,0.17152
1639.41512,0.17144
1637.48639,0.17184
1635.55767,0.17288
1633.62894,0.17338
1631.70022,0.17270
1629.77150,0.17147
1627.84277,0.17009
1625.91405,0.16850
1623.98533,0.16663
1622.05660,0.16438
1620.12788,0.16160
1618.19916,0.15821
1616.27043,0.15433
1614.34171,0.15046
1612.41298,0.14679
1610.48426,0.14313
1608.55554,0.13943
1606.62681,0.13579
1604.69809,0.13228
1602.76937,0.12887
1600.84064,0.12557
1598.91192,0.12242
1596.98319,0.11939
1595.05447,0.11648
1593.12575,0.11369
1591.19702,0.11101
1589.26830,0.10839
1587.33958,0.10582
1585.41085,0.10332
1583.48213,0.10093
1581.55341,0.09863
1579.62468,0.09647
1577.69596,0.09454
1575.76723,0.09282
1573.83851,0.09108
1571.90979,0.08928
1569.98106,0.08767
1568.05234,0.08631
1566.12362,0.08496
1564.19489,0.08348
1562.26617,0.08199
1560.33745,0.08101
1558.40872,0.08071
1556.48000,0.08006
1554.55127,0.07871
1552.62255,0.07721
1550.69383,0.07577
1548.76510,0.07433
1546.83638,0.07273
1544.90766,0.07096
1542.97893,0.06921
1541.05021,0.06768
1539.12148,0.06619
1537.19276,0.06436
1535.26404,0.06228
1533.33531,0.06019
1531.40659,0.05812
1529.47787,0.05597
1527.54914,0.05369
1525.62042,0.05134
1523.69170,0.04901
1521.76297,0.04668
1519.83425,0.04427
1517.90552,0.04177
1515.97680,0.03929
1514.04808,0.03688
1512.11935,0.03452
1510.19063,0.03228
1508.26191,0.03019
1506.33318,0.02807
1504.40446,0.02574
1502.47574,0.02333
1500.54701,0.02102
1498.61829,0.01905
1496.68956,0.01744
1494.76084,0.01590
1492.83212,0.01442
1490.90339,0.01347
1488.97467,0.01332
1487.04595,0.01348
1485.11722,0.01349
1483.18850,0.01362
1481.25977,0.01421
1479.33105,0.01509
1477.40233,0.01612
1475.47360,0.01768
1473.54488,0.02050
1471.61616,0.02420
1469.68743,0.02701
1467.75871,0.02864
1465.82999,0.03016
1463.90126,0.03173
1461.97254,0.03262
1460.04381,0.03308
1458.11509,0.03427
1456.18637,0.03603
1454.25764,0.03684
1452.32892,0.03674
1450.40020,0.03665
1448.47147,0.03702
1446.54275,0.03761
1444.61403,0.03799
1442.68530,0.03816
1440.75658,0.03835
1438.82785,0.03876
1436.89913,0.03961
1434.97041,0.04048
1433.04168,0.04092
1431.11296,0.04133
1429.18424,0.04201
1427.25551,0.04270
1425.32679,0.04335
1423.39806,0.04411
1421.46934,0.04507
1419.54062,0.04661
1417.61189,0.04863
1415.68317,0.05031
1413.75445,0.05174
1411.82572,0.05347
1409.89700,0.05549
1407.96828,0.05757
1406.03955,0.05970
1404.11083,0.06158
1402.18210,0.06242
1400.25338,0.06197
1398.32466,0.06043
1396.39593,0.05794
1394.46721,0.05478
1392.53849,0.05156
1390.60976,0.04900
1388.68104,0.04779
1386.75232,0.04794
1384.82359,0.04774
1382.89487,0.04538
1380.96614,0.04134
1379.03742,0.03738
1377.10870,0.03435
1375.17997,0.03193
1373.25125,0.02978
1371.32253,0.02786
1369.39380,0.02610
1367.46508,0.02443
1365.53635,0.02291
1363.60763,0.02157
1361.67891,0.02040
1359.75018,0.01926
1357.82146,0.01812
1355.89274,0.01708
1353.96401,0.01617
1352.03529,0.01535
1350.10657,0.01459
1348.17784,0.01390
1346.24912,0.01327
1344.32039,0.01266
1342.39167,0.01210
1340.46295,0.01166
1338.53422,0.01138
1336.60550,0.01111
1334.67678,0.01078
1332.74805,0.01047
1330.81933,0.01028
1328.89061,0.01024
1326.96188,0.01030
1325.03316,0.01039
1323.10443,0.01046
1321.17571,0.01056
1319.24699,0.01074
1317.31826,0.01094
1315.38954,0.01113
1313.46082,0.01139
1311.53209,0.01174
1309.60337,0.01213
1307.67464,0.01262
1305.74592,0.01321
1303.81720,0.01378
1301.88847,0.01444
1299.95975,0.01536
1298.03103,0.01651
1296.10230,0.01779
1294.17358,0.01928
1292.24486,0.02104
1290.31613,0.02300
1288.38741,0.02518
1286.45868,0.02762
1284.52996,0.03032
1282.60124,0.03327
1280.67251,0.03644
1278.74379,0.03992
1276.81507,0.04378
1274.88634,0.04813
1272.95762,0.05312
1271.02890,0.05873
1269.10017,0.06486
1267.17145,0.07162
1265.24272,0.07921
1263.31400,0.08772
1261.38528,0.09729
1259.45655,0.10801
1257.52783,0.11971
1255.59911,0.13216
1253.67038,0.14519
1251.74166,0.15841
1249.81294,0.17137
1247.88421,0.18376
1245.95549,0.19541
1244.02676,0.20620
1242.09804,0.21615
1240.16932,0.22527
1238.24059,0.23350
1236.31187,0.24086
1234.38315,0.24745
1232.45442,0.25340
1230.52570,0.25881
1228.59697,0.26377
1226.66825,0.26840
1224.73953,0.27278
1222.81080,0.27683
1220.88208,0.28060
1218.95336,0.28405
1217.02463,0.28707
1215.09591,0.28978
1213.16719,0.29243
1211.23846,0.29510
1209.30974,0.29778
1207.38101,0.30040
1205.45229,0.30300
1203.52357,0.30551
1201.59484,0.30780
1199.66612,0.30998
1197.73740,0.31223
1195.80867,0.31431
1193.87995,0.31612
1191.95123,0.31806
1190.02250,0.32032
1188.09378,0.32259
1186.16505,0.32458
1184.23633,0.32634
1182.30761,0.32813
1180.37888,0.33017
1178.45016,0.33244
1176.52144,0.33472
1174.59271,0.33697
1172.66399,0.33920
1170.73526,0.34133
1168.80654,0.34351
1166.87782,0.34581
1164.94909,0.34783
1163.02037,0.34963
1161.09165,0.35171
1159.16292,0.35397
1157.23420,0.35612
1155.30548,0.35805
1153.37675,0.35960
1151.44803,0.36084
1149.51930,0.36221
1147.59058,0.36426
1145.66186,0.36688
1143.73313,0.36921
1141.80441,0.37097
1139.87569,0.37284
1137.94696,0.37517
1136.01824,0.37768
1134.08952,0.38031
1132.16079,0.38290
1130.23207,0.38530
1128.30334,0.38792
1126.37462,0.39129
1124.44590,0.39524
1122.51717,0.39937
1120.58845,0.40393
1118.65973,0.40900
1116.73100,0.41416
1114.80228,0.41907
1112.87355,0.42392
1110.94483,0.42965
1109.01611,0.43669
1107.08738,0.44376
1105.15866,0.44995
1103.22994,0.45560
1101.30121,0.46069
1099.37249,0.46521
1097.44377,0.46940
1095.51504,0.47296
1093.58632,0.47559
1091.65759,0.47751
1089.72887,0.47896
1087.80015,0.47989
1085.87142,0.48009
1083.94270,0.47958
1082.01398,0.47852
1080.08525,0.47722
1078.15653,0.47601
1076.22781,0.47478
1074.29908,0.47263
1072.37036,0.46913
1070.44163,0.46528
1068.51291,0.46187
1066.58419,0.45839
1064.65546,0.45425
1062.72674,0.44946
1060.79802,0.44401
1058.86929,0.43831
1056.94057,0.43292
1055.01184,0.42761
1053.08312,0.42201
1051.15440,0.41600
1049.22567,0.40937
1047.29695,0.40216
1045.36823,0.39478
1043.43950,0.38737
1041.51078,0.37973
1039.58206,0.37181
1037.65333,0.36388
1035.72461,0.35627
1033.79588,0.34882
1031.86716,0.34103
1029.93844,0.33297
1028.00971,0.32529
1026.08099,0.31789
1024.15227,0.31040
1022.22354,0.30297
1020.29482,0.29555
1018.36610,0.28802
1016.43737,0.28059
1014.50865,0.27339
1012.57992,0.26641
1010.65120,0.25969
1008.72248,0.25321
1006.79375,0.24667
1004.86503,0.24006
1002.93631,0.23375
1001.00758,0.22771
999.07886,0.22152
997.15013,0.21529
995.22141,0.20947
993.29269,0.20398
991.36396,0.19850
989.43524,0.19313
987.50652,0.18824
985.57779,0.18380
983.64907,0.17953
981.72035,0.17572
979.79162,0.17268
977.86290,0.17015
975.93417,0.16777
974.00545,0.16552
972.07673,0.16361
970.14800,0.16205
968.21928,0.16060
966.29056,0.15914
964.36183,0.15785
962.43311,0.15693
960.50439,0.15631
958.57566,0.15561
956.64694,0.15486
954.71821,0.15431
952.78949,0.15362
950.86077,0.15244
948.93204,0.15095
947.00332,0.14928
945.07460,0.14749
943.14587,0.14583
941.21715,0.14424
939.28842,0.14221
937.35970,0.13963
935.43098,0.13692
933.50225,0.13417
931.57353,0.13119
929.64481,0.12812
927.71608,0.12509
925.78736,0.12206
923.85864,0.11900
921.92991,0.11583
920.00119,0.11261
918.07246,0.10956
916.14374,0.10645
914.21502,0.10304
912.28629,0.09927
910.35757,0.09521
908.42885,0.09111
906.50012,0.08712
904.57140,0.08330
902.64268,0.07959
900.71395,0.07577
898.78523,0.07172
896.85650,0.06765
894.92778,0.06370
892.99906,0.05974
891.07033,0.05576
889.14161,0.05197
887.21289,0.04857
885.28416,0.04536
883.35544,0.04211
881.42671,0.03884
879.49799,0.03567
877.56927,0.03270
875.64054,0.03009
873.71182,0.02773
871.78310,0.02520
869.85437,0.02235
867.92565,0.01947
865.99693,0.01691
864.06820,0.01487
862.13948,0.01302
860.21075,0.01097
858.28203,0.00903
856.35331,0.00763
854.42458,0.00661
852.49586,0.00559
850.56714,0.00459
848.63841,0.00417
846.70969,0.00488
844.78097,0.00661
842.85224,0.00885
840.92352,0.01148
838.99479,0.01447
837.06607,0.01785
835.13735,0.02155
833.20862,0.02527
831.27990,0.02910
829.35118,0.03326
827.42245,0.03770
825.49373,0.04239
823.56501,0.04708
821.63628,0.05134
819.70756,0.05517
817.77883,0.05911
815.85011,0.06340
813.92139,0.06747
811.99266,0.07045
810.06394,0.07255
808.13522,0.07510
806.20649,0.07827
804.27777,0.08103
802.34904,0.08314
800.42032,0.08482
798.49160,0.08557
796.56287,0.08506
794.63415,0.08385
792.70543,0.08256
790.77670,0.08125
788.84798,0.07959
786.91926,0.07726
784.99053,0.07405
783.06181,0.07027
781.13308,0.06635
779.20436,0.06222
777.27564,0.05765
775.34691,0.05291
773.41819,0.04844
771.48947,0.04459
769.56074,0.04160
767.63202,0.03942
765.70330,0.03783
763.77457,0.03666
761.84585,0.03552
759.91712,0.03428
757.98840,0.03332
756.05968,0.03256
754.13095,0.03180
752.20223,0.03124
750.27351,0.03096
748.34478,0.03082
746.41606,0.03050
744.48733,0.02986
742.55861,0.02930
740.62989,0.02908
738.70116,0.02891
736.77244,0.02860
734.84372,0.02840
732.91499,0.02852
730.98627,0.02877
729.05755,0.02904
727.12882,0.02951
725.20010,0.03000
723.27137,0.03002
721.34265,0.02969
719.41393,0.02931
717.48520,0.02894
715.55648,0.02860
713.62776,0.02854
711.69903,0.02892
709.77031,0.02957
707.84159,0.03033
705.91286,0.03128
703.98414,0.03245
702.05541,0.03348
700.12669,0.03406
698.19797,0.03435
696.26924,0.03475
694.34052,0.03527
692.41180,0.03556
690.48307,0.03532
688.55435,0.03485
686.62562,0.03464
684.69690,0.03466
682.76818,0.03452
680.83945,0.03421
678.91073,0.03421
676.98201,0.03488
675.05328,0.03576
673.12456,0.03633
671.19584,0.03681
669.26711,0.03757
667.33839,0.03807
665.40966,0.03785
663.48094,0.03786
661.55222,0.03869
659.62349,0.03974
657.69477,0.04035
655.76605,0.04063
653.83732,0.04112
651.90860,0.04210
649.97988,0.04345
648.05115,0.04496
646.12243,0.04642
644.19370,0.04763
642.26498,0.04853
640.33626,0.04917
638.40753,0.04972
636.47881,0.05039
634.55009,0.05113
632.62136,0.05178
630.69264,0.05252
628.76391,0.05356
626.83519,0.05486
624.90647,0.05621
622.97774,0.05736
621.04902,0.05823
619.12030,0.05901
617.19157,0.05984
615.26285,0.06081
613.33413,0.06193
611.40540,0.06320
609.47668,0.06481
607.54795,0.06707
605.61923,0.06969
603.69051,0.07195
601.76178,0.07380
599.83306,0.07556
597.90434,0.07690
595.97561,0.07752
594.04689,0.07809
592.11817,0.07918
590.18944,0.08020
588.26072,0.08066
586.33199,0.08144
584.40327,0.08317
582.47455,0.08521
580.54582,0.08657
578.61710,0.08686
576.68838,0.08708
574.75965,0.08815
572.83093,0.08927
570.90220,0.08985
568.97348,0.09047
567.04476,0.09109
565.11603,0.09114
563.18731,0.09110
561.25859,0.09208
559.32986,0.09407
557.40114,0.09596
555.47242,0.09670
553.54369,0.09629
551.61497,0.09624
549.68624,0.09782
547.75752,0.10031
545.82880,0.10205
543.90007,0.10229
541.97135,0.10153
540.04263,0.10051
538.11390,0.09948
536.18518,0.09883
534.25646,0.09865
532.32773,0.09847
530.39901,0.09842
528.47028,0.09867
526.54156,0.09908
524.61284,0.09956
522.68411,0.09977
520.75539,0.10018
518.82667,0.10167
516.89794,0.10350
514.96922,0.10447
513.04049,0.10503
511.11177,0.10671
509.18305,0.11049
507.25432,0.11617
505.32560,0.12255
503.39688,0.12849
501.46815,0.13404
499.53943,0.14038
497.61071,0.14831
495.68198,0.15718
493.75326,0.16562
491.82453,0.17350
489.89581,0.18248
487.96709,0.19249
486.03836,0.20145
484.10964,0.20965
482.18092,0.21789
480.25219,0.22491
478.32347,0.23140
476.39475,0.23917
474.46602,0.24828
472.53730,0.25738
470.60857,0.26352
468.67985,0.26548
466.75113,0.26563
464.82240,0.26618
462.89368,0.26672
460.96496,0.26508
459.03623,0.25986
457.10751,0.25281
455.17878,0.24721
453.25006,0.24263
451.32134,0.23679
449.39261,0.22990
447.46389,0.22393
445.53517,0.21935
443.60644,0.21418
441.67772,0.20736
439.74900,0.20071
437.82027,0.19500
435.89155,0.18844
433.96282,0.18035
432.03410,0.17274
430.10538,0.16731
428.17665,0.16172
426.24793,0.15355
424.31921,0.14618
422.39048,0.14174
420.46176,0.13340
418.53304,0.11652
416.60431,0.10190
414.67559,0.09881
412.74686,0.10248
410.81814,0.10390
408.88942,0.10065
406.96069,0.09844
405.03197,0.10115
403.10325,0.10434
401.17452,0.09839
399.24580,0.07869
397.31708,0.05920
395.38835,0.05491
393.45963,0.05395
391.53090,0.04876
389.60218,0.04766
387.67346,0.05078
385.74473,0.04740
383.81601,0.03379
381.88729,0.01602
379.95856,0.00183
378.02984,0.00000
376.10111,0.00835
374.17239,0.03468
372.24367,0.05616
370.31494,0.04711
368.38622,0.00000
