3996.31543,0.00000
3994.38671,0.00013
3992.45799,0.00030
3990.52926,0.00037
3988.60054,0.00040
3986.67182,0.00044
3984.74309,0.00043
3982.81437,0.00045
3980.88564,0.00056
3978.95692,0.00065
3977.02820,0.00063
3975.09947,0.00057
3973.17075,0.00056
3971.24203,0.00061
3969.31330,0.00068
3967.38458,0.00074
3965.45586,0.00074
3963.52713,0.00068
3961.59841,0.00069
3959.66968,0.00085
3957.74096,0.00094
3955.81224,0.00089
3953.88351,0.00092
3951.95479,0.00104
3950.02607,0.00105
3948.09734,0.00103
3946.16862,0.00111
3944.23990,0.00113
3942.31117,0.00092
3940.38245,0.00078
3938.45372,0.00100
3936.52500,0.00137
3934.59628,0.00153
3932.66755,0.00134
3930.73883,0.00099
3928.81011,0.00095
3926.88138,0.00116
3924.95266,0.00120
3923.02393,0.00109
3921.09521,0.00110
3919.16649,0.00107
3917.23776,0.00083
3915.30904,0.00065
3913.38032,0.00076
3911.45159,0.00106
3909.52287,0.00147
3907.59415,0.00196
3905.66542,0.00214
3903.73670,0.00173
3901.80797,0.00101
3899.87925,0.00044
3897.95053,0.00032
3896.02180,0.00069
3894.09308,0.00107
3892.16436,0.00095
3890.23563,0.00070
3888.30691,0.00087
3886.37819,0.00107
3884.44946,0.00097
3882.52074,0.00090
3880.59201,0.00080
3878.66329,0.00089
3876.73457,0.00145
3874.80584,0.00198
3872.87712,0.00207
3870.94840,0.00170
3869.01967,0.00116
3867.09095,0.00110
3865.16222,0.00126
3863.23350,0.00102
3861.30478,0.00086
3859.37605,0.00142
3857.44733,0.00263
3855.51861,0.00346
3853.58988,0.00246
3851.66116,0.00054
3849.73244,0.00000
3847.80371,0.00058
3845.87499,0.00130
3843.94626,0.00182
3842.01754,0.00222
3840.08882,0.00230
3838.16009,0.00170
3836.23137,0.00100
3834.30265,0.00093
3832.37392,0.00119
3830.44520,0.00137
3828.51648,0.00148
3826.58775,0.00166
3824.65903,0.00213
3822.73030,0.00241
3820.80158,0.00184
3818.87286,0.00119
3816.94413,0.00087
3815.01541,0.00055
3813.08669,0.00078
3811.15796,0.00173
3809.22924,0.00255
3807.30052,0.00262
3805.37179,0.00251
3803.44307,0.00258
3801.51434,0.00217
3799.58562,0.00156
3797.65690,0.00140
3795.72817,0.00145
3793.79945,0.00173
3791.87073,0.00232
3789.94200,0.00290
3788.01328,0.00323
3786.08455,0.00326
3784.15583,0.00324
3782.22711,0.00343
3780.29838,0.00359
3778.36966,0.00353
3776.44094,0.00370
3774.51221,0.00429
3772.58349,0.00498
3770.65477,0.00529
3768.72604,0.00518
3766.79732,0.00502
3764.86859,0.00517
3762.93987,0.00585
3761.01115,0.00668
3759.08242,0.00700
3757.15370,0.00716
3755.22498,0.00792
3753.29625,0.00889
3751.36753,0.00910
3749.43881,0.00896
3747.51008,0.00956
3745.58136,0.01040
3743.65263,0.01082
3741.72391,0.01156
3739.79519,0.01293
3737.86646,0.01425
3735.93774,0.01492
3734.00902,0.01520
3732.08029,0.01596
3730.15157,0.01750
3728.22284,0.01944
3726.29412,0.02126
3724.36540,0.02278
3722.43667,0.02424
3720.50795,0.02599
3718.57923,0.02823
3716.65050,0.03087
3714.72178,0.03354
3712.79306,0.03573
3710.86433,0.03746
3708.93561,0.03956
3707.00688,0.04232
3705.07816,0.04533
3703.14944,0.04832
3701.22071,0.05129
3699.29199,0.05426
3697.36327,0.05724
3695.43454,0.06034
3693.50582,0.06361
3691.57710,0.06687
3689.64837,0.06990
3687.71965,0.07301
3685.79092,0.07661
3683.86220,0.08066
3681.93348,0.08489
3680.00475,0.08917
3678.07603,0.09346
3676.14731,0.09767
3674.21858,0.10159
3672.28986,0.10534
3670.36113,0.10931
3668.43241,0.11351
3666.50369,0.11766
3664.57496,0.12172
3662.64624,0.12566
3660.71752,0.12937
3658.78879,0.13290
3656.86007,0.13633
3654.93135,0.13969
3653.00262,0.14290
3651.07390,0.14575
3649.14517,0.14816
3647.21645,0.15082
3645.28773,0.15409
3643.35900,0.15749
3641.43028,0.16067
3639.50156,0.16360
3637.57283,0.16643
3635.64411,0.16916
3633.71539,0.17163
3631.78666,0.17376
3629.85794,0.17560
3627.92921,0.17756
3626.00049,0.18010
3624.07177,0.18294
3622.14304,0.18548
3620.21432,0.18729
3618.28560,0.18860
3616.35687,0.19016
3614.42815,0.19205
3612.49942,0.19392
3610.57070,0.19565
3608.64198,0.19728
3606.71325,0.19897
3604.78453,0.20087
3602.85581,0.20279
3600.92708,0.20452
3598.99836,0.20613
3597.06964,0.20769
3595.14091,0.20913
3593.21219,0.21058
3591.28346,0.21217
3589.35474,0.21363
3587.42602,0.21489
3585.49729,0.21647
3583.56857,0.21843
3581.63985,0.22030
3579.71112,0.22184
3577.78240,0.22312
3575.85368,0.22429
3573.92495,0.22561
3571.99623,0.22718
3570.06750,0.22861
3568.13878,0.22943
3566.21006,0.22997
3564.28133,0.23105
3562.35261,0.23263
3560.42389,0.23425
3558.49516,0.23580
3556.56644,0.23729
3554.63771,0.23851
3552.70899,0.23944
3550.78027,0.24038
3548.85154,0.24152
3546.92282,0.24263
3544.99410,0.24361
3543.06537,0.24461
3541.13665,0.24572
3539.20793,0.24690
3537.27920,0.24803
3535.35048,0.24901
3533.42175,0.24989
3531.49303,0.25080
3529.56431,0.25173
3527.63558,0.25260
3525.70686,0.25340
3523.77814,0.25421
3521.84941,0.25513
3519.92069,0.25615
3517.99197,0.25712
3516.06324,0.25797
3514.13452,0.25883
3512.20579,0.25969
3510.27707,0.26034
3508.34835,0.26095
3506.41962,0.26178
3504.49090,0.26276
3502.56218,0.26364
3500.63345,0.26439
3498.70473,0.26512
3496.77600,0.26586
3494.84728,0.26659
3492.91856,0.26725
3490.98983,0.26793
3489.06111,0.26875
3487.13239,0.26962
3485.20366,0.27042
3483.27494,0.27105
3481.34622,0.27154
3479.41749,0.27211
3477.48877,0.27287
3475.56004,0.27366
3473.63132,0.27436
3471.70260,0.27493
3469.77387,0.27533
3467.84515,0.27577
3465.91643,0.27626
3463.98770,0.27668
3462.05898,0.27704
3460.13026,0.27742
3458.20153,0.27781
3456.27281,0.27812
3454.34408,0.27833
3452.41536,0.27860
3450.48664,0.27906
3448.55791,0.27954
3446.62919,0.27994
3444.70047,0.28040
3442.77174,0.28089
3440.84302,0.28126
3438.91429,0.28163
3436.98557,0.28207
3435.05685,0.28240
3433.12812,0.28254
3431.19940,0.28263
3429.27068,0.28285
3427.34195,0.28324
3425.41323,0.28364
3423.48451,0.28393
3421.55578,0.28406
3419.62706,0.28407
3417.69833,0.28417
3415.76961,0.28454
3413.84089,0.28503
3411.91216,0.28527
3409.98344,0.28522
3408.05472,0.28511
3406.12599,0.28504
3404.19727,0.28512
3402.26855,0.28534
3400.33982,0.28548
3398.41110,0.28545
3396.48237,0.28546
3394.55365,0.28552
3392.62493,0.28548
3390.69620,0.28540
3388.76748,0.28538
3386.83876,0.28534
3384.91003,0.28524
3382.98131,0.28513
3381.05259,0.28505
3379.12386,0.28495
3377.19514,0.28475
3375.26641,0.28451
3373.33769,0.28431
3371.40897,0.28414
3369.48024,0.28398
3367.55152,0.28381
3365.62280,0.28373
3363.69407,0.28379
3361.76535,0.28373
3359.83662,0.28338
3357.90790,0.28285
3355.97918,0.28239
3354.05045,0.28216
3352.12173,0.28212
3350.19301,0.28202
3348.26428,0.28168
3346.33556,0.28123
3344.40684,0.28092
3342.47811,0.28076
3340.54939,0.28066
3338.62066,0.28053
3336.69194,0.28014
3334.76322,0.27960
3332.83449,0.27919
3330.90577,0.27896
3328.97705,0.27883
3327.04832,0.27870
3325.11960,0.27837
3323.19088,0.27792
3321.26215,0.27759
3319.33343,0.27736
3317.40470,0.27714
3315.47598,0.27695
3313.54726,0.27670
3311.61853,0.27629
3309.68981,0.27585
3307.76109,0.27555
3305.83236,0.27530
3303.90364,0.27505
3301.97491,0.27474
3300.04619,0.27438
3298.11747,0.27402
3296.18874,0.27371
3294.26002,0.27346
3292.33130,0.27324
3290.40257,0.27296
3288.47385,0.27261
3286.54513,0.27217
3284.61640,0.27163
3282.68768,0.27116
3280.75895,0.27079
3278.83023,0.27035
3276.90151,0.26986
3274.97278,0.26957
3273.04406,0.26944
3271.11534,0.26914
3269.18661,0.26857
3267.25789,0.26800
3265.32917,0.26760
3263.40044,0.26720
3261.47172,0.26662
3259.54299,0.26601
3257.61427,0.26553
3255.68555,0.26512
3253.75682,0.26481
3251.82810,0.26455
3249.89938,0.26410
3247.97065,0.26344
3246.04193,0.26277
3244.11320,0.26217
3242.18448,0.26169
3240.25576,0.26125
3238.32703,0.26060
3236.39831,0.25978
3234.46959,0.25913
3232.54086,0.25874
3230.61214,0.25834
3228.68342,0.25783
3226.75469,0.25726
3224.82597,0.25661
3222.89724,0.25590
3220.96852,0.25518
3219.03980,0.25445
3217.11107,0.25374
3215.18235,0.25302
3213.25363,0.25228
3211.32490,0.25166
3209.39618,0.25112
3207.46746,0.25050
3205.53873,0.24984
3203.61001,0.24910
3201.68128,0.24819
3199.75256,0.24730
3197.82384,0.24660
3195.89511,0.24598
3193.96639,0.24522
3192.03767,0.24431
3190.10894,0.24350
3188.18022,0.24282
3186.25149,0.24195
3184.32277,0.24089
3182.39405,0.24002
3180.46532,0.23933
3178.53660,0.23845
3176.60788,0.23737
3174.67915,0.23638
3172.75043,0.23552
3170.82171,0.23471
3168.89298,0.23395
3166.96426,0.23318
3165.03553,0.23233
3163.10681,0.23140
3161.17809,0.23039
3159.24936,0.22936
3157.32064,0.22838
3155.39192,0.22753
3153.46319,0.22678
3151.53447,0.22598
3149.60575,0.22497
3147.67702,0.22385
3145.74830,0.22284
3143.81957,0.22198
3141.89085,0.22121
3139.96213,0.22051
3138.03340,0.21979
3136.10468,0.21898
3134.17596,0.21810
3132.24723,0.21715
3130.31851,0.21617
3128.38978,0.21522
3126.46106,0.21440
3124.53234,0.21360
3122.60361,0.21273
3120.67489,0.21181
3118.74617,0.21088
3116.81744,0.20995
3114.88872,0.20904
3112.96000,0.20812
3111.03127,0.20719
3109.10255,0.20632
3107.17382,0.20538
3105.24510,0.20429
3103.31638,0.20332
3101.38765,0.20252
3099.45893,0.20160
3097.53021,0.20046
3095.60148,0.19931
3093.67276,0.19831
3091.74404,0.19745
3089.81531,0.19660
3087.88659,0.19570
3085.95786,0.19479
3084.02914,0.19380
3082.10042,0.19269
3080.17169,0.19157
3078.24297,0.19048
3076.31425,0.18942
3074.38552,0.18839
3072.45680,0.18728
3070.52807,0.18608
3068.59935,0.18500
3066.67063,0.18408
3064.74190,0.18310
3062.81318,0.18204
3060.88446,0.18097
3058.95573,0.17988
3057.02701,0.17877
3055.09829,0.17776
3053.16956,0.17679
3051.24084,0.17574
3049.31211,0.17463
3047.38339,0.17361
3045.45467,0.17263
3043.52594,0.17161
3041.59722,0.17060
3039.66850,0.16966
3037.73977,0.16873
3035.81105,0.16780
3033.88233,0.16690
3031.95360,0.16597
3030.02488,0.16503
3028.09615,0.16409
3026.16743,0.16317
3024.23871,0.16226
3022.30998,0.16137
3020.38126,0.16052
3018.45254,0.15976
3016.52381,0.15902
3014.59509,0.15818
3012.66636,0.15719
3010.73764,0.15622
3008.80892,0.15542
3006.88019,0.15477
3004.95147,0.15417
3003.02275,0.15350
3001.09402,0.15273
2999.16530,0.15196
2997.23658,0.15126
2995.30785,0.15069
2993.37913,0.15018
2991.45040,0.14964
2989.52168,0.14917
2987.59296,0.14877
2985.66423,0.14836
2983.73551,0.14809
2981.80679,0.14797
2979.87806,0.14786
2977.94934,0.14782
2976.02062,0.14793
2974.09189,0.14808
2972.16317,0.14819
2970.23444,0.14839
2968.30572,0.14875
2966.37700,0.14911
2964.44827,0.14938
2962.51955,0.14956
2960.59083,0.14961
2958.66210,0.14945
2956.73338,0.14906
2954.80466,0.14847
2952.87593,0.14787
2950.94721,0.14737
2949.01848,0.14702
2947.08976,0.14692
2945.16104,0.14719
2943.23231,0.14788
2941.30359,0.14887
2939.37487,0.14988
2937.44614,0.15084
2935.51742,0.15188
2933.58869,0.15306
2931.65997,0.15425
2929.73125,0.15518
2927.80252,0.15557
2925.87380,0.15525
2923.94508,0.15411
2922.01635,0.15212
2920.08763,0.14943
2918.15891,0.14631
2916.23018,0.14317
2914.30146,0.14033
2912.37273,0.13787
2910.44401,0.13567
2908.51529,0.13363
2906.58656,0.13181
2904.65784,0.13020
2902.72912,0.12870
2900.80039,0.12718
2898.87167,0.12561
2896.94295,0.12409
2895.01422,0.12267
2893.08550,0.12135
2891.15677,0.12006
2889.22805,0.11867
2887.29933,0.11723
2885.37060,0.11602
2883.44188,0.11509
2881.51316,0.11426
2879.58443,0.11352
2877.65571,0.11299
2875.72698,0.11264
2873.79826,0.11226
2871.86954,0.11167
2869.94081,0.11093
2868.01209,0.11027
2866.08337,0.10984
2864.15464,0.10971
2862.22592,0.11000
2860.29720,0.11067
2858.36847,0.11150
2856.43975,0.11214
2854.51102,0.11214
2852.58230,0.11103
2850.65358,0.10865
2848.72485,0.10543
2846.79613,0.10205
2844.86741,0.09892
2842.93868,0.09613
2841.00996,0.09375
2839.08124,0.09183
2837.15251,0.09023
2835.22379,0.08870
2833.29506,0.08719
2831.36634,0.08579
2829.43762,0.08466
2827.50889,0.08372
2825.58017,0.08278
2823.65145,0.08182
2821.72272,0.08091
2819.79400,0.07998
2817.86527,0.07900
2815.93655,0.07815
2814.00783,0.07748
2812.07910,0.07677
2810.15038,0.07598
2808.22166,0.07513
2806.29293,0.07428
2804.36421,0.07353
2802.43549,0.07284
2800.50676,0.07212
2798.57804,0.07138
2796.64931,0.07065
2794.72059,0.06988
2792.79187,0.06910
2790.86314,0.06844
2788.93442,0.06791
2787.00570,0.06727
2785.07697,0.06648
2783.14825,0.06571
2781.21953,0.06504
2779.29080,0.06448
2777.36208,0.06398
2775.43335,0.06345
2773.50463,0.06277
2771.57591,0.06198
2769.64718,0.06127
2767.71846,0.06064
2765.78974,0.05998
2763.86101,0.05936
2761.93229,0.05880
2760.00356,0.05824
2758.07484,0.05773
2756.14612,0.05724
2754.21739,0.05668
2752.28867,0.05609
2750.35995,0.05559
2748.43122,0.05514
2746.50250,0.05464
2744.57378,0.05408
2742.64505,0.05346
2740.71633,0.05281
2738.78760,0.05220
2736.85888,0.05172
2734.93016,0.05126
2733.00143,0.05072
2731.07271,0.05013
2729.14399,0.04956
2727.21526,0.04905
2725.28654,0.04851
2723.35782,0.04792
2721.42909,0.04740
2719.50037,0.04694
2717.57164,0.04646
2715.64292,0.04598
2713.71420,0.04552
2711.78547,0.04504
2709.85675,0.04452
2707.92803,0.04394
2705.99930,0.04335
2704.07058,0.04283
2702.14185,0.04240
2700.21313,0.04200
2698.28441,0.04157
2696.35568,0.04113
2694.42696,0.04068
2692.49824,0.04018
2690.56951,0.03965
2688.64079,0.03911
2686.71207,0.03867
2684.78334,0.03835
2682.85462,0.03805
2680.92589,0.03766
2678.99717,0.03713
2677.06845,0.03654
2675.13972,0.03607
2673.21100,0.03574
2671.28228,0.03537
2669.35355,0.03498
2667.42483,0.03463
2665.49611,0.03425
2663.56738,0.03376
2661.63866,0.03323
2659.70993,0.03271
2657.78121,0.03223
2655.85249,0.03184
2653.92376,0.03156
2651.99504,0.03132
2650.06632,0.03102
2648.13759,0.03062
2646.20887,0.03014
2644.28014,0.02963
2642.35142,0.02917
2640.42270,0.02884
2638.49397,0.02852
2636.56525,0.02813
2634.63653,0.02775
2632.70780,0.02742
2630.77908,0.02710
2628.85036,0.02676
2626.92163,0.02641
2624.99291,0.02605
2623.06418,0.02566
2621.13546,0.02531
2619.20674,0.02509
2617.27801,0.02483
2615.34929,0.02447
2613.42057,0.02413
2611.49184,0.02385
2609.56312,0.02352
2607.63440,0.02311
2605.70567,0.02275
2603.77695,0.02243
2601.84822,0.02212
2599.91950,0.02184
2597.99078,0.02152
2596.06205,0.02115
2594.13333,0.02079
2592.20461,0.02050
2590.27588,0.02023
2588.34716,0.02000
2586.41843,0.01979
2584.48971,0.01955
2582.56099,0.01927
2580.63226,0.01896
2578.70354,0.01866
2576.77482,0.01839
2574.84609,0.01813
2572.91737,0.01786
2570.98865,0.01762
2569.05992,0.01742
2567.13120,0.01716
2565.20247,0.01685
2563.27375,0.01663
2561.34503,0.01647
2559.41630,0.01628
2557.48758,0.01605
2555.55886,0.01581
2553.63013,0.01561
2551.70141,0.01546
2549.77269,0.01528
2547.84396,0.01507
2545.91524,0.01492
2543.98651,0.01481
2542.05779,0.01464
2540.12907,0.01440
2538.20034,0.01418
2536.27162,0.01401
2534.34290,0.01379
2532.41417,0.01354
2530.48545,0.01338
2528.55673,0.01326
2526.62800,0.01304
2524.69928,0.01275
2522.77055,0.01247
2520.84183,0.01224
2518.91311,0.01206
2516.98438,0.01195
2515.05566,0.01180
2513.12694,0.01159
2511.19821,0.01142
2509.26949,0.01133
2507.34076,0.01122
2505.41204,0.01104
2503.48332,0.01085
2501.55459,0.01070
2499.62587,0.01060
2497.69715,0.01049
2495.76842,0.01030
2493.83970,0.01009
2491.91098,0.00988
2489.98225,0.00966
2488.05353,0.00951
2486.12480,0.00942
2484.19608,0.00927
2482.26736,0.00907
2480.33863,0.00888
2478.40991,0.00871
2476.48119,0.00856
2474.55246,0.00843
2472.62374,0.00829
2470.69502,0.00816
2468.76629,0.00804
2466.83757,0.00785
2464.90884,0.00764
2462.98012,0.00748
2461.05140,0.00736
2459.12267,0.00724
2457.19395,0.00711
2455.26523,0.00697
2453.33650,0.00680
2451.40778,0.00663
2449.47905,0.00649
2447.55033,0.00638
2445.62161,0.00627
2443.69288,0.00611
2441.76416,0.00597
2439.83544,0.00586
2437.90671,0.00577
2435.97799,0.00563
2434.04927,0.00548
2432.12054,0.00532
2430.19182,0.00518
2428.26309,0.00505
2426.33437,0.00494
2424.40565,0.00482
2422.47692,0.00466
2420.54820,0.00449
2418.61948,0.00433
2416.69075,0.00424
2414.76203,0.00418
2412.83331,0.00410
2410.90458,0.00396
2408.97586,0.00385
2407.04713,0.00378
2405.11841,0.00369
2403.18969,0.00355
2401.26096,0.00341
2399.33224,0.00330
2397.40352,0.00321
2395.47479,0.00309
2393.54607,0.00294
2391.61734,0.00283
2389.68862,0.00275
2387.75990,0.00268
2385.83117,0.00261
2383.90245,0.00261
2381.97373,0.00275
2380.04500,0.00296
2378.11628,0.00315
2376.18756,0.00324
2374.25883,0.00329
2372.33011,0.00331
2370.40138,0.00327
2368.47266,0.00319
2366.54394,0.00314
2364.61521,0.00310
2362.68649,0.00307
2360.75777,0.00304
2358.82904,0.00287
2356.90032,0.00249
2354.97160,0.00203
2353.04287,0.00172
2351.11415,0.00169
2349.18542,0.00194
2347.25670,0.00225
2345.32798,0.00236
2343.39925,0.00224
2341.47053,0.00207
2339.54181,0.00190
2337.61308,0.00178
2335.68436,0.00170
2333.75563,0.00166
2331.82691,0.00159
2329.89819,0.00147
2327.96946,0.00135
2326.04074,0.00128
2324.11202,0.00118
2322.18329,0.00100
2320.25457,0.00080
2318.32585,0.00070
2316.39712,0.00073
2314.46840,0.00075
2312.53967,0.00070
2310.61095,0.00066
2308.68223,0.00066
2306.75350,0.00062
2304.82478,0.00052
2302.89606,0.00041
2300.96733,0.00033
2299.03861,0.00028
2297.10989,0.00025
2295.18116,0.00022
2293.25244,0.00020
2291.32371,0.00022
2289.39499,0.00024
2287.46627,0.00017
2285.53754,0.00006
2283.60882,0.00001
2281.68010,0.00001
2279.75137,0.00001
2277.82265,0.00003
2275.89392,0.00010
2273.96520,0.00015
2272.03648,0.00015
2270.10775,0.00012
2268.17903,0.00009
2266.25031,0.00006
2264.32158,0.00002
2262.39286,0.00000
2260.46414,-0.00000
2258.53541,-0.00001
2256.60669,-0.00001
2254.67796,0.00004
2252.74924,0.00013
2250.82052,0.00015
2248.89179,0.00008
2246.96307,-0.00001
2245.03435,-0.00008
2243.10562,-0.00015
2241.17690,-0.00020
2239.24818,-0.00017
2237.31945,-0.00010
2235.39073,-0.00009
2233.46200,-0.00017
2231.53328,-0.00021
2229.60456,-0.00018
2227.67583,-0.00015
2225.74711,-0.00014
2223.81839,-0.00016
2221.88966,-0.00015
2219.96094,-0.00009
2218.03221,-0.00003
2216.10349,-0.00000
2214.17477,0.00001
2212.24604,0.00001
2210.31732,-0.00002
2208.38860,-0.00002
2206.45987,0.00000
2204.53115,-0.00002
2202.60243,-0.00002
2200.67370,0.00001
2198.74498,0.00006
2196.81625,0.00009
2194.88753,0.00007
2192.95881,0.00002
2191.03008,0.00001
2189.10136,0.00005
2187.17264,0.00005
2185.24391,0.00004
2183.31519,0.00008
2181.38647,0.00013
2179.45774,0.00014
2177.52902,0.00012
2175.60029,0.00012
2173.67157,0.00017
2171.74285,0.00019
2169.81412,0.00017
2167.88540,0.00013
2165.95668,0.00015
2164.02795,0.00022
2162.09923,0.00030
2160.17050,0.00037
2158.24178,0.00038
2156.31306,0.00036
2154.38433,0.00036
2152.45561,0.00034
2150.52689,0.00034
2148.59816,0.00037
2146.66944,0.00038
2144.74072,0.00035
2142.81199,0.00034
2140.88327,0.00037
2138.95454,0.00038
2137.02582,0.00032
2135.09710,0.00025
2133.16837,0.00026
2131.23965,0.00032
2129.31093,0.00034
2127.38220,0.00026
2125.45348,0.00022
2123.52476,0.00025
2121.59603,0.00025
2119.66731,0.00017
2117.73858,0.00011
2115.80986,0.00008
2113.88114,0.00010
2111.95241,0.00017
2110.02369,0.00019
2108.09497,0.00017
2106.16624,0.00014
2104.23752,0.00009
2102.30880,0.00002
2100.38007,0.00001
2098.45135,0.00008
2096.52262,0.00012
2094.59390,0.00008
2092.66518,0.00000
2090.73645,-0.00016
2088.80773,-0.00029
2086.87901,-0.00036
2084.95028,-0.00035
2083.02156,-0.00038
2081.09283,-0.00048
2079.16411,-0.00058
2077.23539,-0.00066
2075.30666,-0.00070
2073.37794,-0.00072
2071.44922,-0.00075
2069.52049,-0.00083
2067.59177,-0.00090
2065.66305,-0.00096
2063.73432,-0.00097
2061.80560,-0.00091
2059.87687,-0.00086
2057.94815,-0.00081
2056.01943,-0.00078
2054.09070,-0.00076
2052.16198,-0.00075
2050.23326,-0.00070
2048.30453,-0.00063
2046.37581,-0.00054
2044.44709,-0.00040
2042.51836,-0.00024
2040.58964,-0.00011
2038.66091,0.00001
2036.73219,0.00015
2034.80347,0.00028
2032.87474,0.00038
2030.94602,0.00052
2029.01730,0.00073
2027.08857,0.00091
2025.15985,0.00102
2023.23112,0.00112
2021.30240,0.00129
2019.37368,0.00147
2017.44495,0.00159
2015.51623,0.00168
2013.58751,0.00181
2011.65878,0.00197
2009.73006,0.00211
2007.80134,0.00222
2005.87261,0.00231
2003.94389,0.00242
2002.01516,0.00250
2000.08644,0.00256
1998.15772,0.00261
1996.22899,0.00268
1994.30027,0.00271
1992.37155,0.00265
1990.44282,0.00261
1988.51410,0.00262
1986.58538,0.00263
1984.65665,0.00261
1982.72793,0.00256
1980.79920,0.00249
1978.87048,0.00244
1976.94176,0.00242
1975.01303,0.00241
1973.08431,0.00241
1971.15559,0.00243
1969.22686,0.00243
1967.29814,0.00231
1965.36941,0.00210
1963.44069,0.00195
1961.51197,0.00186
1959.58324,0.00179
1957.65452,0.00171
1955.72580,0.00159
1953.79707,0.00145
1951.86835,0.00134
1949.93963,0.00123
1948.01090,0.00112
1946.08218,0.00104
1944.15345,0.00088
1942.22473,0.00058
1940.29601,0.00039
1938.36728,0.00047
1936.43856,0.00060
1934.50984,0.00060
1932.58111,0.00045
1930.65239,0.00032
1928.72367,0.00032
1926.79494,0.00039
1924.86622,0.00040
1922.93749,0.00034
1921.00877,0.00043
1919.08005,0.00060
1917.15132,0.00073
1915.22260,0.00096
1913.29388,0.00131
1911.36515,0.00160
1909.43643,0.00181
1907.50770,0.00206
1905.57898,0.00239
1903.65026,0.00273
1901.72153,0.00308
1899.79281,0.00348
1897.86409,0.00389
1895.93536,0.00424
1894.00664,0.00457
1892.07792,0.00492
1890.14919,0.00519
1888.22047,0.00539
1886.29174,0.00564
1884.36302,0.00591
1882.43430,0.00616
1880.50557,0.00634
1878.57685,0.00645
1876.64813,0.00655
1874.71940,0.00672
1872.79068,0.00688
1870.86196,0.00680
1868.93323,0.00634
1867.00451,0.00584
1865.07578,0.00567
1863.14706,0.00565
1861.21834,0.00553
1859.28961,0.00530
1857.36089,0.00503
1855.43217,0.00470
1853.50344,0.00431
1851.57472,0.00393
1849.64599,0.00361
1847.71727,0.00330
1845.78855,0.00280
1843.85982,0.00210
1841.93110,0.00163
1840.00238,0.00151
1838.07365,0.00142
1836.14493,0.00122
1834.21621,0.00108
1832.28748,0.00096
1830.35876,0.00062
1828.43003,0.00020
1826.50131,0.00000
1824.57259,-0.00010
1822.64386,-0.00011
1820.71514,-0.00001
1818.78642,0.00008
1816.85769,0.00006
1814.92897,0.00000
1813.00025,-0.00019
1811.07152,-0.00040
1809.14280,-0.00049
1807.21407,-0.00042
1805.28535,-0.00025
1803.35663,-0.00016
1801.42790,-0.00022
1799.49918,-0.00029
1797.57046,-0.00014
1795.64173,0.00022
1793.71301,0.00050
1791.78428,0.00056
1789.85556,0.00082
1787.92684,0.00145
1785.99811,0.00216
1784.06939,0.00266
1782.14067,0.00302
1780.21194,0.00343
1778.28322,0.00404
1776.35450,0.00476
1774.42577,0.00531
1772.49705,0.00560
1770.56832,0.00594
1768.63960,0.00659
1766.71088,0.00739
1764.78215,0.00808
1762.85343,0.00856
1760.92471,0.00899
1758.99598,0.00960
1757.06726,0.01036
1755.13854,0.01118
1753.20981,0.01199
1751.28109,0.01267
1749.35236,0.01330
1747.42364,0.01417
1745.49492,0.01529
1743.56619,0.01651
1741.63747,0.01779
1739.70875,0.01923
1737.78002,0.02080
1735.85130,0.02231
1733.92257,0.02367
1731.99385,0.02510
1730.06513,0.02683
1728.13640,0.02875
1726.20768,0.03057
1724.27896,0.03226
1722.35023,0.03386
1720.42151,0.03538
1718.49279,0.03675
1716.56406,0.03810
1714.63534,0.03982
1712.70661,0.04187
1710.77789,0.04400
1708.84917,0.04604
1706.92044,0.04801
1704.99172,0.05009
1703.06300,0.05231
1701.13427,0.05479
1699.20555,0.05769
1697.27683,0.06097
1695.34810,0.06456
1693.41938,0.06799
1691.49065,0.07108
1689.56193,0.07414
1687.63321,0.07725
1685.70448,0.08071
1683.77576,0.08481
1681.84704,0.08871
1679.91831,0.09196
1677.98959,0.09502
1676.06087,0.09827
1674.13214,0.10164
1672.20342,0.10481
1670.27469,0.10795
1668.34597,0.11126
1666.41725,0.11428
1664.48852,0.11692
1662.55980,0.11946
1660.63108,0.12191
1658.70235,0.12410
1656.77363,0.12591
1654.84490,0.12735
1652.91618,0.12858
1650.98746,0.12979
1649.05873,0.13088
1647.13001,0.13174
1645.20129,0.13258
1643.27256,0.13359
1641.34384,0.13461
1639.41512,0.13527
1637.48639,0.13524
1635.55767,0.13464
1633.62894,0.13429
1631.70022,0.13431
1629.77150,0.13407
1627.84277,0.13320
1625.91405,0.13179
1623.98533,0.12985
1622.05660,0.12773
1620.12788,0.12591
1618.19916,0.12368
1616.27043,0.12045
1614.34171,0.11747
1612.41298,0.11526
1610.48426,0.11299
1608.55554,0.11038
1606.62681,0.10791
1604.69809,0.10563
1602.76937,0.10324
1600.84064,0.10077
1598.91192,0.09847
1596.98319,0.09626
1595.05447,0.09404
1593.12575,0.09188
1591.19702,0.08986
1589.26830,0.08783
1587.33958,0.08575
1585.41085,0.08368
1583.48213,0.08170
1581.55341,0.07989
1579.62468,0.07823
1577.69596,0.07631
1575.76723,0.07410
1573.83851,0.07261
1571.90979,0.07182
1569.98106,0.07076
1568.05234,0.06951
1566.12362,0.06867
1564.19489,0.06829
1562.26617,0.06807
1560.33745,0.06702
1558.40872,0.06457
1556.48000,0.06271
1554.55127,0.06212
1552.62255,0.06166
1550.69383,0.06079
1548.76510,0.05970
1546.83638,0.05863
1544.90766,0.05734
1542.97893,0.05537
1541.05021,0.05263
1539.12148,0.05019
1537.19276,0.04918
1535.26404,0.04852
1533.33531,0.04714
1531.40659,0.04558
1529.47787,0.04429
1527.54914,0.04268
1525.62042,0.04054
1523.69170,0.03821
1521.76297,0.03574
1519.83425,0.03358
1517.90552,0.03190
1515.97680,0.03022
1514.04808,0.02859
1512.11935,0.02724
1510.19063,0.02574
1508.26191,0.02307
1506.33318,0.01935
1504.40446,0.01702
1502.47574,0.01609
1500.54701,0.01496
1498.61829,0.01298
1496.68956,0.01079
1494.76084,0.00941
1492.83212,0.00879
1490.90339,0.00804
1488.97467,0.00693
1487.04595,0.00618
1485.11722,0.00610
1483.18850,0.00636
1481.25977,0.00678
1479.33105,0.00743
1477.40233,0.00832
1475.47360,0.00955
1473.54488,0.01150
1471.61616,0.01424
1469.68743,0.01700
1467.75871,0.01913
1465.82999,0.02057
1463.90126,0.02160
1461.97254,0.02256
1460.04381,0.02336
1458.11509,0.02370
1456.18637,0.02381
1454.25764,0.02425
1452.32892,0.02490
1450.40020,0.02539
1448.47147,0.02558
1446.54275,0.02566
1444.61403,0.02591
1442.68530,0.02631
1440.75658,0.02671
1438.82785,0.02696
1436.89913,0.02705
1434.97041,0.02729
1433.04168,0.02784
1431.11296,0.02854
1429.18424,0.02927
1427.25551,0.02999
1425.32679,0.03067
1423.39806,0.03130
1421.46934,0.03186
1419.54062,0.03229
1417.61189,0.03283
1415.68317,0.03375
1413.75445,0.03489
1411.82572,0.03600
1409.89700,0.03702
1407.96828,0.03792
1406.03955,0.03862
1404.11083,0.03907
1402.18210,0.03918
1400.25338,0.03873
1398.32466,0.03757
1396.39593,0.03587
1394.46721,0.03392
1392.53849,0.03220
1390.60976,0.03092
1388.68104,0.02967
1386.75232,0.02831
1384.82359,0.02718
1382.89487,0.02638
1380.96614,0.02566
1379.03742,0.02479
1377.10870,0.02365
1375.17997,0.02222
1373.25125,0.02079
1371.32253,0.01969
1369.39380,0.01881
1367.46508,0.01794
1365.53635,0.01698
1363.60763,0.01578
1361.67891,0.01446
1359.75018,0.01338
1357.82146,0.01263
1355.89274,0.01205
1353.96401,0.01152
1352.03529,0.01100
1350.10657,0.01044
1348.17784,0.00984
1346.24912,0.00935
1344.32039,0.00907
1342.39167,0.00886
1340.46295,0.00851
1338.53422,0.00817
1336.60550,0.00804
1334.67678,0.00801
1332.74805,0.00795
1330.81933,0.00786
1328.89061,0.00777
1326.96188,0.00771
1325.03316,0.00771
1323.10443,0.00777
1321.17571,0.00784
1319.24699,0.00790
1317.31826,0.00803
1315.38954,0.00824
1313.46082,0.00856
1311.53209,0.00893
1309.60337,0.00930
1307.67464,0.00969
1305.74592,0.01017
1303.81720,0.01077
1301.88847,0.01146
1299.95975,0.01231
1298.03103,0.01338
1296.10230,0.01467
1294.17358,0.01609
1292.24486,0.01761
1290.31613,0.01926
1288.38741,0.02109
1286.45868,0.02319
1284.52996,0.02556
1282.60124,0.02811
1280.67251,0.03092
1278.74379,0.03401
1276.81507,0.03737
1274.88634,0.04098
1272.95762,0.04501
1271.02890,0.04967
1269.10017,0.05486
1267.17145,0.06036
1265.24272,0.06633
1263.31400,0.07314
1261.38528,0.08092
1259.45655,0.08968
1257.52783,0.09938
1255.59911,0.10979
1253.67038,0.12055
1251.74166,0.13144
1249.81294,0.14231
1247.88421,0.15292
1245.95549,0.16296
1244.02676,0.17222
1242.09804,0.18072
1240.16932,0.18857
1238.24059,0.19577
1236.31187,0.20227
1234.38315,0.20827
1232.45442,0.21395
1230.52570,0.21925
1228.59697,0.22404
1226.66825,0.22843
1224.73953,0.23262
1222.81080,0.23648
1220.88208,0.24003
1218.95336,0.24351
1217.02463,0.24686
1215.09591,0.24987
1213.16719,0.25276
1211.23846,0.25567
1209.30974,0.25856
1207.38101,0.26135
1205.45229,0.26401
1203.52357,0.26657
1201.59484,0.26913
1199.66612,0.27176
1197.73740,0.27439
1195.80867,0.27693
1193.87995,0.27942
1191.95123,0.28187
1190.02250,0.28431
1188.09378,0.28672
1186.16505,0.28888
1184.23633,0.29075
1182.30761,0.29278
1180.37888,0.29525
1178.45016,0.29783
1176.52144,0.30021
1174.59271,0.30250
1172.66399,0.30470
1170.73526,0.30667
1168.80654,0.30867
1166.87782,0.31094
1164.94909,0.31332
1163.02037,0.31556
1161.09165,0.31751
1159.16292,0.31921
1157.23420,0.32094
1155.30548,0.32286
1153.37675,0.32477
1151.44803,0.32671
1149.51930,0.32885
1147.59058,0.33097
1145.66186,0.33302
1143.73313,0.33539
1141.80441,0.33795
1139.87569,0.34011
1137.94696,0.34183
1136.01824,0.34364
1134.08952,0.34609
1132.16079,0.34897
1130.23207,0.35181
1128.30334,0.35479
1126.37462,0.35803
1124.44590,0.36112
1122.51717,0.36419
1120.58845,0.36800
1118.65973,0.37258
1116.73100,0.37780
1114.80228,0.38355
1112.87355,0.38964
1110.94483,0.39600
1109.01611,0.40237
1107.08738,0.40844
1105.15866,0.41413
1103.22994,0.41950
1101.30121,0.42429
1099.37249,0.42785
1097.44377,0.42999
1095.51504,0.43133
1093.58632,0.43246
1091.65759,0.43330
1089.72887,0.43355
1087.80015,0.43317
1085.87142,0.43217
1083.94270,0.43027
1082.01398,0.42788
1080.08525,0.42591
1078.15653,0.42374
1076.22781,0.42057
1074.29908,0.41665
1072.37036,0.41249
1070.44163,0.40850
1068.51291,0.40492
1066.58419,0.40131
1064.65546,0.39696
1062.72674,0.39179
1060.79802,0.38638
1058.86929,0.38129
1056.94057,0.37636
1055.01184,0.37093
1053.08312,0.36480
1051.15440,0.35831
1049.22567,0.35183
1047.29695,0.34538
1045.36823,0.33881
1043.43950,0.33205
1041.51078,0.32537
1039.58206,0.31903
1037.65333,0.31283
1035.72461,0.30662
1033.79588,0.30044
1031.86716,0.29433
1029.93844,0.28840
1028.00971,0.28269
1026.08099,0.27702
1024.15227,0.27146
1022.22354,0.26637
1020.29482,0.26165
1018.36610,0.25707
1016.43737,0.25289
1014.50865,0.24915
1012.57992,0.24542
1010.65120,0.24166
1008.72248,0.23823
1006.79375,0.23501
1004.86503,0.23167
1002.93631,0.22834
1001.00758,0.22537
999.07886,0.22288
997.15013,0.22057
995.22141,0.21817
993.29269,0.21571
991.36396,0.21333
989.43524,0.21105
987.50652,0.20895
985.57779,0.20715
983.64907,0.20561
981.72035,0.20431
979.79162,0.20328
977.86290,0.20235
975.93417,0.20137
974.00545,0.20046
972.07673,0.19961
970.14800,0.19858
968.21928,0.19750
966.29056,0.19661
964.36183,0.19593
962.43311,0.19544
960.50439,0.19491
958.57566,0.19417
956.64694,0.19324
954.71821,0.19210
952.78949,0.19084
950.86077,0.18967
948.93204,0.18831
947.00332,0.18619
945.07460,0.18355
943.14587,0.18104
941.21715,0.17867
939.28842,0.17621
937.35970,0.17371
935.43098,0.17138
933.50225,0.16892
931.57353,0.16599
929.64481,0.16265
927.71608,0.15910
925.78736,0.15570
923.85864,0.15255
921.92991,0.14921
920.00119,0.14555
918.07246,0.14178
916.14374,0.13812
914.21502,0.13459
912.28629,0.13087
910.35757,0.12688
908.42885,0.12290
906.50012,0.11900
904.57140,0.11522
902.64268,0.11138
900.71395,0.10756
898.78523,0.10410
896.85650,0.10083
894.92778,0.09744
892.99906,0.09398
891.07033,0.09037
889.14161,0.08680
887.21289,0.08364
885.28416,0.08066
883.35544,0.07760
881.42671,0.07456
879.49799,0.07164
877.56927,0.06884
875.64054,0.06622
873.71182,0.06371
871.78310,0.06119
869.85437,0.05883
867.92565,0.05685
865.99693,0.05511
864.06820,0.05337
862.13948,0.05149
860.21075,0.04954
858.28203,0.04771
856.35331,0.04608
854.42458,0.04470
852.49586,0.04367
850.56714,0.04299
848.63841,0.04261
846.70969,0.04254
844.78097,0.04298
842.85224,0.04414
840.92352,0.04604
838.99479,0.04847
837.06607,0.05114
835.13735,0.05380
833.20862,0.05639
831.27990,0.05912
829.35118,0.06207
827.42245,0.06522
825.49373,0.06851
823.56501,0.07173
821.63628,0.07484
819.70756,0.07799
817.77883,0.08097
815.85011,0.08356
813.92139,0.08617
811.99266,0.08937
810.06394,0.09270
808.13522,0.09539
806.20649,0.09759
804.27777,0.09960
802.34904,0.10138
800.42032,0.10294
798.49160,0.10386
796.56287,0.10384
794.63415,0.10316
792.70543,0.10195
790.77670,0.10029
788.84798,0.09878
786.91926,0.09760
784.99053,0.09590
783.06181,0.09338
781.13308,0.09068
779.20436,0.08800
777.27564,0.08496
775.34691,0.08151
773.41819,0.07813
771.48947,0.07530
769.56074,0.07336
767.63202,0.07228
765.70330,0.07131
763.77457,0.07003
761.84585,0.06899
759.91712,0.06843
757.98840,0.06808
756.05968,0.06778
754.13095,0.06758
752.20223,0.06740
750.27351,0.06719
748.34478,0.06704
746.41606,0.06696
744.48733,0.06695
742.55861,0.06699
740.62989,0.06695
738.70116,0.06672
736.77244,0.06637
734.84372,0.06614
732.91499,0.06624
730.98627,0.06659
729.05755,0.06701
727.12882,0.06751
725.20010,0.06800
723.27137,0.06833
721.34265,0.06857
719.41393,0.06887
717.48520,0.06916
715.55648,0.06933
713.62776,0.06972
711.69903,0.07052
709.77031,0.07131
707.84159,0.07186
705.91286,0.07239
703.98414,0.07301
702.05541,0.07360
700.12669,0.07411
698.19797,0.07458
696.26924,0.07507
694.34052,0.07555
692.41180,0.07595
690.48307,0.07623
688.55435,0.07632
686.62562,0.07618
684.69690,0.07607
682.76818,0.07639
680.83945,0.07696
678.91073,0.07721
676.98201,0.07713
675.05328,0.07724
673.12456,0.07761
671.19584,0.07777
669.26711,0.07760
667.33839,0.07769
665.40966,0.07844
663.48094,0.07958
661.55222,0.08069
659.62349,0.08133
657.69477,0.08139
655.76605,0.08124
653.83732,0.08128
651.90860,0.08177
649.97988,0.08280
648.05115,0.08436
646.12243,0.08650
644.19370,0.08897
642.26498,0.09112
640.33626,0.09248
638.40753,0.09330
636.47881,0.09401
634.55009,0.09461
632.62136,0.09521
630.69264,0.09635
628.76391,0.09831
626.83519,0.10029
624.90647,0.10103
622.97774,0.10111
621.04902,0.10201
619.12030,0.10362
617.19157,0.10467
615.26285,0.10508
613.33413,0.10551
611.40540,0.10594
609.47668,0.10688
607.54795,0.10900
605.61923,0.11159
603.69051,0.11341
601.76178,0.11447
599.83306,0.11570
597.90434,0.11698
595.97561,0.11778
594.04689,0.11900
592.11817,0.12104
590.18944,0.12263
588.26072,0.12351
586.33199,0.12436
584.40327,0.12495
582.47455,0.12521
580.54582,0.12560
578.61710,0.12610
576.68838,0.12644
574.75965,0.12695
572.83093,0.12763
570.90220,0.12757
568.97348,0.12672
567.04476,0.12625
565.11603,0.12640
563.18731,0.12646
561.25859,0.12653
559.32986,0.12706
557.40114,0.12764
555.47242,0.12776
553.54369,0.12787
551.61497,0.12854
549.68624,0.12927
547.75752,0.12955
545.82880,0.12977
543.90007,0.13034
541.97135,0.13114
540.04263,0.13145
538.11390,0.13073
536.18518,0.12942
534.25646,0.12811
532.32773,0.12700
530.39901,0.12614
528.47028,0.12579
526.54156,0.12653
524.61284,0.12772
522.68411,0.12749
520.75539,0.12636
518.82667,0.12658
516.89794,0.12799
514.96922,0.12919
513.04049,0.13068
511.11177,0.13331
509.18305,0.13690
507.25432,0.14109
505.32560,0.14563
503.39688,0.15058
501.46815,0.15607
499.53943,0.16162
497.61071,0.16723
495.68198,0.17346
493.75326,0.18029
491.82453,0.18753
489.89581,0.19477
487.96709,0.20119
486.03836,0.20665
484.10964,0.21252
482.18092,0.22039
480.25219,0.23020
478.32347,0.23966
476.39475,0.24684
474.46602,0.25312
472.53730,0.25955
470.60857,0.26278
468.67985,0.26099
466.75113,0.25764
464.82240,0.25595
462.89368,0.25480
460.96496,0.25149
459.03623,0.24625
457.10751,0.24119
455.17878,0.23705
453.25006,0.23320
451.32134,0.22882
449.39261,0.22310
447.46389,0.21607
445.53517,0.21013
443.60644,0.20716
441.67772,0.20472
439.74900,0.19945
437.82027,0.19076
435.89155,0.18078
433.96282,0.17245
432.03410,0.16651
430.10538,0.16302
428.17665,0.16202
426.24793,0.16087
424.31921,0.15557
422.39048,0.14490
420.46176,0.13210
418.53304,0.12271
416.60431,0.12011
414.67559,0.12170
412.74686,0.12067
410.81814,0.11188
408.88942,0.10021
406.96069,0.09616
405.03197,0.10061
403.10325,0.10212
401.17452,0.09054
399.24580,0.07000
397.31708,0.05729
395.38835,0.05985
393.45963,0.06659
391.53090,0.06960
389.60218,0.06827
387.67346,0.06304
385.74473,0.05548
383.81601,0.04912
381.88729,0.04533
379.95856,0.03815
378.02984,0.02008
376.10111,0.00000
374.17239,-0.02107
372.24367,0.00145
370.31494,0.02072
368.38622,0.00000
