3996.31543,0.00000
3994.38671,0.00003
3992.45799,0.00010
3990.52926,0.00015
3988.60054,0.00017
3986.67182,0.00020
3984.74309,0.00028
3982.81437,0.00032
3980.88564,0.00020
3978.95692,0.00004
3977.02820,0.00002
3975.09947,0.00013
3973.17075,0.00030
3971.24203,0.00047
3969.31330,0.00056
3967.38458,0.00059
3965.45586,0.00067
3963.52713,0.00081
3961.59841,0.00088
3959.66968,0.00091
3957.74096,0.00096
3955.81224,0.00104
3953.88351,0.00109
3951.95479,0.00106
3950.02607,0.00083
3948.09734,0.00059
3946.16862,0.00073
3944.23990,0.00111
3942.31117,0.00120
3940.38245,0.00100
3938.45372,0.00091
3936.52500,0.00102
3934.59628,0.00113
3932.66755,0.00104
3930.73883,0.00083
3928.81011,0.00081
3926.88138,0.00100
3924.95266,0.00105
3923.02393,0.00097
3921.09521,0.00104
3919.16649,0.00115
3917.23776,0.00106
3915.30904,0.00083
3913.38032,0.00070
3911.45159,0.00072
3909.52287,0.00095
3907.59415,0.00138
3905.66542,0.00170
3903.73670,0.00151
3901.80797,0.00095
3899.87925,0.00051
3897.95053,0.00047
3896.02180,0.00081
3894.09308,0.00117
3892.16436,0.00110
3890.23563,0.00077
3888.30691,0.00069
3886.37819,0.00076
3884.44946,0.00076
3882.52074,0.00074
3880.59201,0.00054
3878.66329,0.00034
3876.73457,0.00059
3874.80584,0.00109
3872.87712,0.00136
3870.94840,0.00119
3869.01967,0.00081
3867.09095,0.00075
3865.16222,0.00079
3863.23350,0.00050
3861.30478,0.00019
3859.37605,0.00041
3857.44733,0.00117
3855.51861,0.00186
3853.58988,0.00153
3851.66116,0.00045
3849.73244,0.00000
3847.80371,0.00017
3845.87499,0.00049
3843.94626,0.00078
3842.01754,0.00110
3840.08882,0.00130
3838.16009,0.00106
3836.23137,0.00058
3834.30265,0.00028
3832.37392,0.00021
3830.44520,0.00035
3828.51648,0.00065
3826.58775,0.00101
3824.65903,0.00151
3822.73030,0.00188
3820.80158,0.00165
3818.87286,0.00120
3816.94413,0.00096
3815.01541,0.00075
3813.08669,0.00076
3811.15796,0.00119
3809.22924,0.00170
3807.30052,0.00186
3805.37179,0.00188
3803.44307,0.00205
3801.51434,0.00193
3799.58562,0.00158
3797.65690,0.00158
3795.72817,0.00179
3793.79945,0.00200
3791.87073,0.00219
3789.94200,0.00240
3788.01328,0.00261
3786.08455,0.00282
3784.15583,0.00319
3782.22711,0.00377
3780.29838,0.00414
3778.36966,0.00399
3776.44094,0.00387
3774.51221,0.00422
3772.58349,0.00476
3770.65477,0.00506
3768.72604,0.00517
3766.79732,0.00537
3764.86859,0.00566
3762.93987,0.00608
3761.01115,0.00658
3759.08242,0.00688
3757.15370,0.00705
3755.22498,0.00759
3753.29625,0.00834
3751.36753,0.00865
3749.43881,0.00868
3747.51008,0.00917
3745.58136,0.00983
3743.65263,0.01051
3741.72391,0.01163
3739.79519,0.01312
3737.86646,0.01447
3735.93774,0.01530
3734.00902,0.01578
3732.08029,0.01663
3730.15157,0.01811
3728.22284,0.01985
3726.29412,0.02148
3724.36540,0.02303
3722.43667,0.02479
3720.50795,0.02683
3718.57923,0.02909
3716.65050,0.03152
3714.72178,0.03417
3712.79306,0.03710
3710.86433,0.04002
3708.93561,0.04277
3707.00688,0.04556
3705.07816,0.04870
3703.14944,0.05231
3701.22071,0.05607
3699.29199,0.05956
3697.36327,0.06276
3695.43454,0.06596
3693.50582,0.06935
3691.57710,0.07301
3689.64837,0.07686
3687.71965,0.08067
3685.79092,0.08445
3683.86220,0.08839
3681.93348,0.09256
3680.00475,0.09676
3678.07603,0.10102
3676.14731,0.10572
3674.21858,0.11062
3672.28986,0.11512
3670.36113,0.11966
3668.43241,0.12433
3666.50369,0.12860
3664.57496,0.13263
3662.64624,0.13671
3660.71752,0.14073
3658.78879,0.14458
3656.86007,0.14838
3654.93135,0.15207
3653.00262,0.15549
3651.07390,0.15889
3649.14517,0.16254
3647.21645,0.16621
3645.28773,0.16949
3643.35900,0.17247
3641.43028,0.17544
3639.50156,0.17844
3637.57283,0.18133
3635.64411,0.18405
3633.71539,0.18666
3631.78666,0.18921
3629.85794,0.19176
3627.92921,0.19448
3626.00049,0.19734
3624.07177,0.20010
3622.14304,0.20253
3620.21432,0.20452
3618.28560,0.20622
3616.35687,0.20794
3614.42815,0.20978
3612.49942,0.21154
3610.57070,0.21313
3608.64198,0.21463
3606.71325,0.21620
3604.78453,0.21799
3602.85581,0.21994
3600.92708,0.22189
3598.99836,0.22373
3597.06964,0.22542
3595.14091,0.22693
3593.21219,0.22831
3591.28346,0.22968
3589.35474,0.23117
3587.42602,0.23289
3585.49729,0.23484
3583.56857,0.23662
3581.63985,0.23803
3579.71112,0.23936
3577.78240,0.24083
3575.85368,0.24234
3573.92495,0.24383
3571.99623,0.24540
3570.06750,0.24689
3568.13878,0.24802
3566.21006,0.24900
3564.28133,0.25028
3562.35261,0.25185
3560.42389,0.25338
3558.49516,0.25467
3556.56644,0.25589
3554.63771,0.25720
3552.70899,0.25861
3550.78027,0.25987
3548.85154,0.26090
3546.92282,0.26195
3544.99410,0.26324
3543.06537,0.26463
3541.13665,0.26583
3539.20793,0.26681
3537.27920,0.26776
3535.35048,0.26886
3533.42175,0.27009
3531.49303,0.27131
3529.56431,0.27245
3527.63558,0.27348
3525.70686,0.27457
3523.77814,0.27586
3521.84941,0.27719
3519.92069,0.27837
3517.99197,0.27930
3516.06324,0.28010
3514.13452,0.28105
3512.20579,0.28215
3510.27707,0.28320
3508.34835,0.28416
3506.41962,0.28511
3504.49090,0.28606
3502.56218,0.28697
3500.63345,0.28785
3498.70473,0.28875
3496.77600,0.28971
3494.84728,0.29079
3492.91856,0.29189
3490.98983,0.29272
3489.06111,0.29324
3487.13239,0.29368
3485.20366,0.29431
3483.27494,0.29518
3481.34622,0.29626
3479.41749,0.29728
3477.48877,0.29797
3475.56004,0.29847
3473.63132,0.29910
3471.70260,0.29992
3469.77387,0.30073
3467.84515,0.30136
3465.91643,0.30194
3463.98770,0.30270
3462.05898,0.30360
3460.13026,0.30445
3458.20153,0.30529
3456.27281,0.30597
3454.34408,0.30631
3452.41536,0.30644
3450.48664,0.30672
3448.55791,0.30729
3446.62919,0.30802
3444.70047,0.30863
3442.77174,0.30897
3440.84302,0.30923
3438.91429,0.30961
3436.98557,0.31005
3435.05685,0.31036
3433.12812,0.31057
3431.19940,0.31088
3429.27068,0.31129
3427.34195,0.31165
3425.41323,0.31186
3423.48451,0.31198
3421.55578,0.31207
3419.62706,0.31219
3417.69833,0.31243
3415.76961,0.31277
3413.84089,0.31308
3411.91216,0.31321
3409.98344,0.31321
3408.05472,0.31329
3406.12599,0.31342
3404.19727,0.31345
3402.26855,0.31349
3400.33982,0.31357
3398.41110,0.31342
3396.48237,0.31317
3394.55365,0.31305
3392.62493,0.31311
3390.69620,0.31328
3388.76748,0.31339
3386.83876,0.31320
3384.91003,0.31282
3382.98131,0.31257
3381.05259,0.31233
3379.12386,0.31188
3377.19514,0.31146
3375.26641,0.31133
3373.33769,0.31125
3371.40897,0.31092
3369.48024,0.31055
3367.55152,0.31034
3365.62280,0.31007
3363.69407,0.30962
3361.76535,0.30925
3359.83662,0.30917
3357.90790,0.30910
3355.97918,0.30864
3354.05045,0.30792
3352.12173,0.30736
3350.19301,0.30698
3348.26428,0.30661
3346.33556,0.30626
3344.40684,0.30609
3342.47811,0.30614
3340.54939,0.30602
3338.62066,0.30555
3336.69194,0.30493
3334.76322,0.30433
3332.83449,0.30372
3330.90577,0.30319
3328.97705,0.30284
3327.04832,0.30259
3325.11960,0.30217
3323.19088,0.30148
3321.26215,0.30087
3319.33343,0.30051
3317.40470,0.30022
3315.47598,0.29984
3313.54726,0.29938
3311.61853,0.29891
3309.68981,0.29850
3307.76109,0.29815
3305.83236,0.29780
3303.90364,0.29746
3301.97491,0.29715
3300.04619,0.29682
3298.11747,0.29636
3296.18874,0.29575
3294.26002,0.29517
3292.33130,0.29477
3290.40257,0.29450
3288.47385,0.29425
3286.54513,0.29395
3284.61640,0.29352
3282.68768,0.29297
3280.75895,0.29244
3278.83023,0.29201
3276.90151,0.29158
3274.97278,0.29112
3273.04406,0.29079
3271.11534,0.29052
3269.18661,0.29009
3267.25789,0.28943
3265.32917,0.28874
3263.40044,0.28821
3261.47172,0.28783
3259.54299,0.28744
3257.61427,0.28702
3255.68555,0.28659
3253.75682,0.28605
3251.82810,0.28535
3249.89938,0.28467
3247.97065,0.28420
3246.04193,0.28384
3244.11320,0.28340
3242.18448,0.28277
3240.25576,0.28202
3238.32703,0.28136
3236.39831,0.28088
3234.46959,0.28038
3232.54086,0.27976
3230.61214,0.27913
3228.68342,0.27856
3226.75469,0.27797
3224.82597,0.27725
3222.89724,0.27639
3220.96852,0.27550
3219.03980,0.27469
3217.11107,0.27397
3215.18235,0.27331
3213.25363,0.27266
3211.32490,0.27196
3209.39618,0.27113
3207.46746,0.27020
3205.53873,0.26926
3203.61001,0.26840
3201.68128,0.26763
3199.75256,0.26684
3197.82384,0.26601
3195.89511,0.26521
3193.96639,0.26441
3192.03767,0.26358
3190.10894,0.26277
3188.18022,0.26193
3186.25149,0.26096
3184.32277,0.25996
3182.39405,0.25906
3180.46532,0.25816
3178.53660,0.25713
3176.60788,0.25611
3174.67915,0.25511
3172.75043,0.25401
3170.82171,0.25295
3168.89298,0.25208
3166.96426,0.25129
3165.03553,0.25033
3163.10681,0.24923
3161.17809,0.24825
3159.24936,0.24738
3157.32064,0.24644
3155.39192,0.24543
3153.46319,0.24436
3151.53447,0.24324
3149.60575,0.24221
3147.67702,0.24131
3145.74830,0.24037
3143.81957,0.23933
3141.89085,0.23830
3139.96213,0.23739
3138.03340,0.23652
3136.10468,0.23549
3134.17596,0.23437
3132.24723,0.23334
3130.31851,0.23238
3128.38978,0.23142
3126.46106,0.23043
3124.53234,0.22938
3122.60361,0.22829
3120.67489,0.22731
3118.74617,0.22643
3116.81744,0.22556
3114.88872,0.22457
3112.96000,0.22339
3111.03127,0.22212
3109.10255,0.22089
3107.17382,0.21973
3105.24510,0.21868
3103.31638,0.21773
3101.38765,0.21669
3099.45893,0.21543
3097.53021,0.21404
3095.60148,0.21266
3093.67276,0.21145
3091.74404,0.21042
3089.81531,0.20943
3087.88659,0.20837
3085.95786,0.20722
3084.02914,0.20607
3082.10042,0.20496
3080.17169,0.20373
3078.24297,0.20235
3076.31425,0.20096
3074.38552,0.19963
3072.45680,0.19844
3070.52807,0.19744
3068.59935,0.19645
3066.67063,0.19521
3064.74190,0.19384
3062.81318,0.19265
3060.88446,0.19151
3058.95573,0.19025
3057.02701,0.18898
3055.09829,0.18785
3053.16956,0.18673
3051.24084,0.18558
3049.31211,0.18451
3047.38339,0.18346
3045.45467,0.18239
3043.52594,0.18138
3041.59722,0.18037
3039.66850,0.17928
3037.73977,0.17822
3035.81105,0.17717
3033.88233,0.17606
3031.95360,0.17499
3030.02488,0.17399
3028.09615,0.17302
3026.16743,0.17214
3024.23871,0.17129
3022.30998,0.17035
3020.38126,0.16943
3018.45254,0.16856
3016.52381,0.16771
3014.59509,0.16690
3012.66636,0.16609
3010.73764,0.16517
3008.80892,0.16420
3006.88019,0.16336
3004.95147,0.16267
3003.02275,0.16197
3001.09402,0.16120
2999.16530,0.16043
2997.23658,0.15964
2995.30785,0.15884
2993.37913,0.15808
2991.45040,0.15746
2989.52168,0.15699
2987.59296,0.15663
2985.66423,0.15638
2983.73551,0.15626
2981.80679,0.15615
2979.87806,0.15604
2977.94934,0.15601
2976.02062,0.15603
2974.09189,0.15603
2972.16317,0.15606
2970.23444,0.15616
2968.30572,0.15621
2966.37700,0.15617
2964.44827,0.15617
2962.51955,0.15617
2960.59083,0.15602
2958.66210,0.15560
2956.73338,0.15499
2954.80466,0.15445
2952.87593,0.15397
2950.94721,0.15343
2949.01848,0.15298
2947.08976,0.15278
2945.16104,0.15295
2943.23231,0.15352
2941.30359,0.15427
2939.37487,0.15495
2937.44614,0.15560
2935.51742,0.15636
2933.58869,0.15714
2931.65997,0.15774
2929.73125,0.15806
2927.80252,0.15802
2925.87380,0.15747
2923.94508,0.15633
2922.01635,0.15455
2920.08763,0.15218
2918.15891,0.14949
2916.23018,0.14672
2914.30146,0.14402
2912.37273,0.14148
2910.44401,0.13916
2908.51529,0.13698
2906.58656,0.13505
2904.65784,0.13343
2902.72912,0.13192
2900.80039,0.13036
2898.87167,0.12875
2896.94295,0.12719
2895.01422,0.12575
2893.08550,0.12440
2891.15677,0.12304
2889.22805,0.12177
2887.29933,0.12066
2885.37060,0.11966
2883.44188,0.11877
2881.51316,0.11795
2879.58443,0.11716
2877.65571,0.11645
2875.72698,0.11584
2873.79826,0.11526
2871.86954,0.11462
2869.94081,0.11388
2868.01209,0.11314
2866.08337,0.11254
2864.15464,0.11219
2862.22592,0.11224
2860.29720,0.11265
2858.36847,0.11320
2856.43975,0.11356
2854.51102,0.11339
2852.58230,0.11229
2850.65358,0.11015
2848.72485,0.10728
2846.79613,0.10417
2844.86741,0.10119
2842.93868,0.09857
2841.00996,0.09636
2839.08124,0.09437
2837.15251,0.09251
2835.22379,0.09088
2833.29506,0.08951
2831.36634,0.08831
2829.43762,0.08721
2827.50889,0.08623
2825.58017,0.08536
2823.65145,0.08443
2821.72272,0.08337
2819.79400,0.08235
2817.86527,0.08153
2815.93655,0.08079
2814.00783,0.07996
2812.07910,0.07903
2810.15038,0.07812
2808.22166,0.07726
2806.29293,0.07642
2804.36421,0.07568
2802.43549,0.07503
2800.50676,0.07436
2798.57804,0.07365
2796.64931,0.07286
2794.72059,0.07208
2792.79187,0.07140
2790.86314,0.07075
2788.93442,0.07001
2787.00570,0.06928
2785.07697,0.06860
2783.14825,0.06796
2781.21953,0.06732
2779.29080,0.06668
2777.36208,0.06606
2775.43335,0.06542
2773.50463,0.06478
2771.57591,0.06422
2769.64718,0.06368
2767.71846,0.06303
2765.78974,0.06229
2763.86101,0.06162
2761.93229,0.06101
2760.00356,0.06036
2758.07484,0.05970
2756.14612,0.05912
2754.21739,0.05860
2752.28867,0.05807
2750.35995,0.05756
2748.43122,0.05708
2746.50250,0.05650
2744.57378,0.05584
2742.64505,0.05527
2740.71633,0.05482
2738.78760,0.05433
2736.85888,0.05373
2734.93016,0.05314
2733.00143,0.05262
2731.07271,0.05209
2729.14399,0.05146
2727.21526,0.05079
2725.28654,0.05018
2723.35782,0.04964
2721.42909,0.04915
2719.50037,0.04868
2717.57164,0.04815
2715.64292,0.04763
2713.71420,0.04717
2711.78547,0.04671
2709.85675,0.04615
2707.92803,0.04558
2705.99930,0.04507
2704.07058,0.04456
2702.14185,0.04402
2700.21313,0.04349
2698.28441,0.04301
2696.35568,0.04258
2694.42696,0.04217
2692.49824,0.04173
2690.56951,0.04125
2688.64079,0.04074
2686.71207,0.04023
2684.78334,0.03974
2682.85462,0.03928
2680.92589,0.03888
2678.99717,0.03849
2677.06845,0.03803
2675.13972,0.03755
2673.21100,0.03714
2671.28228,0.03679
2669.35355,0.03648
2667.42483,0.03609
2665.49611,0.03559
2663.56738,0.03504
2661.63866,0.03456
2659.70993,0.03416
2657.78121,0.03376
2655.85249,0.03334
2653.92376,0.03293
2651.99504,0.03256
2650.06632,0.03218
2648.13759,0.03176
2646.20887,0.03132
2644.28014,0.03090
2642.35142,0.03052
2640.42270,0.03019
2638.49397,0.02986
2636.56525,0.02948
2634.63653,0.02910
2632.70780,0.02874
2630.77908,0.02842
2628.85036,0.02807
2626.92163,0.02767
2624.99291,0.02725
2623.06418,0.02689
2621.13546,0.02661
2619.20674,0.02634
2617.27801,0.02606
2615.34929,0.02577
2613.42057,0.02544
2611.49184,0.02502
2609.56312,0.02458
2607.63440,0.02420
2605.70567,0.02391
2603.77695,0.02365
2601.84822,0.02335
2599.91950,0.02302
2597.99078,0.02271
2596.06205,0.02243
2594.13333,0.02217
2592.20461,0.02187
2590.27588,0.02156
2588.34716,0.02128
2586.41843,0.02101
2584.48971,0.02077
2582.56099,0.02057
2580.63226,0.02027
2578.70354,0.01987
2576.77482,0.01956
2574.84609,0.01936
2572.91737,0.01918
2570.98865,0.01901
2569.05992,0.01885
2567.13120,0.01864
2565.20247,0.01839
2563.27375,0.01815
2561.34503,0.01796
2559.41630,0.01780
2557.48758,0.01759
2555.55886,0.01731
2553.63013,0.01704
2551.70141,0.01678
2549.77269,0.01654
2547.84396,0.01633
2545.91524,0.01613
2543.98651,0.01595
2542.05779,0.01580
2540.12907,0.01567
2538.20034,0.01550
2536.27162,0.01527
2534.34290,0.01502
2532.41417,0.01476
2530.48545,0.01453
2528.55673,0.01434
2526.62800,0.01418
2524.69928,0.01398
2522.77055,0.01380
2520.84183,0.01367
2518.91311,0.01354
2516.98438,0.01329
2515.05566,0.01300
2513.12694,0.01288
2511.19821,0.01289
2509.26949,0.01280
2507.34076,0.01256
2505.41204,0.01234
2503.48332,0.01221
2501.55459,0.01204
2499.62587,0.01180
2497.69715,0.01162
2495.76842,0.01148
2493.83970,0.01128
2491.91098,0.01104
2489.98225,0.01081
2488.05353,0.01061
2486.12480,0.01046
2484.19608,0.01036
2482.26736,0.01028
2480.33863,0.01016
2478.40991,0.00999
2476.48119,0.00974
2474.55246,0.00944
2472.62374,0.00921
2470.69502,0.00913
2468.76629,0.00908
2466.83757,0.00893
2464.90884,0.00875
2462.98012,0.00856
2461.05140,0.00836
2459.12267,0.00813
2457.19395,0.00790
2455.26523,0.00774
2453.33650,0.00770
2451.40778,0.00769
2449.47905,0.00759
2447.55033,0.00740
2445.62161,0.00713
2443.69288,0.00688
2441.76416,0.00673
2439.83544,0.00667
2437.90671,0.00661
2435.97799,0.00647
2434.04927,0.00631
2432.12054,0.00623
2430.19182,0.00615
2428.26309,0.00599
2426.33437,0.00582
2424.40565,0.00571
2422.47692,0.00555
2420.54820,0.00537
2418.61948,0.00526
2416.69075,0.00511
2414.76203,0.00494
2412.83331,0.00479
2410.90458,0.00466
2408.97586,0.00454
2407.04713,0.00445
2405.11841,0.00431
2403.18969,0.00414
2401.26096,0.00405
2399.33224,0.00397
2397.40352,0.00385
2395.47479,0.00369
2393.54607,0.00353
2391.61734,0.00344
2389.68862,0.00343
2387.75990,0.00345
2385.83117,0.00344
2383.90245,0.00344
2381.97373,0.00345
2380.04500,0.00346
2378.11628,0.00345
2376.18756,0.00340
2374.25883,0.00338
2372.33011,0.00345
2370.40138,0.00358
2368.47266,0.00363
2366.54394,0.00358
2364.61521,0.00343
2362.68649,0.00331
2360.75777,0.00326
2358.82904,0.00309
2356.90032,0.00279
2354.97160,0.00249
2353.04287,0.00243
2351.11415,0.00278
2349.18542,0.00308
2347.25670,0.00281
2345.32798,0.00232
2343.39925,0.00219
2341.47053,0.00234
2339.54181,0.00250
2337.61308,0.00260
2335.68436,0.00261
2333.75563,0.00245
2331.82691,0.00215
2329.89819,0.00185
2327.96946,0.00167
2326.04074,0.00162
2324.11202,0.00158
2322.18329,0.00150
2320.25457,0.00147
2318.32585,0.00156
2316.39712,0.00168
2314.46840,0.00168
2312.53967,0.00150
2310.61095,0.00126
2308.68223,0.00113
2306.75350,0.00114
2304.82478,0.00116
2302.89606,0.00112
2300.96733,0.00102
2299.03861,0.00090
2297.10989,0.00083
2295.18116,0.00080
2293.25244,0.00080
2291.32371,0.00079
2289.39499,0.00079
2287.46627,0.00078
2285.53754,0.00075
2283.60882,0.00067
2281.68010,0.00060
2279.75137,0.00057
2277.82265,0.00053
2275.89392,0.00050
2273.96520,0.00054
2272.03648,0.00065
2270.10775,0.00070
2268.17903,0.00066
2266.25031,0.00058
2264.32158,0.00053
2262.39286,0.00050
2260.46414,0.00049
2258.53541,0.00050
2256.60669,0.00051
2254.67796,0.00050
2252.74924,0.00047
2250.82052,0.00043
2248.89179,0.00034
2246.96307,0.00025
2245.03435,0.00026
2243.10562,0.00033
2241.17690,0.00033
2239.24818,0.00027
2237.31945,0.00018
2235.39073,0.00015
2233.46200,0.00021
2231.53328,0.00026
2229.60456,0.00021
2227.67583,0.00012
2225.74711,0.00007
2223.81839,0.00013
2221.88966,0.00021
2219.96094,0.00022
2218.03221,0.00017
2216.10349,0.00015
2214.17477,0.00014
2212.24604,0.00011
2210.31732,0.00005
2208.38860,0.00001
2206.45987,0.00000
2204.53115,-0.00000
2202.60243,0.00003
2200.67370,0.00008
2198.74498,0.00010
2196.81625,0.00007
2194.88753,0.00002
2192.95881,-0.00002
2191.03008,-0.00003
2189.10136,-0.00002
2187.17264,-0.00001
2185.24391,-0.00001
2183.31519,-0.00004
2181.38647,-0.00008
2179.45774,-0.00006
2177.52902,0.00002
2175.60029,0.00005
2173.67157,0.00001
2171.74285,-0.00001
2169.81412,0.00005
2167.88540,0.00011
2165.95668,0.00010
2164.02795,0.00005
2162.09923,0.00004
2160.17050,0.00006
2158.24178,0.00012
2156.31306,0.00017
2154.38433,0.00014
2152.45561,0.00009
2150.52689,0.00009
2148.59816,0.00014
2146.66944,0.00015
2144.74072,0.00011
2142.81199,0.00008
2140.88327,0.00006
2138.95454,0.00008
2137.02582,0.00008
2135.09710,0.00005
2133.16837,0.00004
2131.23965,0.00006
2129.31093,0.00006
2127.38220,0.00001
2125.45348,-0.00009
2123.52476,-0.00014
2121.59603,-0.00009
2119.66731,-0.00004
2117.73858,-0.00006
2115.80986,-0.00012
2113.88114,-0.00013
2111.95241,-0.00007
2110.02369,-0.00007
2108.09497,-0.00013
2106.16624,-0.00015
2104.23752,-0.00008
2102.30880,0.00002
2100.38007,0.00008
2098.45135,0.00005
2096.52262,0.00001
2094.59390,0.00000
2092.66518,-0.00012
2090.73645,-0.00023
2088.80773,-0.00027
2086.87901,-0.00032
2084.95028,-0.00038
2083.02156,-0.00042
2081.09283,-0.00045
2079.16411,-0.00051
2077.23539,-0.00057
2075.30666,-0.00060
2073.37794,-0.00061
2071.44922,-0.00059
2069.52049,-0.00056
2067.59177,-0.00053
2065.66305,-0.00047
2063.73432,-0.00035
2061.80560,-0.00026
2059.87687,-0.00025
2057.94815,-0.00027
2056.01943,-0.00023
2054.09070,-0.00012
2052.16198,0.00003
2050.23326,0.00018
2048.30453,0.00034
2046.37581,0.00052
2044.44709,0.00068
2042.51836,0.00078
2040.58964,0.00087
2038.66091,0.00102
2036.73219,0.00124
2034.80347,0.00144
2032.87474,0.00165
2030.94602,0.00187
2029.01730,0.00208
2027.08857,0.00223
2025.15985,0.00232
2023.23112,0.00245
2021.30240,0.00267
2019.37368,0.00291
2017.44495,0.00302
2015.51623,0.00302
2013.58751,0.00305
2011.65878,0.00313
2009.73006,0.00321
2007.80134,0.00327
2005.87261,0.00335
2003.94389,0.00345
2002.01516,0.00350
2000.08644,0.00350
1998.15772,0.00350
1996.22899,0.00355
1994.30027,0.00359
1992.37155,0.00354
1990.44282,0.00342
1988.51410,0.00338
1986.58538,0.00341
1984.65665,0.00347
1982.72793,0.00347
1980.79920,0.00336
1978.87048,0.00321
1976.94176,0.00304
1975.01303,0.00292
1973.08431,0.00284
1971.15559,0.00273
1969.22686,0.00256
1967.29814,0.00239
1965.36941,0.00220
1963.44069,0.00202
1961.51197,0.00183
1959.58324,0.00167
1957.65452,0.00154
1955.72580,0.00141
1953.79707,0.00124
1951.86835,0.00105
1949.93963,0.00086
1948.01090,0.00069
1946.08218,0.00056
1944.15345,0.00042
1942.22473,0.00023
1940.29601,0.00010
1938.36728,0.00007
1936.43856,0.00002
1934.50984,-0.00007
1932.58111,-0.00013
1930.65239,-0.00015
1928.72367,-0.00011
1926.79494,0.00000
1924.86622,0.00013
1922.93749,0.00020
1921.00877,0.00025
1919.08005,0.00034
1917.15132,0.00053
1915.22260,0.00080
1913.29388,0.00113
1911.36515,0.00150
1909.43643,0.00191
1907.50770,0.00231
1905.57898,0.00269
1903.65026,0.00310
1901.72153,0.00358
1899.79281,0.00407
1897.86409,0.00457
1895.93536,0.00506
1894.00664,0.00553
1892.07792,0.00599
1890.14919,0.00640
1888.22047,0.00671
1886.29174,0.00696
1884.36302,0.00724
1882.43430,0.00753
1880.50557,0.00778
1878.57685,0.00793
1876.64813,0.00802
1874.71940,0.00813
1872.79068,0.00824
1870.86196,0.00823
1868.93323,0.00794
1867.00451,0.00748
1865.07578,0.00710
1863.14706,0.00684
1861.21834,0.00656
1859.28961,0.00618
1857.36089,0.00572
1855.43217,0.00524
1853.50344,0.00481
1851.57472,0.00441
1849.64599,0.00405
1847.71727,0.00370
1845.78855,0.00325
1843.85982,0.00262
1841.93110,0.00204
1840.00238,0.00172
1838.07365,0.00152
1836.14493,0.00130
1834.21621,0.00114
1832.28748,0.00105
1830.35876,0.00082
1828.43003,0.00045
1826.50131,0.00016
1824.57259,0.00000
1822.64386,-0.00009
1820.71514,-0.00007
1818.78642,-0.00005
1816.85769,-0.00006
1814.92897,0.00000
1813.00025,-0.00003
1811.07152,-0.00009
1809.14280,-0.00013
1807.21407,-0.00006
1805.28535,0.00013
1803.35663,0.00039
1801.42790,0.00068
1799.49918,0.00101
1797.57046,0.00135
1795.64173,0.00177
1793.71301,0.00230
1791.78428,0.00287
1789.85556,0.00343
1787.92684,0.00408
1785.99811,0.00492
1784.06939,0.00586
1782.14067,0.00680
1780.21194,0.00768
1778.28322,0.00856
1776.35450,0.00951
1774.42577,0.01049
1772.49705,0.01137
1770.56832,0.01217
1768.63960,0.01304
1766.71088,0.01395
1764.78215,0.01483
1762.85343,0.01567
1760.92471,0.01653
1758.99598,0.01742
1757.06726,0.01839
1755.13854,0.01944
1753.20981,0.02057
1751.28109,0.02185
1749.35236,0.02325
1747.42364,0.02471
1745.49492,0.02626
1743.56619,0.02793
1741.63747,0.02968
1739.70875,0.03151
1737.78002,0.03332
1735.85130,0.03524
1733.92257,0.03756
1731.99385,0.04004
1730.06513,0.04244
1728.13640,0.04487
1726.20768,0.04735
1724.27896,0.04982
1722.35023,0.05213
1720.42151,0.05423
1718.49279,0.05633
1716.56406,0.05856
1714.63534,0.06075
1712.70661,0.06283
1710.77789,0.06488
1708.84917,0.06698
1706.92044,0.06923
1704.99172,0.07156
1703.06300,0.07391
1701.13427,0.07655
1699.20555,0.07954
1697.27683,0.08249
1695.34810,0.08542
1693.41938,0.08821
1691.49065,0.09093
1689.56193,0.09389
1687.63321,0.09700
1685.70448,0.10049
1683.77576,0.10458
1681.84704,0.10820
1679.91831,0.11103
1677.98959,0.11379
1676.06087,0.11690
1674.13214,0.12018
1672.20342,0.12328
1670.27469,0.12639
1668.34597,0.12941
1666.41725,0.13189
1664.48852,0.13420
1662.55980,0.13677
1660.63108,0.13920
1658.70235,0.14111
1656.77363,0.14276
1654.84490,0.14453
1652.91618,0.14637
1650.98746,0.14770
1649.05873,0.14874
1647.13001,0.15003
1645.20129,0.15133
1643.27256,0.15226
1641.34384,0.15303
1639.41512,0.15374
1637.48639,0.15408
1635.55767,0.15386
1633.62894,0.15353
1631.70022,0.15338
1629.77150,0.15309
1627.84277,0.15231
1625.91405,0.15100
1623.98533,0.14914
1622.05660,0.14702
1620.12788,0.14503
1618.19916,0.14260
1616.27043,0.13911
1614.34171,0.13547
1612.41298,0.13240
1610.48426,0.12941
1608.55554,0.12619
1606.62681,0.12298
1604.69809,0.11989
1602.76937,0.11685
1600.84064,0.11392
1598.91192,0.11119
1596.98319,0.10857
1595.05447,0.10595
1593.12575,0.10337
1591.19702,0.10089
1589.26830,0.09851
1587.33958,0.09620
1585.41085,0.09393
1583.48213,0.09173
1581.55341,0.08978
1579.62468,0.08813
1577.69596,0.08633
1575.76723,0.08402
1573.83851,0.08198
1571.90979,0.08058
1569.98106,0.07916
1568.05234,0.07755
1566.12362,0.07624
1564.19489,0.07540
1562.26617,0.07496
1560.33745,0.07421
1558.40872,0.07223
1556.48000,0.07013
1554.55127,0.06883
1552.62255,0.06795
1550.69383,0.06706
1548.76510,0.06605
1546.83638,0.06500
1544.90766,0.06387
1542.97893,0.06240
1541.05021,0.06026
1539.12148,0.05776
1537.19276,0.05590
1535.26404,0.05440
1533.33531,0.05246
1531.40659,0.05036
1529.47787,0.04863
1527.54914,0.04692
1525.62042,0.04499
1523.69170,0.04304
1521.76297,0.04087
1519.83425,0.03856
1517.90552,0.03647
1515.97680,0.03452
1514.04808,0.03272
1512.11935,0.03119
1510.19063,0.02969
1508.26191,0.02745
1506.33318,0.02425
1504.40446,0.02165
1502.47574,0.02010
1500.54701,0.01877
1498.61829,0.01716
1496.68956,0.01540
1494.76084,0.01402
1492.83212,0.01312
1490.90339,0.01237
1488.97467,0.01159
1487.04595,0.01113
1485.11722,0.01120
1483.18850,0.01167
1481.25977,0.01237
1479.33105,0.01327
1477.40233,0.01448
1475.47360,0.01619
1473.54488,0.01842
1471.61616,0.02087
1469.68743,0.02295
1467.75871,0.02468
1465.82999,0.02630
1463.90126,0.02771
1461.97254,0.02883
1460.04381,0.02981
1458.11509,0.03060
1456.18637,0.03107
1454.25764,0.03141
1452.32892,0.03183
1450.40020,0.03231
1448.47147,0.03269
1446.54275,0.03292
1444.61403,0.03314
1442.68530,0.03349
1440.75658,0.03399
1438.82785,0.03456
1436.89913,0.03510
1434.97041,0.03556
1433.04168,0.03600
1431.11296,0.03656
1429.18424,0.03720
1427.25551,0.03783
1425.32679,0.03852
1423.39806,0.03932
1421.46934,0.04021
1419.54062,0.04123
1417.61189,0.04233
1415.68317,0.04342
1413.75445,0.04457
1411.82572,0.04589
1409.89700,0.04738
1407.96828,0.04902
1406.03955,0.05064
1404.11083,0.05196
1402.18210,0.05269
1400.25338,0.05250
1398.32466,0.05124
1396.39593,0.04918
1394.46721,0.04681
1392.53849,0.04468
1390.60976,0.04332
1388.68104,0.04316
1386.75232,0.04404
1384.82359,0.04436
1382.89487,0.04250
1380.96614,0.03893
1379.03742,0.03543
1377.10870,0.03286
1375.17997,0.03078
1373.25125,0.02880
1371.32253,0.02708
1369.39380,0.02567
1367.46508,0.02442
1365.53635,0.02325
1363.60763,0.02205
1361.67891,0.02081
1359.75018,0.01974
1357.82146,0.01887
1355.89274,0.01810
1353.96401,0.01737
1352.03529,0.01665
1350.10657,0.01590
1348.17784,0.01517
1346.24912,0.01456
1344.32039,0.01410
1342.39167,0.01369
1340.46295,0.01325
1338.53422,0.01282
1336.60550,0.01252
1334.67678,0.01234
1332.74805,0.01220
1330.81933,0.01212
1328.89061,0.01217
1326.96188,0.01233
1325.03316,0.01252
1323.10443,0.01269
1321.17571,0.01288
1319.24699,0.01321
1317.31826,0.01367
1315.38954,0.01412
1313.46082,0.01442
1311.53209,0.01471
1309.60337,0.01516
1307.67464,0.01569
1305.74592,0.01622
1303.81720,0.01684
1301.88847,0.01769
1299.95975,0.01873
1298.03103,0.01987
1296.10230,0.02115
1294.17358,0.02261
1292.24486,0.02418
1290.31613,0.02592
1288.38741,0.02804
1286.45868,0.03059
1284.52996,0.03336
1282.60124,0.03623
1280.67251,0.03931
1278.74379,0.04273
1276.81507,0.04649
1274.88634,0.05061
1272.95762,0.05521
1271.02890,0.06050
1269.10017,0.06658
1267.17145,0.07341
1265.24272,0.08100
1263.31400,0.08940
1261.38528,0.09883
1259.45655,0.10938
1257.52783,0.12082
1255.59911,0.13292
1253.67038,0.14549
1251.74166,0.15816
1249.81294,0.17057
1247.88421,0.18244
1245.95549,0.19352
1244.02676,0.20364
1242.09804,0.21280
1240.16932,0.22108
1238.24059,0.22864
1236.31187,0.23564
1234.38315,0.24216
1232.45442,0.24808
1230.52570,0.25331
1228.59697,0.25814
1226.66825,0.26279
1224.73953,0.26716
1222.81080,0.27107
1220.88208,0.27467
1218.95336,0.27815
1217.02463,0.28152
1215.09591,0.28472
1213.16719,0.28773
1211.23846,0.29065
1209.30974,0.29358
1207.38101,0.29660
1205.45229,0.29968
1203.52357,0.30269
1201.59484,0.30553
1199.66612,0.30814
1197.73740,0.31048
1195.80867,0.31283
1193.87995,0.31532
1191.95123,0.31788
1190.02250,0.32050
1188.09378,0.32320
1186.16505,0.32585
1184.23633,0.32812
1182.30761,0.33011
1180.37888,0.33247
1178.45016,0.33518
1176.52144,0.33768
1174.59271,0.34002
1172.66399,0.34264
1170.73526,0.34574
1168.80654,0.34881
1166.87782,0.35113
1164.94909,0.35291
1163.02037,0.35478
1161.09165,0.35697
1159.16292,0.35923
1157.23420,0.36129
1155.30548,0.36339
1153.37675,0.36585
1151.44803,0.36835
1149.51930,0.37048
1147.59058,0.37235
1145.66186,0.37422
1143.73313,0.37620
1141.80441,0.37817
1139.87569,0.38021
1137.94696,0.38265
1136.01824,0.38537
1134.08952,0.38808
1132.16079,0.39067
1130.23207,0.39339
1128.30334,0.39665
1126.37462,0.40053
1124.44590,0.40474
1122.51717,0.40936
1120.58845,0.41452
1118.65973,0.42008
1116.73100,0.42621
1114.80228,0.43288
1112.87355,0.43991
1110.94483,0.44726
1109.01611,0.45480
1107.08738,0.46247
1105.15866,0.46971
1103.22994,0.47597
1101.30121,0.48124
1099.37249,0.48552
1097.44377,0.48872
1095.51504,0.49116
1093.58632,0.49299
1091.65759,0.49398
1089.72887,0.49458
1087.80015,0.49489
1085.87142,0.49423
1083.94270,0.49253
1082.01398,0.49037
1080.08525,0.48799
1078.15653,0.48515
1076.22781,0.48193
1074.29908,0.47849
1072.37036,0.47475
1070.44163,0.47096
1068.51291,0.46718
1066.58419,0.46283
1064.65546,0.45777
1062.72674,0.45219
1060.79802,0.44625
1058.86929,0.44020
1056.94057,0.43395
1055.01184,0.42730
1053.08312,0.42023
1051.15440,0.41278
1049.22567,0.40548
1047.29695,0.39881
1045.36823,0.39222
1043.43950,0.38485
1041.51078,0.37694
1039.58206,0.36924
1037.65333,0.36160
1035.72461,0.35374
1033.79588,0.34583
1031.86716,0.33809
1029.93844,0.33042
1028.00971,0.32271
1026.08099,0.31525
1024.15227,0.30830
1022.22354,0.30173
1020.29482,0.29516
1018.36610,0.28859
1016.43737,0.28228
1014.50865,0.27625
1012.57992,0.27048
1010.65120,0.26499
1008.72248,0.25966
1006.79375,0.25437
1004.86503,0.24908
1002.93631,0.24390
1001.00758,0.23896
999.07886,0.23411
997.15013,0.22927
995.22141,0.22455
993.29269,0.21998
991.36396,0.21558
989.43524,0.21161
987.50652,0.20809
985.57779,0.20481
983.64907,0.20182
981.72035,0.19911
979.79162,0.19653
977.86290,0.19429
975.93417,0.19258
974.00545,0.19104
972.07673,0.18950
970.14800,0.18805
968.21928,0.18670
966.29056,0.18579
964.36183,0.18540
962.43311,0.18500
960.50439,0.18424
958.57566,0.18316
956.64694,0.18195
954.71821,0.18092
952.78949,0.18008
950.86077,0.17924
948.93204,0.17798
947.00332,0.17599
945.07460,0.17351
943.14587,0.17106
941.21715,0.16893
939.28842,0.16696
937.35970,0.16467
935.43098,0.16194
933.50225,0.15901
931.57353,0.15604
929.64481,0.15293
927.71608,0.14966
925.78736,0.14642
923.85864,0.14320
921.92991,0.13988
920.00119,0.13661
918.07246,0.13333
916.14374,0.12980
914.21502,0.12606
912.28629,0.12234
910.35757,0.11852
908.42885,0.11449
906.50012,0.11039
904.57140,0.10629
902.64268,0.10229
900.71395,0.09851
898.78523,0.09473
896.85650,0.09084
894.92778,0.08704
892.99906,0.08336
891.07033,0.07957
889.14161,0.07570
887.21289,0.07202
885.28416,0.06854
883.35544,0.06512
881.42671,0.06192
879.49799,0.05899
877.56927,0.05624
875.64054,0.05386
873.71182,0.05194
871.78310,0.05001
869.85437,0.04763
867.92565,0.04497
865.99693,0.04259
864.06820,0.04044
862.13948,0.03821
860.21075,0.03613
858.28203,0.03445
856.35331,0.03304
854.42458,0.03191
852.49586,0.03113
850.56714,0.03071
848.63841,0.03077
846.70969,0.03117
844.78097,0.03193
842.85224,0.03344
840.92352,0.03561
838.99479,0.03809
837.06607,0.04104
835.13735,0.04452
833.20862,0.04829
831.27990,0.05223
829.35118,0.05605
827.42245,0.05935
825.49373,0.06243
823.56501,0.06586
821.63628,0.06958
819.70756,0.07330
817.77883,0.07708
815.85011,0.08090
813.92139,0.08454
811.99266,0.08802
810.06394,0.09146
808.13522,0.09481
806.20649,0.09782
804.27777,0.10022
802.34904,0.10209
800.42032,0.10361
798.49160,0.10473
796.56287,0.10523
794.63415,0.10493
792.70543,0.10404
790.77670,0.10274
788.84798,0.10093
786.91926,0.09864
784.99053,0.09580
783.06181,0.09241
781.13308,0.08886
779.20436,0.08507
777.27564,0.08081
775.34691,0.07650
773.41819,0.07254
771.48947,0.06920
769.56074,0.06678
767.63202,0.06512
765.70330,0.06366
763.77457,0.06244
761.84585,0.06166
759.91712,0.06122
757.98840,0.06090
756.05968,0.06049
754.13095,0.05998
752.20223,0.05951
750.27351,0.05899
748.34478,0.05838
746.41606,0.05796
744.48733,0.05784
742.55861,0.05781
740.62989,0.05778
738.70116,0.05773
736.77244,0.05748
734.84372,0.05713
732.91499,0.05703
730.98627,0.05713
729.05755,0.05709
727.12882,0.05704
725.20010,0.05730
723.27137,0.05784
721.34265,0.05815
719.41393,0.05803
717.48520,0.05787
715.55648,0.05801
713.62776,0.05830
711.69903,0.05864
709.77031,0.05927
707.84159,0.06008
705.91286,0.06084
703.98414,0.06148
702.05541,0.06196
700.12669,0.06241
698.19797,0.06316
696.26924,0.06408
694.34052,0.06482
692.41180,0.06518
690.48307,0.06511
688.55435,0.06496
686.62562,0.06510
684.69690,0.06539
682.76818,0.06574
680.83945,0.06617
678.91073,0.06651
676.98201,0.06675
675.05328,0.06721
673.12456,0.06793
671.19584,0.06791
669.26711,0.06710
667.33839,0.06786
665.40966,0.07005
663.48094,0.07116
661.55222,0.07124
659.62349,0.07139
657.69477,0.07186
655.76605,0.07278
653.83732,0.07425
651.90860,0.07584
649.97988,0.07714
648.05115,0.07866
646.12243,0.08066
644.19370,0.08227
642.26498,0.08311
640.33626,0.08397
638.40753,0.08503
636.47881,0.08589
634.55009,0.08711
632.62136,0.08914
630.69264,0.09113
628.76391,0.09223
626.83519,0.09292
624.90647,0.09420
622.97774,0.09605
621.04902,0.09768
619.12030,0.09868
617.19157,0.09932
615.26285,0.09994
613.33413,0.10066
611.40540,0.10176
609.47668,0.10362
607.54795,0.10593
605.61923,0.10795
603.69051,0.10964
601.76178,0.11175
599.83306,0.11438
597.90434,0.11653
595.97561,0.11774
594.04689,0.11847
592.11817,0.11938
590.18944,0.12086
588.26072,0.12283
586.33199,0.12474
584.40327,0.12593
582.47455,0.12695
580.54582,0.12863
578.61710,0.12985
576.68838,0.12962
574.75965,0.12913
572.83093,0.12963
570.90220,0.13074
568.97348,0.13143
567.04476,0.13117
565.11603,0.13059
563.18731,0.13096
561.25859,0.13211
559.32986,0.13263
557.40114,0.13251
555.47242,0.13314
553.54369,0.13477
551.61497,0.13655
549.68624,0.13832
547.75752,0.14045
545.82880,0.14245
543.90007,0.14348
541.97135,0.14341
540.04263,0.14264
538.11390,0.14171
536.18518,0.14089
534.25646,0.13999
532.32773,0.13896
530.39901,0.13842
528.47028,0.13910
526.54156,0.14090
524.61284,0.14254
522.68411,0.14297
520.75539,0.14272
518.82667,0.14309
516.89794,0.14484
514.96922,0.14740
513.04049,0.14968
511.11177,0.15155
509.18305,0.15446
507.25432,0.15989
505.32560,0.16654
503.39688,0.17225
501.46815,0.17812
499.53943,0.18621
497.61071,0.19545
495.68198,0.20359
493.75326,0.21088
491.82453,0.21927
489.89581,0.22940
487.96709,0.23983
486.03836,0.24842
484.10964,0.25429
482.18092,0.25967
480.25219,0.26773
478.32347,0.27868
476.39475,0.29002
474.46602,0.29952
472.53730,0.30608
470.60857,0.30995
468.67985,0.31199
466.75113,0.31245
464.82240,0.31145
462.89368,0.30889
460.96496,0.30515
459.03623,0.30094
457.10751,0.29526
455.17878,0.28797
453.25006,0.28117
451.32134,0.27552
449.39261,0.26978
447.46389,0.26257
445.53517,0.25415
443.60644,0.24686
441.67772,0.24275
439.74900,0.24153
437.82027,0.24006
435.89155,0.23510
433.96282,0.22744
432.03410,0.21933
430.10538,0.21046
428.17665,0.20135
426.24793,0.19493
424.31921,0.19134
422.39048,0.18625
420.46176,0.17717
418.53304,0.16741
416.60431,0.16178
414.67559,0.15816
412.74686,0.15104
410.81814,0.13942
408.88942,0.12814
406.96069,0.12167
405.03197,0.11956
403.10325,0.12021
401.17452,0.12058
399.24580,0.11184
397.31708,0.09714
395.38835,0.09522
393.45963,0.10374
391.53090,0.10658
389.60218,0.10372
387.67346,0.10485
385.74473,0.11004
383.81601,0.10672
381.88729,0.08776
379.95856,0.05654
378.02984,0.02002
376.10111,0.00000
374.17239,-0.02696
372.24367,-0.02441
370.31494,-0.01185
368.38622,0.00000
