3996.31543,0.00011
3994.38671,0.00003
3992.45799,0.00000
3990.52926,0.00001
3988.60054,0.00003
3986.67182,0.00007
3984.74309,0.00021
3982.81437,0.00040
3980.88564,0.00054
3978.95692,0.00059
3977.02820,0.00052
3975.09947,0.00043
3973.17075,0.00046
3971.24203,0.00063
3969.31330,0.00077
3967.38458,0.00075
3965.45586,0.00063
3963.52713,0.00055
3961.59841,0.00058
3959.66968,0.00070
3957.74096,0.00077
3955.81224,0.00071
3953.88351,0.00067
3951.95479,0.00077
3950.02607,0.00085
3948.09734,0.00083
3946.16862,0.00087
3944.23990,0.00097
3942.31117,0.00096
3940.38245,0.00084
3938.45372,0.00076
3936.52500,0.00084
3934.59628,0.00096
3932.66755,0.00087
3930.73883,0.00060
3928.81011,0.00049
3926.88138,0.00062
3924.95266,0.00083
3923.02393,0.00101
3921.09521,0.00111
3919.16649,0.00107
3917.23776,0.00094
3915.30904,0.00084
3913.38032,0.00081
3911.45159,0.00082
3909.52287,0.00095
3907.59415,0.00126
3905.66542,0.00150
3903.73670,0.00143
3901.80797,0.00112
3899.87925,0.00076
3897.95053,0.00064
3896.02180,0.00097
3894.09308,0.00139
3892.16436,0.00135
3890.23563,0.00109
3888.30691,0.00124
3886.37819,0.00156
3884.44946,0.00162
3882.52074,0.00146
3880.59201,0.00110
3878.66329,0.00079
3876.73457,0.00085
3874.80584,0.00104
3872.87712,0.00110
3870.94840,0.00103
3869.01967,0.00089
3867.09095,0.00085
3865.16222,0.00076
3863.23350,0.00049
3861.30478,0.00040
3859.37605,0.00081
3857.44733,0.00158
3855.51861,0.00201
3853.58988,0.00124
3851.66116,0.00009
3849.73244,0.00000
3847.80371,0.00058
3845.87499,0.00113
3843.94626,0.00150
3842.01754,0.00180
3840.08882,0.00182
3838.16009,0.00125
3836.23137,0.00056
3834.30265,0.00043
3832.37392,0.00068
3830.44520,0.00091
3828.51648,0.00109
3826.58775,0.00127
3824.65903,0.00153
3822.73030,0.00168
3820.80158,0.00139
3818.87286,0.00107
3816.94413,0.00103
3815.01541,0.00097
3813.08669,0.00109
3811.15796,0.00161
3809.22924,0.00211
3807.30052,0.00217
3805.37179,0.00210
3803.44307,0.00226
3801.51434,0.00227
3799.58562,0.00209
3797.65690,0.00206
3795.72817,0.00204
3793.79945,0.00203
3791.87073,0.00214
3789.94200,0.00239
3788.01328,0.00271
3786.08455,0.00296
3784.15583,0.00310
3782.22711,0.00332
3780.29838,0.00353
3778.36966,0.00360
3776.44094,0.00376
3774.51221,0.00419
3772.58349,0.00471
3770.65477,0.00497
3768.72604,0.00501
3766.79732,0.00509
3764.86859,0.00535
3762.93987,0.00586
3761.01115,0.00645
3759.08242,0.00678
3757.15370,0.00703
3755.22498,0.00771
3753.29625,0.00865
3751.36753,0.00922
3749.43881,0.00944
3747.51008,0.00994
3745.58136,0.01061
3743.65263,0.01111
3741.72391,0.01182
3739.79519,0.01289
3737.86646,0.01400
3735.93774,0.01497
3734.00902,0.01585
3732.08029,0.01686
3730.15157,0.01817
3728.22284,0.01981
3726.29412,0.02163
3724.36540,0.02337
3722.43667,0.02500
3720.50795,0.02674
3718.57923,0.02875
3716.65050,0.03103
3714.72178,0.03356
3712.79306,0.03631
3710.86433,0.03917
3708.93561,0.04212
3707.00688,0.04517
3705.07816,0.04831
3703.14944,0.05151
3701.22071,0.05478
3699.29199,0.05806
3697.36327,0.06131
3695.43454,0.06452
3693.50582,0.06763
3691.57710,0.07072
3689.64837,0.07411
3687.71965,0.07792
3685.79092,0.08185
3683.86220,0.08568
3681.93348,0.08951
3680.00475,0.09346
3678.07603,0.09770
3676.14731,0.10238
3674.21858,0.10704
3672.28986,0.11118
3670.36113,0.11532
3668.43241,0.11960
3666.50369,0.12357
3664.57496,0.12731
3662.64624,0.13102
3660.71752,0.13467
3658.78879,0.13824
3656.86007,0.14180
3654.93135,0.14537
3653.00262,0.14884
3651.07390,0.15228
3649.14517,0.15578
3647.21645,0.15916
3645.28773,0.16225
3643.35900,0.16512
3641.43028,0.16797
3639.50156,0.17094
3637.57283,0.17392
3635.64411,0.17668
3633.71539,0.17923
3631.78666,0.18187
3629.85794,0.18480
3627.92921,0.18774
3626.00049,0.19025
3624.07177,0.19248
3622.14304,0.19460
3620.21432,0.19654
3618.28560,0.19826
3616.35687,0.19997
3614.42815,0.20170
3612.49942,0.20328
3610.57070,0.20482
3608.64198,0.20655
3606.71325,0.20845
3604.78453,0.21034
3602.85581,0.21213
3600.92708,0.21386
3598.99836,0.21555
3597.06964,0.21720
3595.14091,0.21886
3593.21219,0.22053
3591.28346,0.22214
3589.35474,0.22358
3587.42602,0.22491
3585.49729,0.22644
3583.56857,0.22823
3581.63985,0.22994
3579.71112,0.23140
3577.78240,0.23279
3575.85368,0.23426
3573.92495,0.23576
3571.99623,0.23723
3570.06750,0.23865
3568.13878,0.23995
3566.21006,0.24115
3564.28133,0.24238
3562.35261,0.24376
3560.42389,0.24524
3558.49516,0.24666
3556.56644,0.24796
3554.63771,0.24922
3552.70899,0.25044
3550.78027,0.25142
3548.85154,0.25221
3546.92282,0.25316
3544.99410,0.25442
3543.06537,0.25584
3541.13665,0.25726
3539.20793,0.25858
3537.27920,0.25976
3535.35048,0.26090
3533.42175,0.26196
3531.49303,0.26288
3529.56431,0.26371
3527.63558,0.26452
3525.70686,0.26539
3523.77814,0.26635
3521.84941,0.26734
3519.92069,0.26835
3517.99197,0.26938
3516.06324,0.27037
3514.13452,0.27127
3512.20579,0.27219
3510.27707,0.27323
3508.34835,0.27441
3506.41962,0.27554
3504.49090,0.27650
3502.56218,0.27732
3500.63345,0.27815
3498.70473,0.27902
3496.77600,0.27982
3494.84728,0.28049
3492.91856,0.28116
3490.98983,0.28194
3489.06111,0.28273
3487.13239,0.28340
3485.20366,0.28405
3483.27494,0.28490
3481.34622,0.28583
3479.41749,0.28655
3477.48877,0.28712
3475.56004,0.28776
3473.63132,0.28844
3471.70260,0.28903
3469.77387,0.28961
3467.84515,0.29023
3465.91643,0.29078
3463.98770,0.29132
3462.05898,0.29190
3460.13026,0.29247
3458.20153,0.29307
3456.27281,0.29369
3454.34408,0.29437
3452.41536,0.29513
3450.48664,0.29567
3448.55791,0.29587
3446.62919,0.29620
3444.70047,0.29685
3442.77174,0.29743
3440.84302,0.29771
3438.91429,0.29777
3436.98557,0.29777
3435.05685,0.29804
3433.12812,0.29874
3431.19940,0.29946
3429.27068,0.29987
3427.34195,0.30011
3425.41323,0.30044
3423.48451,0.30083
3421.55578,0.30109
3419.62706,0.30118
3417.69833,0.30119
3415.76961,0.30125
3413.84089,0.30150
3411.91216,0.30177
3409.98344,0.30182
3408.05472,0.30178
3406.12599,0.30182
3404.19727,0.30193
3402.26855,0.30215
3400.33982,0.30235
3398.41110,0.30229
3396.48237,0.30215
3394.55365,0.30219
3392.62493,0.30227
3390.69620,0.30220
3388.76748,0.30205
3386.83876,0.30184
3384.91003,0.30155
3382.98131,0.30132
3381.05259,0.30118
3379.12386,0.30092
3377.19514,0.30058
3375.26641,0.30037
3373.33769,0.30024
3371.40897,0.30010
3369.48024,0.29997
3367.55152,0.29984
3365.62280,0.29958
3363.69407,0.29918
3361.76535,0.29884
3359.83662,0.29861
3357.90790,0.29826
3355.97918,0.29786
3354.05045,0.29764
3352.12173,0.29748
3350.19301,0.29714
3348.26428,0.29674
3346.33556,0.29643
3344.40684,0.29607
3342.47811,0.29555
3340.54939,0.29497
3338.62066,0.29454
3336.69194,0.29425
3334.76322,0.29398
3332.83449,0.29373
3330.90577,0.29352
3328.97705,0.29320
3327.04832,0.29275
3325.11960,0.29249
3323.19088,0.29252
3321.26215,0.29242
3319.33343,0.29196
3317.40470,0.29125
3315.47598,0.29050
3313.54726,0.28997
3311.61853,0.28963
3309.68981,0.28931
3307.76109,0.28896
3305.83236,0.28863
3303.90364,0.28830
3301.97491,0.28800
3300.04619,0.28780
3298.11747,0.28752
3296.18874,0.28701
3294.26002,0.28658
3292.33130,0.28631
3290.40257,0.28597
3288.47385,0.28551
3286.54513,0.28508
3284.61640,0.28476
3282.68768,0.28450
3280.75895,0.28423
3278.83023,0.28390
3276.90151,0.28353
3274.97278,0.28314
3273.04406,0.28270
3271.11534,0.28224
3269.18661,0.28188
3267.25789,0.28150
3265.32917,0.28089
3263.40044,0.28018
3261.47172,0.27957
3259.54299,0.27912
3257.61427,0.27880
3255.68555,0.27848
3253.75682,0.27803
3251.82810,0.27746
3249.89938,0.27688
3247.97065,0.27633
3246.04193,0.27578
3244.11320,0.27531
3242.18448,0.27489
3240.25576,0.27439
3238.32703,0.27385
3236.39831,0.27332
3234.46959,0.27272
3232.54086,0.27212
3230.61214,0.27166
3228.68342,0.27126
3226.75469,0.27067
3224.82597,0.26993
3222.89724,0.26921
3220.96852,0.26859
3219.03980,0.26788
3217.11107,0.26711
3215.18235,0.26638
3213.25363,0.26562
3211.32490,0.26476
3209.39618,0.26389
3207.46746,0.26309
3205.53873,0.26247
3203.61001,0.26194
3201.68128,0.26127
3199.75256,0.26045
3197.82384,0.25960
3195.89511,0.25881
3193.96639,0.25817
3192.03767,0.25750
3190.10894,0.25656
3188.18022,0.25544
3186.25149,0.25444
3184.32277,0.25362
3182.39405,0.25284
3180.46532,0.25210
3178.53660,0.25137
3176.60788,0.25059
3174.67915,0.24974
3172.75043,0.24887
3170.82171,0.24798
3168.89298,0.24700
3166.96426,0.24593
3165.03553,0.24490
3163.10681,0.24402
3161.17809,0.24326
3159.24936,0.24247
3157.32064,0.24153
3155.39192,0.24051
3153.46319,0.23953
3151.53447,0.23855
3149.60575,0.23756
3147.67702,0.23664
3145.74830,0.23579
3143.81957,0.23500
3141.89085,0.23426
3139.96213,0.23345
3138.03340,0.23252
3136.10468,0.23159
3134.17596,0.23070
3132.24723,0.22980
3130.31851,0.22887
3128.38978,0.22787
3126.46106,0.22682
3124.53234,0.22576
3122.60361,0.22474
3120.67489,0.22381
3118.74617,0.22294
3116.81744,0.22212
3114.88872,0.22120
3112.96000,0.22008
3111.03127,0.21894
3109.10255,0.21784
3107.17382,0.21672
3105.24510,0.21560
3103.31638,0.21451
3101.38765,0.21341
3099.45893,0.21230
3097.53021,0.21114
3095.60148,0.20992
3093.67276,0.20877
3091.74404,0.20764
3089.81531,0.20649
3087.88659,0.20534
3085.95786,0.20414
3084.02914,0.20289
3082.10042,0.20175
3080.17169,0.20065
3078.24297,0.19949
3076.31425,0.19833
3074.38552,0.19730
3072.45680,0.19633
3070.52807,0.19520
3068.59935,0.19390
3066.67063,0.19258
3064.74190,0.19134
3062.81318,0.19011
3060.88446,0.18889
3058.95573,0.18768
3057.02701,0.18654
3055.09829,0.18550
3053.16956,0.18455
3051.24084,0.18356
3049.31211,0.18244
3047.38339,0.18135
3045.45467,0.18033
3043.52594,0.17923
3041.59722,0.17805
3039.66850,0.17690
3037.73977,0.17585
3035.81105,0.17492
3033.88233,0.17401
3031.95360,0.17306
3030.02488,0.17204
3028.09615,0.17103
3026.16743,0.17013
3024.23871,0.16926
3022.30998,0.16836
3020.38126,0.16756
3018.45254,0.16684
3016.52381,0.16600
3014.59509,0.16500
3012.66636,0.16406
3010.73764,0.16326
3008.80892,0.16244
3006.88019,0.16153
3004.95147,0.16067
3003.02275,0.15994
3001.09402,0.15929
2999.16530,0.15860
2997.23658,0.15785
2995.30785,0.15717
2993.37913,0.15663
2991.45040,0.15617
2989.52168,0.15571
2987.59296,0.15529
2985.66423,0.15491
2983.73551,0.15458
2981.80679,0.15434
2979.87806,0.15419
2977.94934,0.15404
2976.02062,0.15388
2974.09189,0.15374
2972.16317,0.15360
2970.23444,0.15343
2968.30572,0.15334
2966.37700,0.15334
2964.44827,0.15330
2962.51955,0.15312
2960.59083,0.15286
2958.66210,0.15260
2956.73338,0.15230
2954.80466,0.15190
2952.87593,0.15149
2950.94721,0.15114
2949.01848,0.15082
2947.08976,0.15062
2945.16104,0.15070
2943.23231,0.15099
2941.30359,0.15131
2939.37487,0.15170
2937.44614,0.15221
2935.51742,0.15273
2933.58869,0.15317
2931.65997,0.15355
2929.73125,0.15370
2927.80252,0.15345
2925.87380,0.15283
2923.94508,0.15183
2922.01635,0.15029
2920.08763,0.14817
2918.15891,0.14569
2916.23018,0.14324
2914.30146,0.14101
2912.37273,0.13893
2910.44401,0.13696
2908.51529,0.13516
2906.58656,0.13353
2904.65784,0.13194
2902.72912,0.13032
2900.80039,0.12879
2898.87167,0.12741
2896.94295,0.12613
2895.01422,0.12488
2893.08550,0.12362
2891.15677,0.12237
2889.22805,0.12113
2887.29933,0.11989
2885.37060,0.11876
2883.44188,0.11783
2881.51316,0.11704
2879.58443,0.11635
2877.65571,0.11574
2875.72698,0.11510
2873.79826,0.11437
2871.86954,0.11355
2869.94081,0.11271
2868.01209,0.11205
2866.08337,0.11163
2864.15464,0.11138
2862.22592,0.11126
2860.29720,0.11127
2858.36847,0.11143
2856.43975,0.11167
2854.51102,0.11163
2852.58230,0.11084
2850.65358,0.10918
2848.72485,0.10684
2846.79613,0.10412
2844.86741,0.10129
2842.93868,0.09865
2841.00996,0.09635
2839.08124,0.09440
2837.15251,0.09276
2835.22379,0.09138
2833.29506,0.09014
2831.36634,0.08896
2829.43762,0.08783
2827.50889,0.08678
2825.58017,0.08583
2823.65145,0.08499
2821.72272,0.08419
2819.79400,0.08334
2817.86527,0.08247
2815.93655,0.08160
2814.00783,0.08071
2812.07910,0.07988
2810.15038,0.07914
2808.22166,0.07836
2806.29293,0.07752
2804.36421,0.07671
2802.43549,0.07599
2800.50676,0.07539
2798.57804,0.07484
2796.64931,0.07428
2794.72059,0.07361
2792.79187,0.07283
2790.86314,0.07207
2788.93442,0.07135
2787.00570,0.07065
2785.07697,0.07002
2783.14825,0.06936
2781.21953,0.06864
2779.29080,0.06796
2777.36208,0.06743
2775.43335,0.06691
2773.50463,0.06624
2771.57591,0.06544
2769.64718,0.06470
2767.71846,0.06408
2765.78974,0.06355
2763.86101,0.06301
2761.93229,0.06241
2760.00356,0.06175
2758.07484,0.06115
2756.14612,0.06061
2754.21739,0.06004
2752.28867,0.05948
2750.35995,0.05900
2748.43122,0.05850
2746.50250,0.05793
2744.57378,0.05729
2742.64505,0.05665
2740.71633,0.05602
2738.78760,0.05540
2736.85888,0.05487
2734.93016,0.05434
2733.00143,0.05375
2731.07271,0.05324
2729.14399,0.05287
2727.21526,0.05248
2725.28654,0.05198
2723.35782,0.05141
2721.42909,0.05079
2719.50037,0.05019
2717.57164,0.04969
2715.64292,0.04925
2713.71420,0.04883
2711.78547,0.04832
2709.85675,0.04772
2707.92803,0.04715
2705.99930,0.04672
2704.07058,0.04635
2702.14185,0.04590
2700.21313,0.04537
2698.28441,0.04485
2696.35568,0.04434
2694.42696,0.04379
2692.49824,0.04327
2690.56951,0.04286
2688.64079,0.04254
2686.71207,0.04218
2684.78334,0.04168
2682.85462,0.04112
2680.92589,0.04069
2678.99717,0.04040
2677.06845,0.04004
2675.13972,0.03955
2673.21100,0.03906
2671.28228,0.03864
2669.35355,0.03821
2667.42483,0.03780
2665.49611,0.03742
2663.56738,0.03708
2661.63866,0.03671
2659.70993,0.03628
2657.78121,0.03584
2655.85249,0.03539
2653.92376,0.03493
2651.99504,0.03454
2650.06632,0.03421
2648.13759,0.03386
2646.20887,0.03353
2644.28014,0.03323
2642.35142,0.03290
2640.42270,0.03253
2638.49397,0.03212
2636.56525,0.03174
2634.63653,0.03142
2632.70780,0.03109
2630.77908,0.03070
2628.85036,0.03028
2626.92163,0.02991
2624.99291,0.02957
2623.06418,0.02921
2621.13546,0.02886
2619.20674,0.02856
2617.27801,0.02823
2615.34929,0.02787
2613.42057,0.02756
2611.49184,0.02730
2609.56312,0.02697
2607.63440,0.02655
2605.70567,0.02614
2603.77695,0.02582
2601.84822,0.02561
2599.91950,0.02540
2597.99078,0.02514
2596.06205,0.02484
2594.13333,0.02451
2592.20461,0.02421
2590.27588,0.02395
2588.34716,0.02364
2586.41843,0.02328
2584.48971,0.02294
2582.56099,0.02266
2580.63226,0.02242
2578.70354,0.02220
2576.77482,0.02198
2574.84609,0.02175
2572.91737,0.02150
2570.98865,0.02123
2569.05992,0.02101
2567.13120,0.02081
2565.20247,0.02054
2563.27375,0.02019
2561.34503,0.01993
2559.41630,0.01982
2557.48758,0.01973
2555.55886,0.01955
2553.63013,0.01930
2551.70141,0.01896
2549.77269,0.01868
2547.84396,0.01852
2545.91524,0.01839
2543.98651,0.01823
2542.05779,0.01805
2540.12907,0.01784
2538.20034,0.01759
2536.27162,0.01734
2534.34290,0.01711
2532.41417,0.01694
2530.48545,0.01679
2528.55673,0.01657
2526.62800,0.01627
2524.69928,0.01602
2522.77055,0.01588
2520.84183,0.01576
2518.91311,0.01556
2516.98438,0.01538
2515.05566,0.01525
2513.12694,0.01507
2511.19821,0.01484
2509.26949,0.01463
2507.34076,0.01446
2505.41204,0.01434
2503.48332,0.01419
2501.55459,0.01401
2499.62587,0.01382
2497.69715,0.01367
2495.76842,0.01349
2493.83970,0.01322
2491.91098,0.01293
2489.98225,0.01275
2488.05353,0.01266
2486.12480,0.01260
2484.19608,0.01247
2482.26736,0.01226
2480.33863,0.01202
2478.40991,0.01184
2476.48119,0.01170
2474.55246,0.01151
2472.62374,0.01133
2470.69502,0.01120
2468.76629,0.01104
2466.83757,0.01079
2464.90884,0.01054
2462.98012,0.01037
2461.05140,0.01025
2459.12267,0.01012
2457.19395,0.00994
2455.26523,0.00977
2453.33650,0.00962
2451.40778,0.00950
2449.47905,0.00944
2447.55033,0.00934
2445.62161,0.00918
2443.69288,0.00901
2441.76416,0.00879
2439.83544,0.00854
2437.90671,0.00835
2435.97799,0.00819
2434.04927,0.00803
2432.12054,0.00788
2430.19182,0.00778
2428.26309,0.00771
2426.33437,0.00763
2424.40565,0.00751
2422.47692,0.00731
2420.54820,0.00708
2418.61948,0.00690
2416.69075,0.00676
2414.76203,0.00661
2412.83331,0.00649
2410.90458,0.00639
2408.97586,0.00628
2407.04713,0.00608
2405.11841,0.00587
2403.18969,0.00573
2401.26096,0.00559
2399.33224,0.00547
2397.40352,0.00537
2395.47479,0.00524
2393.54607,0.00508
2391.61734,0.00493
2389.68862,0.00486
2387.75990,0.00483
2385.83117,0.00479
2383.90245,0.00470
2381.97373,0.00463
2380.04500,0.00462
2378.11628,0.00465
2376.18756,0.00473
2374.25883,0.00485
2372.33011,0.00498
2370.40138,0.00502
2368.47266,0.00503
2366.54394,0.00504
2364.61521,0.00494
2362.68649,0.00473
2360.75777,0.00450
2358.82904,0.00423
2356.90032,0.00392
2354.97160,0.00367
2353.04287,0.00354
2351.11415,0.00353
2349.18542,0.00364
2347.25670,0.00377
2345.32798,0.00380
2343.39925,0.00370
2341.47053,0.00355
2339.54181,0.00339
2337.61308,0.00320
2335.68436,0.00302
2333.75563,0.00292
2331.82691,0.00289
2329.89819,0.00279
2327.96946,0.00264
2326.04074,0.00255
2324.11202,0.00249
2322.18329,0.00240
2320.25457,0.00226
2318.32585,0.00212
2316.39712,0.00197
2314.46840,0.00183
2312.53967,0.00172
2310.61095,0.00162
2308.68223,0.00153
2306.75350,0.00148
2304.82478,0.00144
2302.89606,0.00138
2300.96733,0.00130
2299.03861,0.00125
2297.10989,0.00127
2295.18116,0.00128
2293.25244,0.00125
2291.32371,0.00118
2289.39499,0.00108
2287.46627,0.00098
2285.53754,0.00092
2283.60882,0.00088
2281.68010,0.00082
2279.75137,0.00075
2277.82265,0.00070
2275.89392,0.00069
2273.96520,0.00071
2272.03648,0.00070
2270.10775,0.00066
2268.17903,0.00061
2266.25031,0.00057
2264.32158,0.00053
2262.39286,0.00048
2260.46414,0.00045
2258.53541,0.00042
2256.60669,0.00038
2254.67796,0.00034
2252.74924,0.00035
2250.82052,0.00035
2248.89179,0.00030
2246.96307,0.00025
2245.03435,0.00020
2243.10562,0.00017
2241.17690,0.00015
2239.24818,0.00009
2237.31945,0.00003
2235.39073,0.00004
2233.46200,0.00007
2231.53328,0.00009
2229.60456,0.00011
2227.67583,0.00010
2225.74711,0.00004
2223.81839,-0.00000
2221.88966,0.00003
2219.96094,0.00009
2218.03221,0.00010
2216.10349,0.00008
2214.17477,0.00007
2212.24604,0.00008
2210.31732,0.00011
2208.38860,0.00015
2206.45987,0.00016
2204.53115,0.00010
2202.60243,0.00000
2200.67370,-0.00004
2198.74498,-0.00001
2196.81625,0.00004
2194.88753,0.00007
2192.95881,0.00007
2191.03008,0.00006
2189.10136,0.00002
2187.17264,-0.00006
2185.24391,-0.00012
2183.31519,-0.00016
2181.38647,-0.00017
2179.45774,-0.00009
2177.52902,0.00005
2175.60029,0.00014
2173.67157,0.00015
2171.74285,0.00011
2169.81412,0.00010
2167.88540,0.00014
2165.95668,0.00023
2164.02795,0.00028
2162.09923,0.00024
2160.17050,0.00014
2158.24178,0.00008
2156.31306,0.00012
2154.38433,0.00020
2152.45561,0.00026
2150.52689,0.00024
2148.59816,0.00022
2146.66944,0.00024
2144.74072,0.00027
2142.81199,0.00028
2140.88327,0.00030
2138.95454,0.00032
2137.02582,0.00028
2135.09710,0.00019
2133.16837,0.00016
2131.23965,0.00019
2129.31093,0.00023
2127.38220,0.00028
2125.45348,0.00033
2123.52476,0.00031
2121.59603,0.00023
2119.66731,0.00022
2117.73858,0.00027
2115.80986,0.00029
2113.88114,0.00023
2111.95241,0.00020
2110.02369,0.00026
2108.09497,0.00030
2106.16624,0.00023
2104.23752,0.00015
2102.30880,0.00013
2100.38007,0.00017
2098.45135,0.00027
2096.52262,0.00031
2094.59390,0.00021
2092.66518,0.00007
2090.73645,0.00000
2088.80773,-0.00004
2086.87901,-0.00004
2084.95028,-0.00002
2083.02156,-0.00004
2081.09283,-0.00011
2079.16411,-0.00018
2077.23539,-0.00021
2075.30666,-0.00022
2073.37794,-0.00020
2071.44922,-0.00016
2069.52049,-0.00011
2067.59177,-0.00004
2065.66305,0.00002
2063.73432,0.00005
2061.80560,0.00006
2059.87687,0.00009
2057.94815,0.00016
2056.01943,0.00024
2054.09070,0.00028
2052.16198,0.00028
2050.23326,0.00031
2048.30453,0.00045
2046.37581,0.00065
2044.44709,0.00076
2042.51836,0.00081
2040.58964,0.00094
2038.66091,0.00115
2036.73219,0.00135
2034.80347,0.00150
2032.87474,0.00165
2030.94602,0.00181
2029.01730,0.00197
2027.08857,0.00213
2025.15985,0.00224
2023.23112,0.00231
2021.30240,0.00242
2019.37368,0.00256
2017.44495,0.00267
2015.51623,0.00279
2013.58751,0.00293
2011.65878,0.00306
2009.73006,0.00315
2007.80134,0.00317
2005.87261,0.00318
2003.94389,0.00325
2002.01516,0.00334
2000.08644,0.00339
1998.15772,0.00342
1996.22899,0.00344
1994.30027,0.00340
1992.37155,0.00328
1990.44282,0.00315
1988.51410,0.00304
1986.58538,0.00296
1984.65665,0.00292
1982.72793,0.00291
1980.79920,0.00289
1978.87048,0.00282
1976.94176,0.00275
1975.01303,0.00267
1973.08431,0.00257
1971.15559,0.00244
1969.22686,0.00226
1967.29814,0.00206
1965.36941,0.00191
1963.44069,0.00183
1961.51197,0.00171
1959.58324,0.00155
1957.65452,0.00142
1955.72580,0.00128
1953.79707,0.00108
1951.86835,0.00083
1949.93963,0.00063
1948.01090,0.00052
1946.08218,0.00046
1944.15345,0.00033
1942.22473,0.00016
1940.29601,0.00004
1938.36728,0.00000
1936.43856,-0.00004
1934.50984,-0.00010
1932.58111,-0.00012
1930.65239,-0.00013
1928.72367,-0.00009
1926.79494,0.00000
1924.86622,0.00009
1922.93749,0.00014
1921.00877,0.00023
1919.08005,0.00038
1917.15132,0.00055
1915.22260,0.00074
1913.29388,0.00098
1911.36515,0.00124
1909.43643,0.00154
1907.50770,0.00192
1905.57898,0.00238
1903.65026,0.00285
1901.72153,0.00330
1899.79281,0.00374
1897.86409,0.00418
1895.93536,0.00458
1894.00664,0.00499
1892.07792,0.00541
1890.14919,0.00578
1888.22047,0.00606
1886.29174,0.00634
1884.36302,0.00667
1882.43430,0.00695
1880.50557,0.00713
1878.57685,0.00724
1876.64813,0.00728
1874.71940,0.00731
1872.79068,0.00739
1870.86196,0.00740
1868.93323,0.00717
1867.00451,0.00682
1865.07578,0.00660
1863.14706,0.00641
1861.21834,0.00607
1859.28961,0.00561
1857.36089,0.00509
1855.43217,0.00461
1853.50344,0.00419
1851.57472,0.00382
1849.64599,0.00349
1847.71727,0.00314
1845.78855,0.00269
1843.85982,0.00216
1841.93110,0.00176
1840.00238,0.00154
1838.07365,0.00134
1836.14493,0.00110
1834.21621,0.00090
1832.28748,0.00067
1830.35876,0.00032
1828.43003,0.00000
1826.50131,-0.00013
1824.57259,-0.00016
1822.64386,-0.00018
1820.71514,-0.00016
1818.78642,-0.00014
1816.85769,-0.00011
1814.92897,0.00000
1813.00025,0.00003
1811.07152,0.00005
1809.14280,0.00011
1807.21407,0.00033
1805.28535,0.00068
1803.35663,0.00108
1801.42790,0.00147
1799.49918,0.00185
1797.57046,0.00234
1795.64173,0.00296
1793.71301,0.00362
1791.78428,0.00428
1789.85556,0.00504
1787.92684,0.00590
1785.99811,0.00678
1784.06939,0.00769
1782.14067,0.00868
1780.21194,0.00972
1778.28322,0.01076
1776.35450,0.01183
1774.42577,0.01293
1772.49705,0.01398
1770.56832,0.01494
1768.63960,0.01591
1766.71088,0.01696
1764.78215,0.01800
1762.85343,0.01900
1760.92471,0.02000
1758.99598,0.02106
1757.06726,0.02221
1755.13854,0.02339
1753.20981,0.02456
1751.28109,0.02579
1749.35236,0.02714
1747.42364,0.02858
1745.49492,0.03013
1743.56619,0.03185
1741.63747,0.03374
1739.70875,0.03571
1737.78002,0.03770
1735.85130,0.03987
1733.92257,0.04250
1731.99385,0.04529
1730.06513,0.04793
1728.13640,0.05054
1726.20768,0.05315
1724.27896,0.05578
1722.35023,0.05827
1720.42151,0.06046
1718.49279,0.06247
1716.56406,0.06447
1714.63534,0.06653
1712.70661,0.06868
1710.77789,0.07099
1708.84917,0.07340
1706.92044,0.07586
1704.99172,0.07822
1703.06300,0.08044
1701.13427,0.08289
1699.20555,0.08579
1697.27683,0.08889
1695.34810,0.09212
1693.41938,0.09523
1691.49065,0.09811
1689.56193,0.10103
1687.63321,0.10394
1685.70448,0.10710
1683.77576,0.11079
1681.84704,0.11428
1679.91831,0.11717
1677.98959,0.11982
1676.06087,0.12262
1674.13214,0.12555
1672.20342,0.12829
1670.27469,0.13103
1668.34597,0.13387
1666.41725,0.13637
1664.48852,0.13866
1662.55980,0.14105
1660.63108,0.14332
1658.70235,0.14520
1656.77363,0.14677
1654.84490,0.14824
1652.91618,0.14968
1650.98746,0.15097
1649.05873,0.15210
1647.13001,0.15321
1645.20129,0.15419
1643.27256,0.15501
1641.34384,0.15577
1639.41512,0.15637
1637.48639,0.15660
1635.55767,0.15643
1633.62894,0.15622
1631.70022,0.15611
1629.77150,0.15573
1627.84277,0.15482
1625.91405,0.15346
1623.98533,0.15171
1622.05660,0.14978
1620.12788,0.14789
1618.19916,0.14559
1616.27043,0.14249
1614.34171,0.13949
1612.41298,0.13704
1610.48426,0.13455
1608.55554,0.13170
1606.62681,0.12871
1604.69809,0.12580
1602.76937,0.12295
1600.84064,0.12019
1598.91192,0.11756
1596.98319,0.11501
1595.05447,0.11249
1593.12575,0.11005
1591.19702,0.10775
1589.26830,0.10560
1587.33958,0.10357
1585.41085,0.10164
1583.48213,0.09975
1581.55341,0.09792
1579.62468,0.09623
1577.69596,0.09442
1575.76723,0.09241
1573.83851,0.09084
1571.90979,0.08974
1569.98106,0.08847
1568.05234,0.08706
1566.12362,0.08593
1564.19489,0.08512
1562.26617,0.08448
1560.33745,0.08340
1558.40872,0.08149
1556.48000,0.07990
1554.55127,0.07905
1552.62255,0.07834
1550.69383,0.07746
1548.76510,0.07648
1546.83638,0.07544
1544.90766,0.07423
1542.97893,0.07270
1541.05021,0.07063
1539.12148,0.06832
1537.19276,0.06672
1535.26404,0.06542
1533.33531,0.06363
1531.40659,0.06168
1529.47787,0.06004
1527.54914,0.05828
1525.62042,0.05623
1523.69170,0.05408
1521.76297,0.05177
1519.83425,0.04951
1517.90552,0.04753
1515.97680,0.04566
1514.04808,0.04389
1512.11935,0.04228
1510.19063,0.04057
1508.26191,0.03810
1506.33318,0.03468
1504.40446,0.03195
1502.47574,0.03039
1500.54701,0.02895
1498.61829,0.02704
1496.68956,0.02501
1494.76084,0.02362
1492.83212,0.02292
1490.90339,0.02232
1488.97467,0.02160
1487.04595,0.02120
1485.11722,0.02130
1483.18850,0.02172
1481.25977,0.02238
1479.33105,0.02328
1477.40233,0.02447
1475.47360,0.02608
1473.54488,0.02829
1471.61616,0.03094
1469.68743,0.03337
1467.75871,0.03537
1465.82999,0.03709
1463.90126,0.03847
1461.97254,0.03944
1460.04381,0.04016
1458.11509,0.04086
1456.18637,0.04157
1454.25764,0.04220
1452.32892,0.04272
1450.40020,0.04319
1448.47147,0.04363
1446.54275,0.04406
1444.61403,0.04448
1442.68530,0.04494
1440.75658,0.04546
1438.82785,0.04595
1436.89913,0.04634
1434.97041,0.04679
1433.04168,0.04742
1431.11296,0.04820
1429.18424,0.04908
1427.25551,0.05002
1425.32679,0.05096
1423.39806,0.05185
1421.46934,0.05277
1419.54062,0.05386
1417.61189,0.05517
1415.68317,0.05658
1413.75445,0.05799
1411.82572,0.05947
1409.89700,0.06115
1407.96828,0.06298
1406.03955,0.06472
1404.11083,0.06614
1402.18210,0.06694
1400.25338,0.06681
1398.32466,0.06556
1396.39593,0.06334
1394.46721,0.06070
1392.53849,0.05836
1390.60976,0.05681
1388.68104,0.05633
1386.75232,0.05688
1384.82359,0.05704
1382.89487,0.05519
1380.96614,0.05162
1379.03742,0.04802
1377.10870,0.04529
1375.17997,0.04308
1373.25125,0.04104
1371.32253,0.03931
1369.39380,0.03783
1367.46508,0.03647
1365.53635,0.03520
1363.60763,0.03393
1361.67891,0.03264
1359.75018,0.03151
1357.82146,0.03057
1355.89274,0.02968
1353.96401,0.02880
1352.03529,0.02798
1350.10657,0.02725
1348.17784,0.02655
1346.24912,0.02586
1344.32039,0.02527
1342.39167,0.02482
1340.46295,0.02441
1338.53422,0.02398
1336.60550,0.02364
1334.67678,0.02345
1332.74805,0.02333
1330.81933,0.02320
1328.89061,0.02311
1326.96188,0.02310
1325.03316,0.02311
1323.10443,0.02312
1321.17571,0.02318
1319.24699,0.02337
1317.31826,0.02366
1315.38954,0.02394
1313.46082,0.02415
1311.53209,0.02435
1309.60337,0.02462
1307.67464,0.02499
1305.74592,0.02550
1303.81720,0.02624
1301.88847,0.02714
1299.95975,0.02806
1298.03103,0.02895
1296.10230,0.02995
1294.17358,0.03118
1292.24486,0.03263
1290.31613,0.03425
1288.38741,0.03606
1286.45868,0.03818
1284.52996,0.04066
1282.60124,0.04337
1280.67251,0.04620
1278.74379,0.04929
1276.81507,0.05279
1274.88634,0.05676
1272.95762,0.06126
1271.02890,0.06624
1269.10017,0.07163
1267.17145,0.07754
1265.24272,0.08433
1263.31400,0.09220
1261.38528,0.10114
1259.45655,0.11114
1257.52783,0.12208
1255.59911,0.13364
1253.67038,0.14561
1251.74166,0.15767
1249.81294,0.16935
1247.88421,0.18034
1245.95549,0.19059
1244.02676,0.20020
1242.09804,0.20910
1240.16932,0.21717
1238.24059,0.22446
1236.31187,0.23101
1234.38315,0.23687
1232.45442,0.24219
1230.52570,0.24713
1228.59697,0.25180
1226.66825,0.25624
1224.73953,0.26032
1222.81080,0.26395
1220.88208,0.26738
1218.95336,0.27072
1217.02463,0.27374
1215.09591,0.27648
1213.16719,0.27915
1211.23846,0.28189
1209.30974,0.28464
1207.38101,0.28730
1205.45229,0.28997
1203.52357,0.29260
1201.59484,0.29488
1199.66612,0.29695
1197.73740,0.29927
1195.80867,0.30175
1193.87995,0.30406
1191.95123,0.30633
1190.02250,0.30881
1188.09378,0.31133
1186.16505,0.31367
1184.23633,0.31593
1182.30761,0.31826
1180.37888,0.32056
1178.45016,0.32266
1176.52144,0.32480
1174.59271,0.32728
1172.66399,0.32992
1170.73526,0.33239
1168.80654,0.33472
1166.87782,0.33690
1164.94909,0.33892
1163.02037,0.34093
1161.09165,0.34308
1159.16292,0.34525
1157.23420,0.34714
1155.30548,0.34876
1153.37675,0.35055
1151.44803,0.35272
1149.51930,0.35495
1147.59058,0.35696
1145.66186,0.35906
1143.73313,0.36150
1141.80441,0.36385
1139.87569,0.36611
1137.94696,0.36877
1136.01824,0.37167
1134.08952,0.37440
1132.16079,0.37713
1130.23207,0.38008
1128.30334,0.38321
1126.37462,0.38673
1124.44590,0.39096
1122.51717,0.39579
1120.58845,0.40093
1118.65973,0.40633
1116.73100,0.41232
1114.80228,0.41891
1112.87355,0.42589
1110.94483,0.43334
1109.01611,0.44066
1107.08738,0.44719
1105.15866,0.45332
1103.22994,0.45944
1101.30121,0.46518
1099.37249,0.46989
1097.44377,0.47313
1095.51504,0.47525
1093.58632,0.47699
1091.65759,0.47830
1089.72887,0.47859
1087.80015,0.47781
1085.87142,0.47668
1083.94270,0.47532
1082.01398,0.47311
1080.08525,0.47013
1078.15653,0.46666
1076.22781,0.46284
1074.29908,0.45920
1072.37036,0.45577
1070.44163,0.45181
1068.51291,0.44706
1066.58419,0.44196
1064.65546,0.43664
1062.72674,0.43110
1060.79802,0.42544
1058.86929,0.41945
1056.94057,0.41272
1055.01184,0.40547
1053.08312,0.39824
1051.15440,0.39105
1049.22567,0.38385
1047.29695,0.37649
1045.36823,0.36881
1043.43950,0.36104
1041.51078,0.35310
1039.58206,0.34492
1037.65333,0.33688
1035.72461,0.32910
1033.79588,0.32122
1031.86716,0.31338
1029.93844,0.30593
1028.00971,0.29857
1026.08099,0.29096
1024.15227,0.28335
1022.22354,0.27615
1020.29482,0.26949
1018.36610,0.26318
1016.43737,0.25704
1014.50865,0.25119
1012.57992,0.24587
1010.65120,0.24076
1008.72248,0.23571
1006.79375,0.23102
1004.86503,0.22663
1002.93631,0.22212
1001.00758,0.21748
999.07886,0.21295
997.15013,0.20881
995.22141,0.20491
993.29269,0.20080
991.36396,0.19666
989.43524,0.19289
987.50652,0.18922
985.57779,0.18565
983.64907,0.18274
981.72035,0.18056
979.79162,0.17875
977.86290,0.17717
975.93417,0.17574
974.00545,0.17446
972.07673,0.17347
970.14800,0.17271
968.21928,0.17191
966.29056,0.17104
964.36183,0.17033
962.43311,0.16983
960.50439,0.16931
958.57566,0.16871
956.64694,0.16799
954.71821,0.16712
952.78949,0.16616
950.86077,0.16508
948.93204,0.16367
947.00332,0.16189
945.07460,0.16004
943.14587,0.15822
941.21715,0.15617
939.28842,0.15380
937.35970,0.15124
935.43098,0.14859
933.50225,0.14591
931.57353,0.14325
929.64481,0.14048
927.71608,0.13749
925.78736,0.13439
923.85864,0.13130
921.92991,0.12800
920.00119,0.12439
918.07246,0.12097
916.14374,0.11793
914.21502,0.11470
912.28629,0.11099
910.35757,0.10715
908.42885,0.10328
906.50012,0.09938
904.57140,0.09564
902.64268,0.09212
900.71395,0.08874
898.78523,0.08539
896.85650,0.08197
894.92778,0.07860
892.99906,0.07532
891.07033,0.07204
889.14161,0.06891
887.21289,0.06610
885.28416,0.06327
883.35544,0.06030
881.42671,0.05764
879.49799,0.05530
877.56927,0.05292
875.64054,0.05062
873.71182,0.04856
871.78310,0.04658
869.85437,0.04469
867.92565,0.04276
865.99693,0.04079
864.06820,0.03927
862.13948,0.03809
860.21075,0.03660
858.28203,0.03493
856.35331,0.03354
854.42458,0.03256
852.49586,0.03222
850.56714,0.03248
848.63841,0.03276
846.70969,0.03315
844.78097,0.03436
842.85224,0.03626
840.92352,0.03832
838.99479,0.04078
837.06607,0.04398
835.13735,0.04762
833.20862,0.05112
831.27990,0.05452
829.35118,0.05824
827.42245,0.06209
825.49373,0.06559
823.56501,0.06887
821.63628,0.07241
819.70756,0.07632
817.77883,0.08006
815.85011,0.08317
813.92139,0.08600
811.99266,0.08904
810.06394,0.09206
808.13522,0.09470
806.20649,0.09715
804.27777,0.09949
802.34904,0.10119
800.42032,0.10197
798.49160,0.10227
796.56287,0.10221
794.63415,0.10135
792.70543,0.09992
790.77670,0.09853
788.84798,0.09689
786.91926,0.09453
784.99053,0.09165
783.06181,0.08846
781.13308,0.08498
779.20436,0.08112
777.27564,0.07703
775.34691,0.07302
773.41819,0.06897
771.48947,0.06513
769.56074,0.06227
767.63202,0.06025
765.70330,0.05859
763.77457,0.05742
761.84585,0.05696
759.91712,0.05698
757.98840,0.05705
756.05968,0.05677
754.13095,0.05630
752.20223,0.05576
750.27351,0.05488
748.34478,0.05414
746.41606,0.05428
744.48733,0.05483
742.55861,0.05496
740.62989,0.05478
738.70116,0.05466
736.77244,0.05467
734.84372,0.05486
732.91499,0.05513
730.98627,0.05527
729.05755,0.05541
727.12882,0.05579
725.20010,0.05637
723.27137,0.05675
721.34265,0.05694
719.41393,0.05710
717.48520,0.05729
715.55648,0.05746
713.62776,0.05761
711.69903,0.05778
709.77031,0.05803
707.84159,0.05870
705.91286,0.06004
703.98414,0.06171
702.05541,0.06311
700.12669,0.06404
698.19797,0.06486
696.26924,0.06587
694.34052,0.06695
692.41180,0.06768
690.48307,0.06780
688.55435,0.06764
686.62562,0.06766
684.69690,0.06774
682.76818,0.06779
680.83945,0.06815
678.91073,0.06895
676.98201,0.06981
675.05328,0.07031
673.12456,0.07041
671.19584,0.07046
669.26711,0.07091
667.33839,0.07203
665.40966,0.07338
663.48094,0.07440
661.55222,0.07511
659.62349,0.07567
657.69477,0.07615
655.76605,0.07660
653.83732,0.07754
651.90860,0.07928
649.97988,0.08128
648.05115,0.08285
646.12243,0.08395
644.19370,0.08504
642.26498,0.08629
640.33626,0.08736
638.40753,0.08823
636.47881,0.08928
634.55009,0.09051
632.62136,0.09134
630.69264,0.09170
628.76391,0.09234
626.83519,0.09370
624.90647,0.09510
622.97774,0.09615
621.04902,0.09726
619.12030,0.09915
617.19157,0.10154
615.26285,0.10330
613.33413,0.10425
611.40540,0.10497
609.47668,0.10580
607.54795,0.10724
605.61923,0.10942
603.69051,0.11141
601.76178,0.11285
599.83306,0.11443
597.90434,0.11619
595.97561,0.11794
594.04689,0.11972
592.11817,0.12087
590.18944,0.12118
588.26072,0.12172
586.33199,0.12311
584.40327,0.12468
582.47455,0.12564
580.54582,0.12598
578.61710,0.12651
576.68838,0.12765
574.75965,0.12876
572.83093,0.12912
570.90220,0.12917
568.97348,0.12954
567.04476,0.13051
565.11603,0.13197
563.18731,0.13298
561.25859,0.13302
559.32986,0.13273
557.40114,0.13239
555.47242,0.13214
553.54369,0.13245
551.61497,0.13322
549.68624,0.13431
547.75752,0.13595
545.82880,0.13755
543.90007,0.13833
541.97135,0.13859
540.04263,0.13864
538.11390,0.13794
536.18518,0.13654
534.25646,0.13581
532.32773,0.13671
530.39901,0.13838
528.47028,0.13870
526.54156,0.13676
524.61284,0.13517
522.68411,0.13628
520.75539,0.13851
518.82667,0.14004
516.89794,0.14151
514.96922,0.14394
513.04049,0.14720
511.11177,0.15030
509.18305,0.15276
507.25432,0.15600
505.32560,0.16143
503.39688,0.16822
501.46815,0.17452
499.53943,0.17983
497.61071,0.18535
495.68198,0.19273
493.75326,0.20298
491.82453,0.21479
489.89581,0.22449
487.96709,0.23076
486.03836,0.23711
484.10964,0.24638
482.18092,0.25668
480.25219,0.26510
478.32347,0.27127
476.39475,0.27684
474.46602,0.28336
472.53730,0.29024
470.60857,0.29596
468.67985,0.29948
466.75113,0.30018
464.82240,0.29826
462.89368,0.29461
460.96496,0.28918
459.03623,0.28166
457.10751,0.27431
455.17878,0.26854
453.25006,0.26181
451.32134,0.25454
449.39261,0.24973
447.46389,0.24630
445.53517,0.24111
443.60644,0.23292
441.67772,0.22251
439.74900,0.21284
437.82027,0.20661
435.89155,0.20281
433.96282,0.19809
432.03410,0.19084
430.10538,0.18151
428.17665,0.17199
426.24793,0.16476
424.31921,0.16042
422.39048,0.15818
420.46176,0.15560
418.53304,0.14809
416.60431,0.13754
414.67559,0.13004
412.74686,0.12488
410.81814,0.12015
408.88942,0.11772
406.96069,0.11775
405.03197,0.11531
403.10325,0.10676
401.17452,0.09579
399.24580,0.08782
397.31708,0.07885
395.38835,0.06056
393.45963,0.03928
391.53090,0.02574
389.60218,0.02351
387.67346,0.03567
385.74473,0.06227
383.81601,0.08807
381.88729,0.09173
379.95856,0.07378
378.02984,0.05366
376.10111,0.04062
374.17239,0.02176
372.24367,0.00000
370.31494,-0.01703
368.38622,0.00000
