3996.31543,0.00000
3994.38671,0.00017
3992.45799,0.00033
3990.52926,0.00046
3988.60054,0.00059
3986.67182,0.00066
3984.74309,0.00061
3982.81437,0.00047
3980.88564,0.00041
3978.95692,0.00052
3977.02820,0.00065
3975.09947,0.00066
3973.17075,0.00065
3971.24203,0.00075
3969.31330,0.00085
3967.38458,0.00079
3965.45586,0.00063
3963.52713,0.00056
3961.59841,0.00062
3959.66968,0.00063
3957.74096,0.00053
3955.81224,0.00046
3953.88351,0.00057
3951.95479,0.00088
3950.02607,0.00121
3948.09734,0.00130
3946.16862,0.00111
3944.23990,0.00090
3942.31117,0.00084
3940.38245,0.00084
3938.45372,0.00085
3936.52500,0.00079
3934.59628,0.00065
3932.66755,0.00054
3930.73883,0.00059
3928.81011,0.00080
3926.88138,0.00110
3924.95266,0.00133
3923.02393,0.00132
3921.09521,0.00109
3919.16649,0.00081
3917.23776,0.00065
3915.30904,0.00057
3913.38032,0.00050
3911.45159,0.00053
3909.52287,0.00067
3907.59415,0.00083
3905.66542,0.00098
3903.73670,0.00105
3901.80797,0.00098
3899.87925,0.00082
3897.95053,0.00063
3896.02180,0.00044
3894.09308,0.00039
3892.16436,0.00061
3890.23563,0.00090
3888.30691,0.00106
3886.37819,0.00106
3884.44946,0.00101
3882.52074,0.00091
3880.59201,0.00072
3878.66329,0.00043
3876.73457,0.00015
3874.80584,0.00000
3872.87712,0.00002
3870.94840,0.00021
3869.01967,0.00025
3867.09095,0.00007
3865.16222,-0.00012
3863.23350,-0.00024
3861.30478,-0.00031
3859.37605,-0.00028
3857.44733,-0.00006
3855.51861,0.00034
3853.58988,0.00070
3851.66116,0.00066
3849.73244,0.00031
3847.80371,0.00001
3845.87499,-0.00007
3843.94626,0.00001
3842.01754,0.00012
3840.08882,0.00026
3838.16009,0.00038
3836.23137,0.00027
3834.30265,0.00001
3832.37392,-0.00006
3830.44520,0.00006
3828.51648,0.00015
3826.58775,0.00015
3824.65903,0.00016
3822.73030,0.00032
3820.80158,0.00061
3818.87286,0.00080
3816.94413,0.00079
3815.01541,0.00060
3813.08669,0.00040
3811.15796,0.00042
3809.22924,0.00067
3807.30052,0.00101
3805.37179,0.00128
3803.44307,0.00146
3801.51434,0.00163
3799.58562,0.00179
3797.65690,0.00186
3795.72817,0.00176
3793.79945,0.00157
3791.87073,0.00154
3789.94200,0.00174
3788.01328,0.00207
3786.08455,0.00238
3784.15583,0.00262
3782.22711,0.00283
3780.29838,0.00312
3778.36966,0.00350
3776.44094,0.00384
3774.51221,0.00403
3772.58349,0.00412
3770.65477,0.00428
3768.72604,0.00461
3766.79732,0.00500
3764.86859,0.00534
3762.93987,0.00566
3761.01115,0.00606
3759.08242,0.00650
3757.15370,0.00688
3755.22498,0.00727
3753.29625,0.00785
3751.36753,0.00857
3749.43881,0.00914
3747.51008,0.00965
3745.58136,0.01040
3743.65263,0.01120
3741.72391,0.01164
3739.79519,0.01194
3737.86646,0.01272
3735.93774,0.01429
3734.00902,0.01623
3732.08029,0.01787
3730.15157,0.01912
3728.22284,0.02039
3726.29412,0.02207
3724.36540,0.02410
3722.43667,0.02622
3720.50795,0.02830
3718.57923,0.03031
3716.65050,0.03228
3714.72178,0.03441
3712.79306,0.03727
3710.86433,0.04090
3708.93561,0.04438
3707.00688,0.04726
3705.07816,0.05002
3703.14944,0.05330
3701.22071,0.05714
3699.29199,0.06091
3697.36327,0.06433
3695.43454,0.06755
3693.50582,0.07063
3691.57710,0.07387
3689.64837,0.07788
3687.71965,0.08251
3685.79092,0.08688
3683.86220,0.09075
3681.93348,0.09452
3680.00475,0.09843
3678.07603,0.10290
3676.14731,0.10849
3674.21858,0.11417
3672.28986,0.11867
3670.36113,0.12317
3668.43241,0.12809
3666.50369,0.13229
3664.57496,0.13592
3662.64624,0.13957
3660.71752,0.14325
3658.78879,0.14702
3656.86007,0.15108
3654.93135,0.15481
3653.00262,0.15757
3651.07390,0.16040
3649.14517,0.16464
3647.21645,0.16935
3645.28773,0.17281
3643.35900,0.17528
3641.43028,0.17774
3639.50156,0.18042
3637.57283,0.18318
3635.64411,0.18592
3633.71539,0.18851
3631.78666,0.19093
3629.85794,0.19371
3627.92921,0.19699
3626.00049,0.19974
3624.07177,0.20169
3622.14304,0.20357
3620.21432,0.20588
3618.28560,0.20832
3616.35687,0.21031
3614.42815,0.21191
3612.49942,0.21343
3610.57070,0.21507
3608.64198,0.21692
3606.71325,0.21867
3604.78453,0.22008
3602.85581,0.22151
3600.92708,0.22322
3598.99836,0.22508
3597.06964,0.22699
3595.14091,0.22893
3593.21219,0.23072
3591.28346,0.23223
3589.35474,0.23383
3587.42602,0.23579
3585.49729,0.23769
3583.56857,0.23911
3581.63985,0.24029
3579.71112,0.24168
3577.78240,0.24335
3575.85368,0.24504
3573.92495,0.24646
3571.99623,0.24761
3570.06750,0.24886
3568.13878,0.25062
3566.21006,0.25268
3564.28133,0.25432
3562.35261,0.25546
3560.42389,0.25650
3558.49516,0.25763
3556.56644,0.25885
3554.63771,0.26011
3552.70899,0.26138
3550.78027,0.26262
3548.85154,0.26385
3546.92282,0.26511
3544.99410,0.26644
3543.06537,0.26783
3541.13665,0.26922
3539.20793,0.27059
3537.27920,0.27182
3535.35048,0.27283
3533.42175,0.27366
3531.49303,0.27454
3529.56431,0.27569
3527.63558,0.27698
3525.70686,0.27808
3523.77814,0.27895
3521.84941,0.27994
3519.92069,0.28120
3517.99197,0.28245
3516.06324,0.28343
3514.13452,0.28426
3512.20579,0.28521
3510.27707,0.28629
3508.34835,0.28738
3506.41962,0.28841
3504.49090,0.28935
3502.56218,0.29025
3500.63345,0.29117
3498.70473,0.29204
3496.77600,0.29284
3494.84728,0.29369
3492.91856,0.29465
3490.98983,0.29558
3489.06111,0.29644
3487.13239,0.29735
3485.20366,0.29821
3483.27494,0.29894
3481.34622,0.29975
3479.41749,0.30075
3477.48877,0.30176
3475.56004,0.30250
3473.63132,0.30302
3471.70260,0.30356
3469.77387,0.30414
3467.84515,0.30472
3465.91643,0.30541
3463.98770,0.30624
3462.05898,0.30699
3460.13026,0.30759
3458.20153,0.30817
3456.27281,0.30868
3454.34408,0.30906
3452.41536,0.30937
3450.48664,0.30970
3448.55791,0.31014
3446.62919,0.31070
3444.70047,0.31122
3442.77174,0.31173
3440.84302,0.31229
3438.91429,0.31268
3436.98557,0.31288
3435.05685,0.31309
3433.12812,0.31341
3431.19940,0.31388
3429.27068,0.31430
3427.34195,0.31432
3425.41323,0.31419
3423.48451,0.31438
3421.55578,0.31477
3419.62706,0.31509
3417.69833,0.31539
3415.76961,0.31573
3413.84089,0.31600
3411.91216,0.31604
3409.98344,0.31604
3408.05472,0.31623
3406.12599,0.31639
3404.19727,0.31638
3402.26855,0.31640
3400.33982,0.31630
3398.41110,0.31598
3396.48237,0.31581
3394.55365,0.31573
3392.62493,0.31567
3390.69620,0.31583
3388.76748,0.31596
3386.83876,0.31568
3384.91003,0.31519
3382.98131,0.31486
3381.05259,0.31463
3379.12386,0.31444
3377.19514,0.31429
3375.26641,0.31410
3373.33769,0.31387
3371.40897,0.31374
3369.48024,0.31366
3367.55152,0.31344
3365.62280,0.31308
3363.69407,0.31273
3361.76535,0.31246
3359.83662,0.31225
3357.90790,0.31200
3355.97918,0.31158
3354.05045,0.31111
3352.12173,0.31086
3350.19301,0.31069
3348.26428,0.31036
3346.33556,0.30993
3344.40684,0.30951
3342.47811,0.30918
3340.54939,0.30885
3338.62066,0.30839
3336.69194,0.30790
3334.76322,0.30760
3332.83449,0.30737
3330.90577,0.30700
3328.97705,0.30658
3327.04832,0.30623
3325.11960,0.30594
3323.19088,0.30565
3321.26215,0.30519
3319.33343,0.30450
3317.40470,0.30380
3315.47598,0.30343
3313.54726,0.30335
3311.61853,0.30318
3309.68981,0.30274
3307.76109,0.30221
3305.83236,0.30183
3303.90364,0.30156
3301.97491,0.30121
3300.04619,0.30064
3298.11747,0.30000
3296.18874,0.29955
3294.26002,0.29929
3292.33130,0.29907
3290.40257,0.29887
3288.47385,0.29855
3286.54513,0.29806
3284.61640,0.29764
3282.68768,0.29740
3280.75895,0.29708
3278.83023,0.29661
3276.90151,0.29606
3274.97278,0.29543
3273.04406,0.29473
3271.11534,0.29431
3269.18661,0.29419
3267.25789,0.29398
3265.32917,0.29354
3263.40044,0.29308
3261.47172,0.29265
3259.54299,0.29213
3257.61427,0.29149
3255.68555,0.29096
3253.75682,0.29057
3251.82810,0.29003
3249.89938,0.28938
3247.97065,0.28888
3246.04193,0.28840
3244.11320,0.28782
3242.18448,0.28722
3240.25576,0.28661
3238.32703,0.28601
3236.39831,0.28552
3234.46959,0.28520
3232.54086,0.28475
3230.61214,0.28405
3228.68342,0.28339
3226.75469,0.28289
3224.82597,0.28225
3222.89724,0.28141
3220.96852,0.28062
3219.03980,0.28007
3217.11107,0.27954
3215.18235,0.27886
3213.25363,0.27810
3211.32490,0.27731
3209.39618,0.27648
3207.46746,0.27577
3205.53873,0.27519
3203.61001,0.27440
3201.68128,0.27336
3199.75256,0.27235
3197.82384,0.27150
3195.89511,0.27075
3193.96639,0.27001
3192.03767,0.26923
3190.10894,0.26836
3188.18022,0.26735
3186.25149,0.26627
3184.32277,0.26533
3182.39405,0.26461
3180.46532,0.26387
3178.53660,0.26293
3176.60788,0.26189
3174.67915,0.26084
3172.75043,0.25979
3170.82171,0.25885
3168.89298,0.25812
3166.96426,0.25748
3165.03553,0.25667
3163.10681,0.25570
3161.17809,0.25466
3159.24936,0.25366
3157.32064,0.25282
3155.39192,0.25198
3153.46319,0.25090
3151.53447,0.24974
3149.60575,0.24883
3147.67702,0.24800
3145.74830,0.24689
3143.81957,0.24557
3141.89085,0.24439
3139.96213,0.24357
3138.03340,0.24296
3136.10468,0.24221
3134.17596,0.24120
3132.24723,0.24010
3130.31851,0.23911
3128.38978,0.23825
3126.46106,0.23739
3124.53234,0.23643
3122.60361,0.23537
3120.67489,0.23425
3118.74617,0.23310
3116.81744,0.23189
3114.88872,0.23058
3112.96000,0.22938
3111.03127,0.22837
3109.10255,0.22744
3107.17382,0.22648
3105.24510,0.22545
3103.31638,0.22427
3101.38765,0.22312
3099.45893,0.22211
3097.53021,0.22098
3095.60148,0.21953
3093.67276,0.21800
3091.74404,0.21670
3089.81531,0.21563
3087.88659,0.21464
3085.95786,0.21360
3084.02914,0.21249
3082.10042,0.21129
3080.17169,0.21003
3078.24297,0.20884
3076.31425,0.20783
3074.38552,0.20683
3072.45680,0.20553
3070.52807,0.20395
3068.59935,0.20246
3066.67063,0.20126
3064.74190,0.20019
3062.81318,0.19907
3060.88446,0.19789
3058.95573,0.19667
3057.02701,0.19541
3055.09829,0.19418
3053.16956,0.19305
3051.24084,0.19197
3049.31211,0.19090
3047.38339,0.18984
3045.45467,0.18875
3043.52594,0.18761
3041.59722,0.18649
3039.66850,0.18546
3037.73977,0.18448
3035.81105,0.18347
3033.88233,0.18242
3031.95360,0.18140
3030.02488,0.18036
3028.09615,0.17923
3026.16743,0.17809
3024.23871,0.17704
3022.30998,0.17611
3020.38126,0.17528
3018.45254,0.17445
3016.52381,0.17353
3014.59509,0.17257
3012.66636,0.17160
3010.73764,0.17069
3008.80892,0.16988
3006.88019,0.16906
3004.95147,0.16811
3003.02275,0.16721
3001.09402,0.16651
2999.16530,0.16594
2997.23658,0.16535
2995.30785,0.16466
2993.37913,0.16388
2991.45040,0.16314
2989.52168,0.16254
2987.59296,0.16208
2985.66423,0.16161
2983.73551,0.16119
2981.80679,0.16092
2979.87806,0.16068
2977.94934,0.16039
2976.02062,0.16013
2974.09189,0.15998
2972.16317,0.15986
2970.23444,0.15969
2968.30572,0.15953
2966.37700,0.15942
2964.44827,0.15926
2962.51955,0.15909
2960.59083,0.15891
2958.66210,0.15854
2956.73338,0.15803
2954.80466,0.15761
2952.87593,0.15725
2950.94721,0.15683
2949.01848,0.15641
2947.08976,0.15617
2945.16104,0.15616
2943.23231,0.15641
2941.30359,0.15691
2939.37487,0.15746
2937.44614,0.15793
2935.51742,0.15828
2933.58869,0.15850
2931.65997,0.15864
2929.73125,0.15864
2927.80252,0.15840
2925.87380,0.15787
2923.94508,0.15687
2922.01635,0.15520
2920.08763,0.15303
2918.15891,0.15071
2916.23018,0.14846
2914.30146,0.14629
2912.37273,0.14410
2910.44401,0.14193
2908.51529,0.13991
2906.58656,0.13815
2904.65784,0.13660
2902.72912,0.13515
2900.80039,0.13366
2898.87167,0.13209
2896.94295,0.13060
2895.01422,0.12926
2893.08550,0.12793
2891.15677,0.12665
2889.22805,0.12548
2887.29933,0.12439
2885.37060,0.12340
2883.44188,0.12253
2881.51316,0.12169
2879.58443,0.12080
2877.65571,0.11998
2875.72698,0.11935
2873.79826,0.11880
2871.86954,0.11808
2869.94081,0.11719
2868.01209,0.11639
2866.08337,0.11579
2864.15464,0.11541
2862.22592,0.11529
2860.29720,0.11541
2858.36847,0.11569
2856.43975,0.11590
2854.51102,0.11569
2852.58230,0.11475
2850.65358,0.11304
2848.72485,0.11064
2846.79613,0.10774
2844.86741,0.10476
2842.93868,0.10211
2841.00996,0.09987
2839.08124,0.09793
2837.15251,0.09615
2835.22379,0.09454
2833.29506,0.09319
2831.36634,0.09205
2829.43762,0.09100
2827.50889,0.08999
2825.58017,0.08901
2823.65145,0.08799
2821.72272,0.08693
2819.79400,0.08593
2817.86527,0.08502
2815.93655,0.08428
2814.00783,0.08363
2812.07910,0.08291
2810.15038,0.08206
2808.22166,0.08112
2806.29293,0.08023
2804.36421,0.07948
2802.43549,0.07878
2800.50676,0.07801
2798.57804,0.07721
2796.64931,0.07646
2794.72059,0.07583
2792.79187,0.07524
2790.86314,0.07459
2788.93442,0.07384
2787.00570,0.07307
2785.07697,0.07240
2783.14825,0.07181
2781.21953,0.07110
2779.29080,0.07026
2777.36208,0.06946
2775.43335,0.06879
2773.50463,0.06813
2771.57591,0.06739
2769.64718,0.06669
2767.71846,0.06611
2765.78974,0.06557
2763.86101,0.06499
2761.93229,0.06432
2760.00356,0.06359
2758.07484,0.06291
2756.14612,0.06229
2754.21739,0.06165
2752.28867,0.06099
2750.35995,0.06044
2748.43122,0.05998
2746.50250,0.05947
2744.57378,0.05890
2742.64505,0.05838
2740.71633,0.05783
2738.78760,0.05719
2736.85888,0.05652
2734.93016,0.05590
2733.00143,0.05529
2731.07271,0.05470
2729.14399,0.05418
2727.21526,0.05363
2725.28654,0.05299
2723.35782,0.05239
2721.42909,0.05189
2719.50037,0.05140
2717.57164,0.05092
2715.64292,0.05044
2713.71420,0.04993
2711.78547,0.04940
2709.85675,0.04883
2707.92803,0.04825
2705.99930,0.04768
2704.07058,0.04713
2702.14185,0.04656
2700.21313,0.04602
2698.28441,0.04554
2696.35568,0.04507
2694.42696,0.04458
2692.49824,0.04406
2690.56951,0.04355
2688.64079,0.04308
2686.71207,0.04261
2684.78334,0.04213
2682.85462,0.04175
2680.92589,0.04145
2678.99717,0.04106
2677.06845,0.04054
2675.13972,0.03999
2673.21100,0.03957
2671.28228,0.03916
2669.35355,0.03864
2667.42483,0.03812
2665.49611,0.03768
2663.56738,0.03728
2661.63866,0.03686
2659.70993,0.03635
2657.78121,0.03585
2655.85249,0.03542
2653.92376,0.03501
2651.99504,0.03461
2650.06632,0.03423
2648.13759,0.03390
2646.20887,0.03357
2644.28014,0.03314
2642.35142,0.03269
2640.42270,0.03232
2638.49397,0.03193
2636.56525,0.03149
2634.63653,0.03109
2632.70780,0.03065
2630.77908,0.03019
2628.85036,0.02978
2626.92163,0.02946
2624.99291,0.02915
2623.06418,0.02886
2621.13546,0.02858
2619.20674,0.02825
2617.27801,0.02789
2615.34929,0.02752
2613.42057,0.02710
2611.49184,0.02668
2609.56312,0.02633
2607.63440,0.02600
2605.70567,0.02564
2603.77695,0.02534
2601.84822,0.02512
2599.91950,0.02485
2597.99078,0.02450
2596.06205,0.02412
2594.13333,0.02371
2592.20461,0.02329
2590.27588,0.02299
2588.34716,0.02280
2586.41843,0.02259
2584.48971,0.02228
2582.56099,0.02192
2580.63226,0.02154
2578.70354,0.02119
2576.77482,0.02092
2574.84609,0.02070
2572.91737,0.02047
2570.98865,0.02023
2569.05992,0.02004
2567.13120,0.01987
2565.20247,0.01961
2563.27375,0.01925
2561.34503,0.01882
2559.41630,0.01846
2557.48758,0.01823
2555.55886,0.01808
2553.63013,0.01793
2551.70141,0.01775
2549.77269,0.01751
2547.84396,0.01726
2545.91524,0.01705
2543.98651,0.01683
2542.05779,0.01662
2540.12907,0.01646
2538.20034,0.01634
2536.27162,0.01618
2534.34290,0.01600
2532.41417,0.01579
2530.48545,0.01559
2528.55673,0.01541
2526.62800,0.01518
2524.69928,0.01487
2522.77055,0.01465
2520.84183,0.01456
2518.91311,0.01447
2516.98438,0.01428
2515.05566,0.01402
2513.12694,0.01375
2511.19821,0.01352
2509.26949,0.01333
2507.34076,0.01314
2505.41204,0.01292
2503.48332,0.01269
2501.55459,0.01253
2499.62587,0.01241
2497.69715,0.01229
2495.76842,0.01217
2493.83970,0.01204
2491.91098,0.01184
2489.98225,0.01159
2488.05353,0.01138
2486.12480,0.01123
2484.19608,0.01105
2482.26736,0.01082
2480.33863,0.01058
2478.40991,0.01042
2476.48119,0.01031
2474.55246,0.01012
2472.62374,0.00989
2470.69502,0.00972
2468.76629,0.00960
2466.83757,0.00947
2464.90884,0.00932
2462.98012,0.00913
2461.05140,0.00889
2459.12267,0.00865
2457.19395,0.00846
2455.26523,0.00837
2453.33650,0.00830
2451.40778,0.00816
2449.47905,0.00798
2447.55033,0.00778
2445.62161,0.00761
2443.69288,0.00753
2441.76416,0.00747
2439.83544,0.00733
2437.90671,0.00712
2435.97799,0.00696
2434.04927,0.00684
2432.12054,0.00672
2430.19182,0.00664
2428.26309,0.00662
2426.33437,0.00656
2424.40565,0.00640
2422.47692,0.00617
2420.54820,0.00594
2418.61948,0.00575
2416.69075,0.00560
2414.76203,0.00547
2412.83331,0.00538
2410.90458,0.00533
2408.97586,0.00522
2407.04713,0.00501
2405.11841,0.00479
2403.18969,0.00461
2401.26096,0.00445
2399.33224,0.00436
2397.40352,0.00431
2395.47479,0.00423
2393.54607,0.00409
2391.61734,0.00396
2389.68862,0.00389
2387.75990,0.00380
2385.83117,0.00364
2383.90245,0.00346
2381.97373,0.00335
2380.04500,0.00336
2378.11628,0.00345
2376.18756,0.00353
2374.25883,0.00359
2372.33011,0.00366
2370.40138,0.00375
2368.47266,0.00382
2366.54394,0.00386
2364.61521,0.00384
2362.68649,0.00376
2360.75777,0.00369
2358.82904,0.00364
2356.90032,0.00352
2354.97160,0.00335
2353.04287,0.00320
2351.11415,0.00306
2349.18542,0.00293
2347.25670,0.00284
2345.32798,0.00286
2343.39925,0.00293
2341.47053,0.00297
2339.54181,0.00291
2337.61308,0.00276
2335.68436,0.00265
2333.75563,0.00261
2331.82691,0.00258
2329.89819,0.00250
2327.96946,0.00242
2326.04074,0.00232
2324.11202,0.00219
2322.18329,0.00210
2320.25457,0.00204
2318.32585,0.00192
2316.39712,0.00173
2314.46840,0.00157
2312.53967,0.00147
2310.61095,0.00141
2308.68223,0.00131
2306.75350,0.00118
2304.82478,0.00106
2302.89606,0.00098
2300.96733,0.00095
2299.03861,0.00098
2297.10989,0.00100
2295.18116,0.00096
2293.25244,0.00091
2291.32371,0.00085
2289.39499,0.00076
2287.46627,0.00068
2285.53754,0.00066
2283.60882,0.00071
2281.68010,0.00079
2279.75137,0.00082
2277.82265,0.00076
2275.89392,0.00065
2273.96520,0.00057
2272.03648,0.00051
2270.10775,0.00048
2268.17903,0.00047
2266.25031,0.00048
2264.32158,0.00047
2262.39286,0.00040
2260.46414,0.00034
2258.53541,0.00036
2256.60669,0.00038
2254.67796,0.00036
2252.74924,0.00034
2250.82052,0.00033
2248.89179,0.00029
2246.96307,0.00025
2245.03435,0.00027
2243.10562,0.00028
2241.17690,0.00027
2239.24818,0.00026
2237.31945,0.00022
2235.39073,0.00015
2233.46200,0.00015
2231.53328,0.00019
2229.60456,0.00016
2227.67583,0.00005
2225.74711,-0.00006
2223.81839,-0.00011
2221.88966,-0.00009
2219.96094,-0.00004
2218.03221,0.00002
2216.10349,0.00003
2214.17477,-0.00006
2212.24604,-0.00017
2210.31732,-0.00019
2208.38860,-0.00011
2206.45987,0.00000
2204.53115,0.00005
2202.60243,0.00002
2200.67370,-0.00005
2198.74498,-0.00009
2196.81625,-0.00009
2194.88753,-0.00005
2192.95881,-0.00001
2191.03008,-0.00001
2189.10136,0.00000
2187.17264,0.00002
2185.24391,0.00002
2183.31519,0.00003
2181.38647,0.00007
2179.45774,0.00007
2177.52902,0.00004
2175.60029,0.00005
2173.67157,0.00011
2171.74285,0.00017
2169.81412,0.00013
2167.88540,0.00004
2165.95668,0.00006
2164.02795,0.00020
2162.09923,0.00030
2160.17050,0.00030
2158.24178,0.00027
2156.31306,0.00026
2154.38433,0.00025
2152.45561,0.00021
2150.52689,0.00013
2148.59816,0.00008
2146.66944,0.00014
2144.74072,0.00026
2142.81199,0.00031
2140.88327,0.00026
2138.95454,0.00021
2137.02582,0.00019
2135.09710,0.00021
2133.16837,0.00026
2131.23965,0.00035
2129.31093,0.00040
2127.38220,0.00039
2125.45348,0.00034
2123.52476,0.00024
2121.59603,0.00011
2119.66731,0.00001
2117.73858,-0.00002
2115.80986,-0.00001
2113.88114,0.00005
2111.95241,0.00010
2110.02369,0.00009
2108.09497,0.00005
2106.16624,0.00003
2104.23752,0.00001
2102.30880,-0.00001
2100.38007,-0.00001
2098.45135,-0.00002
2096.52262,-0.00003
2094.59390,0.00000
2092.66518,-0.00005
2090.73645,-0.00013
2088.80773,-0.00016
2086.87901,-0.00016
2084.95028,-0.00022
2083.02156,-0.00032
2081.09283,-0.00039
2079.16411,-0.00042
2077.23539,-0.00041
2075.30666,-0.00040
2073.37794,-0.00034
2071.44922,-0.00025
2069.52049,-0.00022
2067.59177,-0.00027
2065.66305,-0.00031
2063.73432,-0.00025
2061.80560,-0.00017
2059.87687,-0.00011
2057.94815,-0.00004
2056.01943,0.00006
2054.09070,0.00021
2052.16198,0.00036
2050.23326,0.00046
2048.30453,0.00056
2046.37581,0.00071
2044.44709,0.00089
2042.51836,0.00111
2040.58964,0.00137
2038.66091,0.00166
2036.73219,0.00193
2034.80347,0.00215
2032.87474,0.00234
2030.94602,0.00254
2029.01730,0.00275
2027.08857,0.00293
2025.15985,0.00310
2023.23112,0.00328
2021.30240,0.00346
2019.37368,0.00365
2017.44495,0.00383
2015.51623,0.00398
2013.58751,0.00411
2011.65878,0.00427
2009.73006,0.00444
2007.80134,0.00453
2005.87261,0.00451
2003.94389,0.00448
2002.01516,0.00450
2000.08644,0.00458
1998.15772,0.00465
1996.22899,0.00466
1994.30027,0.00462
1992.37155,0.00460
1990.44282,0.00459
1988.51410,0.00451
1986.58538,0.00436
1984.65665,0.00420
1982.72793,0.00410
1980.79920,0.00403
1978.87048,0.00392
1976.94176,0.00379
1975.01303,0.00362
1973.08431,0.00342
1971.15559,0.00321
1969.22686,0.00304
1967.29814,0.00286
1965.36941,0.00271
1963.44069,0.00256
1961.51197,0.00231
1959.58324,0.00202
1957.65452,0.00178
1955.72580,0.00160
1953.79707,0.00143
1951.86835,0.00123
1949.93963,0.00104
1948.01090,0.00092
1946.08218,0.00085
1944.15345,0.00073
1942.22473,0.00057
1940.29601,0.00037
1938.36728,0.00015
1936.43856,0.00000
1934.50984,-0.00004
1932.58111,-0.00001
1930.65239,0.00003
1928.72367,0.00004
1926.79494,0.00000
1924.86622,-0.00001
1922.93749,0.00009
1921.00877,0.00024
1919.08005,0.00042
1917.15132,0.00069
1915.22260,0.00104
1913.29388,0.00144
1911.36515,0.00190
1909.43643,0.00244
1907.50770,0.00295
1905.57898,0.00343
1903.65026,0.00394
1901.72153,0.00452
1899.79281,0.00511
1897.86409,0.00567
1895.93536,0.00620
1894.00664,0.00670
1892.07792,0.00721
1890.14919,0.00774
1888.22047,0.00821
1886.29174,0.00857
1884.36302,0.00886
1882.43430,0.00911
1880.50557,0.00930
1878.57685,0.00939
1876.64813,0.00942
1874.71940,0.00942
1872.79068,0.00938
1870.86196,0.00931
1868.93323,0.00921
1867.00451,0.00900
1865.07578,0.00864
1863.14706,0.00816
1861.21834,0.00763
1859.28961,0.00705
1857.36089,0.00645
1855.43217,0.00582
1853.50344,0.00519
1851.57472,0.00461
1849.64599,0.00411
1847.71727,0.00366
1845.78855,0.00320
1843.85982,0.00268
1841.93110,0.00212
1840.00238,0.00163
1838.07365,0.00128
1836.14493,0.00099
1834.21621,0.00067
1832.28748,0.00039
1830.35876,0.00019
1828.43003,0.00003
1826.50131,-0.00007
1824.57259,-0.00012
1822.64386,-0.00018
1820.71514,-0.00022
1818.78642,-0.00020
1816.85769,-0.00012
1814.92897,0.00000
1813.00025,-0.00008
1811.07152,-0.00011
1809.14280,-0.00007
1807.21407,0.00002
1805.28535,0.00016
1803.35663,0.00036
1801.42790,0.00065
1799.49918,0.00095
1797.57046,0.00124
1795.64173,0.00160
1793.71301,0.00217
1791.78428,0.00295
1789.85556,0.00369
1787.92684,0.00431
1785.99811,0.00498
1784.06939,0.00575
1782.14067,0.00657
1780.21194,0.00743
1778.28322,0.00827
1776.35450,0.00906
1774.42577,0.00997
1772.49705,0.01105
1770.56832,0.01208
1768.63960,0.01295
1766.71088,0.01375
1764.78215,0.01454
1762.85343,0.01542
1760.92471,0.01639
1758.99598,0.01733
1757.06726,0.01829
1755.13854,0.01927
1753.20981,0.02023
1751.28109,0.02140
1749.35236,0.02284
1747.42364,0.02431
1745.49492,0.02570
1743.56619,0.02713
1741.63747,0.02876
1739.70875,0.03062
1737.78002,0.03243
1735.85130,0.03430
1733.92257,0.03674
1731.99385,0.03941
1730.06513,0.04178
1728.13640,0.04403
1726.20768,0.04632
1724.27896,0.04868
1722.35023,0.05086
1720.42151,0.05273
1718.49279,0.05475
1716.56406,0.05723
1714.63534,0.05957
1712.70661,0.06144
1710.77789,0.06319
1708.84917,0.06518
1706.92044,0.06754
1704.99172,0.07000
1703.06300,0.07228
1701.13427,0.07494
1699.20555,0.07832
1697.27683,0.08176
1695.34810,0.08500
1693.41938,0.08780
1691.49065,0.09023
1689.56193,0.09279
1687.63321,0.09548
1685.70448,0.09878
1683.77576,0.10311
1681.84704,0.10704
1679.91831,0.10982
1677.98959,0.11232
1676.06087,0.11527
1674.13214,0.11852
1672.20342,0.12157
1670.27469,0.12471
1668.34597,0.12788
1666.41725,0.13036
1664.48852,0.13253
1662.55980,0.13506
1660.63108,0.13755
1658.70235,0.13940
1656.77363,0.14075
1654.84490,0.14239
1652.91618,0.14471
1650.98746,0.14650
1649.05873,0.14743
1647.13001,0.14852
1645.20129,0.14976
1643.27256,0.15050
1641.34384,0.15087
1639.41512,0.15119
1637.48639,0.15163
1635.55767,0.15216
1633.62894,0.15234
1631.70022,0.15191
1629.77150,0.15106
1627.84277,0.14996
1625.91405,0.14864
1623.98533,0.14696
1622.05660,0.14494
1620.12788,0.14285
1618.19916,0.14052
1616.27043,0.13764
1614.34171,0.13472
1612.41298,0.13198
1610.48426,0.12910
1608.55554,0.12600
1606.62681,0.12287
1604.69809,0.11981
1602.76937,0.11678
1600.84064,0.11383
1598.91192,0.11106
1596.98319,0.10843
1595.05447,0.10584
1593.12575,0.10327
1591.19702,0.10075
1589.26830,0.09834
1587.33958,0.09605
1585.41085,0.09384
1583.48213,0.09172
1581.55341,0.08977
1579.62468,0.08796
1577.69596,0.08599
1575.76723,0.08378
1573.83851,0.08187
1571.90979,0.08043
1569.98106,0.07907
1568.05234,0.07757
1566.12362,0.07611
1564.19489,0.07489
1562.26617,0.07391
1560.33745,0.07277
1558.40872,0.07112
1556.48000,0.06955
1554.55127,0.06837
1552.62255,0.06727
1550.69383,0.06605
1548.76510,0.06469
1546.83638,0.06331
1544.90766,0.06193
1542.97893,0.06047
1541.05021,0.05878
1539.12148,0.05681
1537.19276,0.05495
1535.26404,0.05322
1533.33531,0.05133
1531.40659,0.04935
1529.47787,0.04745
1527.54914,0.04540
1525.62042,0.04310
1523.69170,0.04084
1521.76297,0.03878
1519.83425,0.03691
1517.90552,0.03510
1515.97680,0.03312
1514.04808,0.03107
1512.11935,0.02913
1510.19063,0.02720
1508.26191,0.02484
1506.33318,0.02191
1504.40446,0.01937
1502.47574,0.01751
1500.54701,0.01583
1498.61829,0.01412
1496.68956,0.01251
1494.76084,0.01117
1492.83212,0.01012
1490.90339,0.00929
1488.97467,0.00872
1487.04595,0.00847
1485.11722,0.00849
1483.18850,0.00876
1481.25977,0.00925
1479.33105,0.00990
1477.40233,0.01079
1475.47360,0.01215
1473.54488,0.01429
1471.61616,0.01694
1469.68743,0.01911
1467.75871,0.02064
1465.82999,0.02202
1463.90126,0.02321
1461.97254,0.02394
1460.04381,0.02451
1458.11509,0.02542
1456.18637,0.02651
1454.25764,0.02712
1452.32892,0.02728
1450.40020,0.02745
1448.47147,0.02782
1446.54275,0.02833
1444.61403,0.02883
1442.68530,0.02921
1440.75658,0.02951
1438.82785,0.02984
1436.89913,0.03034
1434.97041,0.03092
1433.04168,0.03145
1431.11296,0.03212
1429.18424,0.03297
1427.25551,0.03378
1425.32679,0.03447
1423.39806,0.03514
1421.46934,0.03590
1419.54062,0.03697
1417.61189,0.03827
1415.68317,0.03942
1413.75445,0.04051
1411.82572,0.04183
1409.89700,0.04336
1407.96828,0.04491
1406.03955,0.04638
1404.11083,0.04760
1402.18210,0.04825
1400.25338,0.04807
1398.32466,0.04692
1396.39593,0.04489
1394.46721,0.04236
1392.53849,0.03995
1390.60976,0.03818
1388.68104,0.03726
1386.75232,0.03702
1384.82359,0.03645
1382.89487,0.03452
1380.96614,0.03151
1379.03742,0.02849
1377.10870,0.02605
1375.17997,0.02402
1373.25125,0.02221
1371.32253,0.02061
1369.39380,0.01922
1367.46508,0.01794
1365.53635,0.01670
1363.60763,0.01539
1361.67891,0.01409
1359.75018,0.01296
1357.82146,0.01199
1355.89274,0.01108
1353.96401,0.01021
1352.03529,0.00940
1350.10657,0.00869
1348.17784,0.00809
1346.24912,0.00756
1344.32039,0.00701
1342.39167,0.00639
1340.46295,0.00582
1338.53422,0.00540
1336.60550,0.00508
1334.67678,0.00475
1332.74805,0.00445
1330.81933,0.00424
1328.89061,0.00411
1326.96188,0.00402
1325.03316,0.00403
1323.10443,0.00417
1321.17571,0.00440
1319.24699,0.00466
1317.31826,0.00490
1315.38954,0.00511
1313.46082,0.00535
1311.53209,0.00565
1309.60337,0.00601
1307.67464,0.00646
1305.74592,0.00705
1303.81720,0.00773
1301.88847,0.00851
1299.95975,0.00949
1298.03103,0.01062
1296.10230,0.01180
1294.17358,0.01307
1292.24486,0.01458
1290.31613,0.01638
1288.38741,0.01849
1286.45868,0.02091
1284.52996,0.02363
1282.60124,0.02664
1280.67251,0.02993
1278.74379,0.03343
1276.81507,0.03717
1274.88634,0.04132
1272.95762,0.04614
1271.02890,0.05171
1269.10017,0.05795
1267.17145,0.06489
1265.24272,0.07261
1263.31400,0.08116
1261.38528,0.09079
1259.45655,0.10167
1257.52783,0.11350
1255.59911,0.12591
1253.67038,0.13871
1251.74166,0.15142
1249.81294,0.16354
1247.88421,0.17494
1245.95549,0.18565
1244.02676,0.19562
1242.09804,0.20474
1240.16932,0.21293
1238.24059,0.22025
1236.31187,0.22695
1234.38315,0.23315
1232.45442,0.23871
1230.52570,0.24363
1228.59697,0.24809
1226.66825,0.25218
1224.73953,0.25588
1222.81080,0.25921
1220.88208,0.26240
1218.95336,0.26568
1217.02463,0.26886
1215.09591,0.27176
1213.16719,0.27450
1211.23846,0.27716
1209.30974,0.27973
1207.38101,0.28239
1205.45229,0.28521
1203.52357,0.28786
1201.59484,0.29019
1199.66612,0.29241
1197.73740,0.29458
1195.80867,0.29678
1193.87995,0.29900
1191.95123,0.30118
1190.02250,0.30354
1188.09378,0.30615
1186.16505,0.30844
1184.23633,0.31028
1182.30761,0.31217
1180.37888,0.31446
1178.45016,0.31688
1176.52144,0.31919
1174.59271,0.32170
1172.66399,0.32433
1170.73526,0.32657
1168.80654,0.32852
1166.87782,0.33056
1164.94909,0.33265
1163.02037,0.33468
1161.09165,0.33660
1159.16292,0.33831
1157.23420,0.34018
1155.30548,0.34236
1153.37675,0.34439
1151.44803,0.34619
1149.51930,0.34823
1147.59058,0.35048
1145.66186,0.35260
1143.73313,0.35453
1141.80441,0.35640
1139.87569,0.35852
1137.94696,0.36103
1136.01824,0.36367
1134.08952,0.36647
1132.16079,0.36932
1130.23207,0.37219
1128.30334,0.37541
1126.37462,0.37898
1124.44590,0.38264
1122.51717,0.38662
1120.58845,0.39135
1118.65973,0.39679
1116.73100,0.40269
1114.80228,0.40898
1112.87355,0.41546
1110.94483,0.42226
1109.01611,0.42977
1107.08738,0.43764
1105.15866,0.44505
1103.22994,0.45150
1101.30121,0.45708
1099.37249,0.46222
1097.44377,0.46659
1095.51504,0.46931
1093.58632,0.47066
1091.65759,0.47163
1089.72887,0.47230
1087.80015,0.47205
1085.87142,0.47110
1083.94270,0.46989
1082.01398,0.46815
1080.08525,0.46575
1078.15653,0.46293
1076.22781,0.46004
1074.29908,0.45683
1072.37036,0.45281
1070.44163,0.44842
1068.51291,0.44421
1066.58419,0.43952
1064.65546,0.43373
1062.72674,0.42799
1060.79802,0.42292
1058.86929,0.41740
1056.94057,0.41066
1055.01184,0.40309
1053.08312,0.39535
1051.15440,0.38764
1049.22567,0.37993
1047.29695,0.37202
1045.36823,0.36366
1043.43950,0.35494
1041.51078,0.34618
1039.58206,0.33780
1037.65333,0.32961
1035.72461,0.32101
1033.79588,0.31230
1031.86716,0.30390
1029.93844,0.29538
1028.00971,0.28693
1026.08099,0.27914
1024.15227,0.27154
1022.22354,0.26368
1020.29482,0.25618
1018.36610,0.24956
1016.43737,0.24328
1014.50865,0.23675
1012.57992,0.23031
1010.65120,0.22436
1008.72248,0.21884
1006.79375,0.21350
1004.86503,0.20820
1002.93631,0.20311
1001.00758,0.19834
999.07886,0.19380
997.15013,0.18930
995.22141,0.18488
993.29269,0.18081
991.36396,0.17701
989.43524,0.17321
987.50652,0.16972
985.57779,0.16677
983.64907,0.16411
981.72035,0.16162
979.79162,0.15945
977.86290,0.15775
975.93417,0.15648
974.00545,0.15526
972.07673,0.15395
970.14800,0.15288
968.21928,0.15215
966.29056,0.15152
964.36183,0.15099
962.43311,0.15057
960.50439,0.15009
958.57566,0.14946
956.64694,0.14848
954.71821,0.14705
952.78949,0.14562
950.86077,0.14444
948.93204,0.14318
947.00332,0.14153
945.07460,0.13950
943.14587,0.13718
941.21715,0.13465
939.28842,0.13210
937.35970,0.12960
935.43098,0.12707
933.50225,0.12451
931.57353,0.12188
929.64481,0.11915
927.71608,0.11621
925.78736,0.11288
923.85864,0.10943
921.92991,0.10620
920.00119,0.10287
918.07246,0.09906
916.14374,0.09508
914.21502,0.09140
912.28629,0.08788
910.35757,0.08400
908.42885,0.07961
906.50012,0.07538
904.57140,0.07173
902.64268,0.06814
900.71395,0.06410
898.78523,0.05970
896.85650,0.05536
894.92778,0.05136
892.99906,0.04780
891.07033,0.04477
889.14161,0.04188
887.21289,0.03856
885.28416,0.03483
883.35544,0.03134
881.42671,0.02840
879.49799,0.02565
877.56927,0.02297
875.64054,0.02071
873.71182,0.01887
871.78310,0.01715
869.85437,0.01528
867.92565,0.01314
865.99693,0.01080
864.06820,0.00867
862.13948,0.00692
860.21075,0.00540
858.28203,0.00396
856.35331,0.00253
854.42458,0.00136
852.49586,0.00081
850.56714,0.00080
848.63841,0.00105
846.70969,0.00162
844.78097,0.00279
842.85224,0.00463
840.92352,0.00717
838.99479,0.01022
837.06607,0.01342
835.13735,0.01659
833.20862,0.01984
831.27990,0.02335
829.35118,0.02718
827.42245,0.03124
825.49373,0.03537
823.56501,0.03946
821.63628,0.04355
819.70756,0.04758
817.77883,0.05159
815.85011,0.05550
813.92139,0.05880
811.99266,0.06152
810.06394,0.06433
808.13522,0.06741
806.20649,0.07053
804.27777,0.07365
802.34904,0.07644
800.42032,0.07814
798.49160,0.07844
796.56287,0.07780
794.63415,0.07709
792.70543,0.07646
790.77670,0.07522
788.84798,0.07302
786.91926,0.07016
784.99053,0.06696
783.06181,0.06354
781.13308,0.05971
779.20436,0.05538
777.27564,0.05062
775.34691,0.04553
773.41819,0.04060
771.48947,0.03636
769.56074,0.03291
767.63202,0.03049
765.70330,0.02905
763.77457,0.02804
761.84585,0.02727
759.91712,0.02680
757.98840,0.02634
756.05968,0.02572
754.13095,0.02492
752.20223,0.02392
750.27351,0.02304
748.34478,0.02266
746.41606,0.02253
744.48733,0.02221
742.55861,0.02179
740.62989,0.02169
738.70116,0.02209
736.77244,0.02254
734.84372,0.02255
732.91499,0.02224
730.98627,0.02194
729.05755,0.02182
727.12882,0.02203
725.20010,0.02245
723.27137,0.02277
721.34265,0.02284
719.41393,0.02276
717.48520,0.02277
715.55648,0.02275
713.62776,0.02252
711.69903,0.02267
709.77031,0.02365
707.84159,0.02467
705.91286,0.02525
703.98414,0.02589
702.05541,0.02663
700.12669,0.02708
698.19797,0.02730
696.26924,0.02736
694.34052,0.02736
692.41180,0.02759
690.48307,0.02809
688.55435,0.02843
686.62562,0.02824
684.69690,0.02779
682.76818,0.02771
680.83945,0.02813
678.91073,0.02851
676.98201,0.02852
675.05328,0.02843
673.12456,0.02835
671.19584,0.02835
669.26711,0.02873
667.33839,0.02959
665.40966,0.03060
663.48094,0.03165
661.55222,0.03245
659.62349,0.03266
657.69477,0.03281
655.76605,0.03362
653.83732,0.03509
651.90860,0.03686
649.97988,0.03871
648.05115,0.04050
646.12243,0.04199
644.19370,0.04326
642.26498,0.04463
640.33626,0.04595
638.40753,0.04693
636.47881,0.04794
634.55009,0.04933
632.62136,0.05069
630.69264,0.05164
628.76391,0.05257
626.83519,0.05416
624.90647,0.05614
622.97774,0.05764
621.04902,0.05874
619.12030,0.06009
617.19157,0.06129
615.26285,0.06198
613.33413,0.06263
611.40540,0.06350
609.47668,0.06462
607.54795,0.06597
605.61923,0.06728
603.69051,0.06885
601.76178,0.07122
599.83306,0.07430
597.90434,0.07702
595.97561,0.07834
594.04689,0.07878
592.11817,0.07958
590.18944,0.08103
588.26072,0.08282
586.33199,0.08460
584.40327,0.08589
582.47455,0.08642
580.54582,0.08661
578.61710,0.08693
576.68838,0.08757
574.75965,0.08855
572.83093,0.08871
570.90220,0.08746
568.97348,0.08624
567.04476,0.08580
565.11603,0.08582
563.18731,0.08634
561.25859,0.08732
559.32986,0.08827
557.40114,0.08851
555.47242,0.08803
553.54369,0.08815
551.61497,0.08955
549.68624,0.09063
547.75752,0.09051
545.82880,0.09091
543.90007,0.09275
541.97135,0.09467
540.04263,0.09588
538.11390,0.09617
536.18518,0.09493
534.25646,0.09236
532.32773,0.08981
530.39901,0.08857
528.47028,0.08892
526.54156,0.09015
524.61284,0.09191
522.68411,0.09407
520.75539,0.09530
518.82667,0.09476
516.89794,0.09417
514.96922,0.09545
513.04049,0.09845
511.11177,0.10247
509.18305,0.10724
507.25432,0.11294
505.32560,0.11898
503.39688,0.12479
501.46815,0.13077
499.53943,0.13636
497.61071,0.14226
495.68198,0.15150
493.75326,0.16358
491.82453,0.17409
489.89581,0.18116
487.96709,0.18689
486.03836,0.19388
484.10964,0.20276
482.18092,0.21170
480.25219,0.21888
478.32347,0.22487
476.39475,0.23111
474.46602,0.23816
472.53730,0.24540
470.60857,0.25040
468.67985,0.25227
466.75113,0.25362
464.82240,0.25524
462.89368,0.25451
460.96496,0.24980
459.03623,0.24255
457.10751,0.23616
455.17878,0.23257
453.25006,0.22990
451.32134,0.22643
449.39261,0.22193
447.46389,0.21473
445.53517,0.20458
443.60644,0.19527
441.67772,0.18871
439.74900,0.18227
437.82027,0.17514
435.89155,0.16971
433.96282,0.16657
432.03410,0.16434
430.10538,0.16202
428.17665,0.15654
426.24793,0.14501
424.31921,0.13156
422.39048,0.12224
420.46176,0.11502
418.53304,0.10609
416.60431,0.09960
414.67559,0.09650
412.74686,0.09058
410.81814,0.08124
408.88942,0.07429
406.96069,0.07184
405.03197,0.07182
403.10325,0.07367
401.17452,0.07729
399.24580,0.07860
397.31708,0.07589
395.38835,0.07166
393.45963,0.06197
391.53090,0.04779
389.60218,0.04284
387.67346,0.04725
385.74473,0.04200
383.81601,0.02044
381.88729,0.00000
379.95856,0.00168
378.02984,0.04086
376.10111,0.09828
374.17239,0.10463
372.24367,0.04635
370.31494,0.00202
368.38622,0.00000
