3996.31543,0.00000
3994.38671,0.00009
3992.45799,0.00024
3990.52926,0.00031
3988.60054,0.00023
3986.67182,0.00019
3984.74309,0.00030
3982.81437,0.00045
3980.88564,0.00058
3978.95692,0.00069
3977.02820,0.00075
3975.09947,0.00073
3973.17075,0.00067
3971.24203,0.00062
3969.31330,0.00055
3967.38458,0.00045
3965.45586,0.00040
3963.52713,0.00042
3961.59841,0.00047
3959.66968,0.00059
3957.74096,0.00079
3955.81224,0.00097
3953.88351,0.00109
3951.95479,0.00112
3950.02607,0.00095
3948.09734,0.00062
3946.16862,0.00042
3944.23990,0.00045
3942.31117,0.00055
3940.38245,0.00069
3938.45372,0.00086
3936.52500,0.00092
3934.59628,0.00088
3932.66755,0.00084
3930.73883,0.00086
3928.81011,0.00099
3926.88138,0.00115
3924.95266,0.00116
3923.02393,0.00100
3921.09521,0.00087
3919.16649,0.00079
3917.23776,0.00064
3915.30904,0.00050
3913.38032,0.00047
3911.45159,0.00058
3909.52287,0.00089
3907.59415,0.00147
3905.66542,0.00198
3903.73670,0.00185
3901.80797,0.00113
3899.87925,0.00042
3897.95053,0.00020
3896.02180,0.00055
3894.09308,0.00101
3892.16436,0.00098
3890.23563,0.00065
3888.30691,0.00064
3886.37819,0.00075
3884.44946,0.00070
3882.52074,0.00074
3880.59201,0.00075
3878.66329,0.00076
3876.73457,0.00103
3874.80584,0.00136
3872.87712,0.00147
3870.94840,0.00130
3869.01967,0.00103
3867.09095,0.00116
3865.16222,0.00141
3863.23350,0.00118
3861.30478,0.00077
3859.37605,0.00081
3857.44733,0.00140
3855.51861,0.00189
3853.58988,0.00132
3851.66116,0.00018
3849.73244,0.00000
3847.80371,0.00059
3845.87499,0.00120
3843.94626,0.00152
3842.01754,0.00162
3840.08882,0.00153
3838.16009,0.00111
3836.23137,0.00064
3834.30265,0.00044
3832.37392,0.00042
3830.44520,0.00050
3828.51648,0.00078
3826.58775,0.00126
3824.65903,0.00190
3822.73030,0.00225
3820.80158,0.00187
3818.87286,0.00134
3816.94413,0.00105
3815.01541,0.00066
3813.08669,0.00054
3811.15796,0.00105
3809.22924,0.00173
3807.30052,0.00201
3805.37179,0.00201
3803.44307,0.00211
3801.51434,0.00201
3799.58562,0.00178
3797.65690,0.00176
3795.72817,0.00168
3793.79945,0.00159
3791.87073,0.00176
3789.94200,0.00206
3788.01328,0.00229
3786.08455,0.00239
3784.15583,0.00247
3782.22711,0.00266
3780.29838,0.00280
3778.36966,0.00274
3776.44094,0.00281
3774.51221,0.00328
3772.58349,0.00386
3770.65477,0.00408
3768.72604,0.00391
3766.79732,0.00381
3764.86859,0.00399
3762.93987,0.00444
3761.01115,0.00495
3759.08242,0.00517
3757.15370,0.00533
3755.22498,0.00593
3753.29625,0.00667
3751.36753,0.00682
3749.43881,0.00670
3747.51008,0.00727
3745.58136,0.00804
3743.65263,0.00829
3741.72391,0.00868
3739.79519,0.00983
3737.86646,0.01124
3735.93774,0.01213
3734.00902,0.01241
3732.08029,0.01280
3730.15157,0.01366
3728.22284,0.01485
3726.29412,0.01610
3724.36540,0.01728
3722.43667,0.01848
3720.50795,0.01975
3718.57923,0.02127
3716.65050,0.02312
3714.72178,0.02518
3712.79306,0.02711
3710.86433,0.02870
3708.93561,0.03030
3707.00688,0.03223
3705.07816,0.03446
3703.14944,0.03681
3701.22071,0.03905
3699.29199,0.04116
3697.36327,0.04336
3695.43454,0.04576
3693.50582,0.04830
3691.57710,0.05097
3689.64837,0.05370
3687.71965,0.05638
3685.79092,0.05913
3683.86220,0.06211
3681.93348,0.06533
3680.00475,0.06871
3678.07603,0.07220
3676.14731,0.07583
3674.21858,0.07931
3672.28986,0.08256
3670.36113,0.08598
3668.43241,0.08963
3666.50369,0.09313
3664.57496,0.09634
3662.64624,0.09924
3660.71752,0.10202
3658.78879,0.10495
3656.86007,0.10807
3654.93135,0.11111
3653.00262,0.11398
3651.07390,0.11675
3649.14517,0.11910
3647.21645,0.12096
3645.28773,0.12286
3643.35900,0.12500
3641.43028,0.12725
3639.50156,0.12943
3637.57283,0.13150
3635.64411,0.13349
3633.71539,0.13545
3631.78666,0.13733
3629.85794,0.13894
3627.92921,0.14016
3626.00049,0.14143
3624.07177,0.14308
3622.14304,0.14489
3620.21432,0.14648
3618.28560,0.14769
3616.35687,0.14865
3614.42815,0.14955
3612.49942,0.15057
3610.57070,0.15178
3608.64198,0.15289
3606.71325,0.15380
3604.78453,0.15486
3602.85581,0.15614
3600.92708,0.15732
3598.99836,0.15839
3597.06964,0.15955
3595.14091,0.16064
3593.21219,0.16154
3591.28346,0.16251
3589.35474,0.16357
3587.42602,0.16433
3585.49729,0.16475
3583.56857,0.16527
3581.63985,0.16605
3579.71112,0.16700
3577.78240,0.16797
3575.85368,0.16870
3573.92495,0.16912
3571.99623,0.16957
3570.06750,0.17027
3568.13878,0.17094
3566.21006,0.17148
3564.28133,0.17213
3562.35261,0.17286
3560.42389,0.17351
3558.49516,0.17413
3556.56644,0.17484
3554.63771,0.17559
3552.70899,0.17618
3550.78027,0.17663
3548.85154,0.17714
3546.92282,0.17767
3544.99410,0.17813
3543.06537,0.17860
3541.13665,0.17918
3539.20793,0.17981
3537.27920,0.18038
3535.35048,0.18084
3533.42175,0.18123
3531.49303,0.18163
3529.56431,0.18207
3527.63558,0.18250
3525.70686,0.18289
3523.77814,0.18323
3521.84941,0.18362
3519.92069,0.18400
3517.99197,0.18430
3516.06324,0.18463
3514.13452,0.18509
3512.20579,0.18560
3510.27707,0.18605
3508.34835,0.18647
3506.41962,0.18691
3504.49090,0.18733
3502.56218,0.18766
3500.63345,0.18787
3498.70473,0.18796
3496.77600,0.18808
3494.84728,0.18839
3492.91856,0.18885
3490.98983,0.18927
3489.06111,0.18953
3487.13239,0.18977
3485.20366,0.19020
3483.27494,0.19067
3481.34622,0.19089
3479.41749,0.19095
3477.48877,0.19104
3475.56004,0.19118
3473.63132,0.19142
3471.70260,0.19176
3469.77387,0.19209
3467.84515,0.19242
3465.91643,0.19275
3463.98770,0.19300
3462.05898,0.19313
3460.13026,0.19322
3458.20153,0.19333
3456.27281,0.19342
3454.34408,0.19351
3452.41536,0.19371
3450.48664,0.19401
3448.55791,0.19408
3446.62919,0.19379
3444.70047,0.19364
3442.77174,0.19397
3440.84302,0.19446
3438.91429,0.19480
3436.98557,0.19486
3435.05685,0.19467
3433.12812,0.19445
3431.19940,0.19438
3429.27068,0.19449
3427.34195,0.19472
3425.41323,0.19495
3423.48451,0.19507
3421.55578,0.19498
3419.62706,0.19469
3417.69833,0.19451
3415.76961,0.19469
3413.84089,0.19509
3411.91216,0.19534
3409.98344,0.19532
3408.05472,0.19510
3406.12599,0.19483
3404.19727,0.19473
3402.26855,0.19493
3400.33982,0.19521
3398.41110,0.19519
3396.48237,0.19505
3394.55365,0.19497
3392.62493,0.19486
3390.69620,0.19477
3388.76748,0.19480
3386.83876,0.19480
3384.91003,0.19465
3382.98131,0.19454
3381.05259,0.19455
3379.12386,0.19456
3377.19514,0.19449
3375.26641,0.19432
3373.33769,0.19412
3371.40897,0.19398
3369.48024,0.19383
3367.55152,0.19359
3365.62280,0.19333
3363.69407,0.19318
3361.76535,0.19311
3359.83662,0.19308
3357.90790,0.19307
3355.97918,0.19306
3354.05045,0.19300
3352.12173,0.19285
3350.19301,0.19262
3348.26428,0.19235
3346.33556,0.19208
3344.40684,0.19180
3342.47811,0.19158
3340.54939,0.19143
3338.62066,0.19125
3336.69194,0.19093
3334.76322,0.19052
3332.83449,0.19027
3330.90577,0.19022
3328.97705,0.19001
3327.04832,0.18960
3325.11960,0.18929
3323.19088,0.18905
3321.26215,0.18873
3319.33343,0.18846
3317.40470,0.18827
3315.47598,0.18807
3313.54726,0.18784
3311.61853,0.18767
3309.68981,0.18750
3307.76109,0.18720
3305.83236,0.18695
3303.90364,0.18689
3301.97491,0.18678
3300.04619,0.18654
3298.11747,0.18629
3296.18874,0.18602
3294.26002,0.18574
3292.33130,0.18548
3290.40257,0.18527
3288.47385,0.18506
3286.54513,0.18478
3284.61640,0.18449
3282.68768,0.18427
3280.75895,0.18411
3278.83023,0.18392
3276.90151,0.18366
3274.97278,0.18334
3273.04406,0.18292
3271.11534,0.18253
3269.18661,0.18227
3267.25789,0.18207
3265.32917,0.18179
3263.40044,0.18141
3261.47172,0.18098
3259.54299,0.18065
3257.61427,0.18042
3255.68555,0.18020
3253.75682,0.17994
3251.82810,0.17969
3249.89938,0.17949
3247.97065,0.17929
3246.04193,0.17888
3244.11320,0.17835
3242.18448,0.17793
3240.25576,0.17764
3238.32703,0.17734
3236.39831,0.17697
3234.46959,0.17652
3232.54086,0.17608
3230.61214,0.17576
3228.68342,0.17557
3226.75469,0.17535
3224.82597,0.17499
3222.89724,0.17449
3220.96852,0.17399
3219.03980,0.17360
3217.11107,0.17325
3215.18235,0.17281
3213.25363,0.17233
3211.32490,0.17189
3209.39618,0.17142
3207.46746,0.17094
3205.53873,0.17047
3203.61001,0.16996
3201.68128,0.16946
3199.75256,0.16894
3197.82384,0.16835
3195.89511,0.16781
3193.96639,0.16738
3192.03767,0.16701
3190.10894,0.16656
3188.18022,0.16601
3186.25149,0.16543
3184.32277,0.16488
3182.39405,0.16437
3180.46532,0.16388
3178.53660,0.16330
3176.60788,0.16269
3174.67915,0.16213
3172.75043,0.16160
3170.82171,0.16098
3168.89298,0.16033
3166.96426,0.15979
3165.03553,0.15926
3163.10681,0.15861
3161.17809,0.15794
3159.24936,0.15733
3157.32064,0.15679
3155.39192,0.15630
3153.46319,0.15579
3151.53447,0.15520
3149.60575,0.15456
3147.67702,0.15390
3145.74830,0.15327
3143.81957,0.15268
3141.89085,0.15212
3139.96213,0.15157
3138.03340,0.15106
3136.10468,0.15053
3134.17596,0.14991
3132.24723,0.14919
3130.31851,0.14850
3128.38978,0.14793
3126.46106,0.14742
3124.53234,0.14688
3122.60361,0.14630
3120.67489,0.14571
3118.74617,0.14511
3116.81744,0.14448
3114.88872,0.14379
3112.96000,0.14316
3111.03127,0.14264
3109.10255,0.14214
3107.17382,0.14154
3105.24510,0.14081
3103.31638,0.14002
3101.38765,0.13926
3099.45893,0.13859
3097.53021,0.13792
3095.60148,0.13723
3093.67276,0.13658
3091.74404,0.13595
3089.81531,0.13532
3087.88659,0.13469
3085.95786,0.13408
3084.02914,0.13337
3082.10042,0.13261
3080.17169,0.13187
3078.24297,0.13119
3076.31425,0.13048
3074.38552,0.12957
3072.45680,0.12862
3070.52807,0.12789
3068.59935,0.12728
3066.67063,0.12661
3064.74190,0.12597
3062.81318,0.12541
3060.88446,0.12481
3058.95573,0.12404
3057.02701,0.12322
3055.09829,0.12249
3053.16956,0.12185
3051.24084,0.12120
3049.31211,0.12052
3047.38339,0.11984
3045.45467,0.11919
3043.52594,0.11859
3041.59722,0.11799
3039.66850,0.11727
3037.73977,0.11650
3035.81105,0.11591
3033.88233,0.11544
3031.95360,0.11482
3030.02488,0.11409
3028.09615,0.11338
3026.16743,0.11265
3024.23871,0.11196
3022.30998,0.11139
3020.38126,0.11089
3018.45254,0.11041
3016.52381,0.10993
3014.59509,0.10935
3012.66636,0.10866
3010.73764,0.10802
3008.80892,0.10748
3006.88019,0.10694
3004.95147,0.10633
3003.02275,0.10570
3001.09402,0.10511
2999.16530,0.10462
2997.23658,0.10421
2995.30785,0.10385
2993.37913,0.10345
2991.45040,0.10300
2989.52168,0.10257
2987.59296,0.10218
2985.66423,0.10182
2983.73551,0.10145
2981.80679,0.10103
2979.87806,0.10060
2977.94934,0.10032
2976.02062,0.10017
2974.09189,0.09994
2972.16317,0.09957
2970.23444,0.09918
2968.30572,0.09885
2966.37700,0.09870
2964.44827,0.09867
2962.51955,0.09851
2960.59083,0.09825
2958.66210,0.09802
2956.73338,0.09776
2954.80466,0.09743
2952.87593,0.09710
2950.94721,0.09683
2949.01848,0.09668
2947.08976,0.09659
2945.16104,0.09654
2943.23231,0.09653
2941.30359,0.09650
2939.37487,0.09649
2937.44614,0.09657
2935.51742,0.09670
2933.58869,0.09672
2931.65997,0.09663
2929.73125,0.09652
2927.80252,0.09627
2925.87380,0.09566
2923.94508,0.09472
2922.01635,0.09358
2920.08763,0.09225
2918.15891,0.09079
2916.23018,0.08940
2914.30146,0.08827
2912.37273,0.08735
2910.44401,0.08656
2908.51529,0.08582
2906.58656,0.08506
2904.65784,0.08425
2902.72912,0.08340
2900.80039,0.08259
2898.87167,0.08190
2896.94295,0.08125
2895.01422,0.08055
2893.08550,0.07981
2891.15677,0.07900
2889.22805,0.07813
2887.29933,0.07736
2885.37060,0.07680
2883.44188,0.07631
2881.51316,0.07576
2879.58443,0.07517
2877.65571,0.07466
2875.72698,0.07427
2873.79826,0.07393
2871.86954,0.07350
2869.94081,0.07293
2868.01209,0.07233
2866.08337,0.07183
2864.15464,0.07141
2862.22592,0.07108
2860.29720,0.07091
2858.36847,0.07087
2856.43975,0.07073
2854.51102,0.07027
2852.58230,0.06942
2850.65358,0.06825
2848.72485,0.06696
2846.79613,0.06577
2844.86741,0.06470
2842.93868,0.06369
2841.00996,0.06272
2839.08124,0.06180
2837.15251,0.06087
2835.22379,0.05991
2833.29506,0.05904
2831.36634,0.05834
2829.43762,0.05764
2827.50889,0.05694
2825.58017,0.05634
2823.65145,0.05575
2821.72272,0.05515
2819.79400,0.05460
2817.86527,0.05406
2815.93655,0.05348
2814.00783,0.05289
2812.07910,0.05229
2810.15038,0.05165
2808.22166,0.05107
2806.29293,0.05063
2804.36421,0.05024
2802.43549,0.04973
2800.50676,0.04916
2798.57804,0.04866
2796.64931,0.04820
2794.72059,0.04778
2792.79187,0.04744
2790.86314,0.04707
2788.93442,0.04659
2787.00570,0.04600
2785.07697,0.04536
2783.14825,0.04481
2781.21953,0.04442
2779.29080,0.04408
2777.36208,0.04369
2775.43335,0.04327
2773.50463,0.04285
2771.57591,0.04242
2769.64718,0.04197
2767.71846,0.04147
2765.78974,0.04094
2763.86101,0.04045
2761.93229,0.04003
2760.00356,0.03968
2758.07484,0.03934
2756.14612,0.03891
2754.21739,0.03843
2752.28867,0.03802
2750.35995,0.03775
2748.43122,0.03750
2746.50250,0.03712
2744.57378,0.03662
2742.64505,0.03614
2740.71633,0.03574
2738.78760,0.03534
2736.85888,0.03486
2734.93016,0.03437
2733.00143,0.03401
2731.07271,0.03369
2729.14399,0.03335
2727.21526,0.03303
2725.28654,0.03277
2723.35782,0.03246
2721.42909,0.03204
2719.50037,0.03154
2717.57164,0.03108
2715.64292,0.03072
2713.71420,0.03042
2711.78547,0.03009
2709.85675,0.02973
2707.92803,0.02933
2705.99930,0.02897
2704.07058,0.02861
2702.14185,0.02825
2700.21313,0.02795
2698.28441,0.02769
2696.35568,0.02733
2694.42696,0.02691
2692.49824,0.02655
2690.56951,0.02624
2688.64079,0.02590
2686.71207,0.02557
2684.78334,0.02529
2682.85462,0.02506
2680.92589,0.02483
2678.99717,0.02457
2677.06845,0.02425
2675.13972,0.02389
2673.21100,0.02355
2671.28228,0.02324
2669.35355,0.02293
2667.42483,0.02257
2665.49611,0.02220
2663.56738,0.02192
2661.63866,0.02170
2659.70993,0.02140
2657.78121,0.02108
2655.85249,0.02078
2653.92376,0.02050
2651.99504,0.02024
2650.06632,0.01995
2648.13759,0.01965
2646.20887,0.01939
2644.28014,0.01915
2642.35142,0.01890
2640.42270,0.01863
2638.49397,0.01835
2636.56525,0.01811
2634.63653,0.01789
2632.70780,0.01766
2630.77908,0.01737
2628.85036,0.01706
2626.92163,0.01674
2624.99291,0.01642
2623.06418,0.01613
2621.13546,0.01590
2619.20674,0.01570
2617.27801,0.01547
2615.34929,0.01519
2613.42057,0.01492
2611.49184,0.01469
2609.56312,0.01450
2607.63440,0.01433
2605.70567,0.01412
2603.77695,0.01387
2601.84822,0.01363
2599.91950,0.01340
2597.99078,0.01321
2596.06205,0.01303
2594.13333,0.01282
2592.20461,0.01261
2590.27588,0.01239
2588.34716,0.01212
2586.41843,0.01184
2584.48971,0.01164
2582.56099,0.01147
2580.63226,0.01127
2578.70354,0.01107
2576.77482,0.01092
2574.84609,0.01082
2572.91737,0.01071
2570.98865,0.01051
2569.05992,0.01025
2567.13120,0.01003
2565.20247,0.00987
2563.27375,0.00972
2561.34503,0.00961
2559.41630,0.00954
2557.48758,0.00941
2555.55886,0.00919
2553.63013,0.00893
2551.70141,0.00870
2549.77269,0.00859
2547.84396,0.00854
2545.91524,0.00843
2543.98651,0.00829
2542.05779,0.00818
2540.12907,0.00805
2538.20034,0.00787
2536.27162,0.00769
2534.34290,0.00756
2532.41417,0.00745
2530.48545,0.00729
2528.55673,0.00713
2526.62800,0.00700
2524.69928,0.00688
2522.77055,0.00676
2520.84183,0.00665
2518.91311,0.00655
2516.98438,0.00643
2515.05566,0.00628
2513.12694,0.00619
2511.19821,0.00614
2509.26949,0.00603
2507.34076,0.00584
2505.41204,0.00566
2503.48332,0.00553
2501.55459,0.00539
2499.62587,0.00526
2497.69715,0.00515
2495.76842,0.00509
2493.83970,0.00506
2491.91098,0.00497
2489.98225,0.00486
2488.05353,0.00477
2486.12480,0.00467
2484.19608,0.00457
2482.26736,0.00447
2480.33863,0.00429
2478.40991,0.00408
2476.48119,0.00395
2474.55246,0.00390
2472.62374,0.00389
2470.69502,0.00384
2468.76629,0.00369
2466.83757,0.00351
2464.90884,0.00343
2462.98012,0.00344
2461.05140,0.00344
2459.12267,0.00337
2457.19395,0.00326
2455.26523,0.00315
2453.33650,0.00303
2451.40778,0.00289
2449.47905,0.00278
2447.55033,0.00271
2445.62161,0.00261
2443.69288,0.00250
2441.76416,0.00244
2439.83544,0.00241
2437.90671,0.00232
2435.97799,0.00218
2434.04927,0.00206
2432.12054,0.00197
2430.19182,0.00190
2428.26309,0.00186
2426.33437,0.00180
2424.40565,0.00170
2422.47692,0.00160
2420.54820,0.00152
2418.61948,0.00141
2416.69075,0.00135
2414.76203,0.00136
2412.83331,0.00133
2410.90458,0.00124
2408.97586,0.00120
2407.04713,0.00114
2405.11841,0.00107
2403.18969,0.00109
2401.26096,0.00108
2399.33224,0.00095
2397.40352,0.00079
2395.47479,0.00069
2393.54607,0.00065
2391.61734,0.00064
2389.68862,0.00061
2387.75990,0.00059
2385.83117,0.00058
2383.90245,0.00063
2381.97373,0.00072
2380.04500,0.00082
2378.11628,0.00095
2376.18756,0.00110
2374.25883,0.00118
2372.33011,0.00119
2370.40138,0.00122
2368.47266,0.00130
2366.54394,0.00131
2364.61521,0.00119
2362.68649,0.00107
2360.75777,0.00101
2358.82904,0.00091
2356.90032,0.00070
2354.97160,0.00047
2353.04287,0.00032
2351.11415,0.00028
2349.18542,0.00043
2347.25670,0.00075
2345.32798,0.00105
2343.39925,0.00111
2341.47053,0.00099
2339.54181,0.00086
2337.61308,0.00078
2335.68436,0.00069
2333.75563,0.00056
2331.82691,0.00042
2329.89819,0.00033
2327.96946,0.00034
2326.04074,0.00040
2324.11202,0.00041
2322.18329,0.00032
2320.25457,0.00016
2318.32585,0.00003
2316.39712,0.00000
2314.46840,0.00001
2312.53967,0.00002
2310.61095,0.00004
2308.68223,0.00005
2306.75350,0.00003
2304.82478,-0.00001
2302.89606,-0.00008
2300.96733,-0.00015
2299.03861,-0.00018
2297.10989,-0.00018
2295.18116,-0.00019
2293.25244,-0.00019
2291.32371,-0.00017
2289.39499,-0.00016
2287.46627,-0.00022
2285.53754,-0.00031
2283.60882,-0.00034
2281.68010,-0.00028
2279.75137,-0.00020
2277.82265,-0.00014
2275.89392,-0.00011
2273.96520,-0.00009
2272.03648,-0.00009
2270.10775,-0.00012
2268.17903,-0.00013
2266.25031,-0.00009
2264.32158,-0.00003
2262.39286,0.00000
2260.46414,-0.00006
2258.53541,-0.00013
2256.60669,-0.00018
2254.67796,-0.00019
2252.74924,-0.00016
2250.82052,-0.00011
2248.89179,-0.00012
2246.96307,-0.00017
2245.03435,-0.00019
2243.10562,-0.00022
2241.17690,-0.00027
2239.24818,-0.00029
2237.31945,-0.00028
2235.39073,-0.00026
2233.46200,-0.00026
2231.53328,-0.00029
2229.60456,-0.00027
2227.67583,-0.00023
2225.74711,-0.00020
2223.81839,-0.00019
2221.88966,-0.00023
2219.96094,-0.00034
2218.03221,-0.00040
2216.10349,-0.00033
2214.17477,-0.00021
2212.24604,-0.00014
2210.31732,-0.00011
2208.38860,-0.00005
2206.45987,0.00000
2204.53115,-0.00001
2202.60243,-0.00009
2200.67370,-0.00015
2198.74498,-0.00016
2196.81625,-0.00013
2194.88753,-0.00010
2192.95881,-0.00007
2191.03008,-0.00008
2189.10136,-0.00011
2187.17264,-0.00017
2185.24391,-0.00018
2183.31519,-0.00009
2181.38647,0.00000
2179.45774,-0.00003
2177.52902,-0.00008
2175.60029,-0.00008
2173.67157,-0.00006
2171.74285,-0.00008
2169.81412,-0.00010
2167.88540,-0.00009
2165.95668,-0.00006
2164.02795,-0.00004
2162.09923,-0.00002
2160.17050,0.00004
2158.24178,0.00013
2156.31306,0.00020
2154.38433,0.00020
2152.45561,0.00014
2150.52689,0.00011
2148.59816,0.00013
2146.66944,0.00015
2144.74072,0.00018
2142.81199,0.00025
2140.88327,0.00027
2138.95454,0.00022
2137.02582,0.00015
2135.09710,0.00010
2133.16837,0.00005
2131.23965,0.00003
2129.31093,0.00009
2127.38220,0.00018
2125.45348,0.00018
2123.52476,0.00012
2121.59603,0.00005
2119.66731,-0.00002
2117.73858,-0.00009
2115.80986,-0.00012
2113.88114,-0.00013
2111.95241,-0.00015
2110.02369,-0.00018
2108.09497,-0.00017
2106.16624,-0.00011
2104.23752,-0.00009
2102.30880,-0.00009
2100.38007,-0.00005
2098.45135,0.00002
2096.52262,0.00005
2094.59390,0.00000
2092.66518,-0.00017
2090.73645,-0.00033
2088.80773,-0.00048
2086.87901,-0.00056
2084.95028,-0.00058
2083.02156,-0.00063
2081.09283,-0.00078
2079.16411,-0.00094
2077.23539,-0.00102
2075.30666,-0.00100
2073.37794,-0.00095
2071.44922,-0.00094
2069.52049,-0.00098
2067.59177,-0.00099
2065.66305,-0.00098
2063.73432,-0.00099
2061.80560,-0.00101
2059.87687,-0.00102
2057.94815,-0.00100
2056.01943,-0.00092
2054.09070,-0.00081
2052.16198,-0.00070
2050.23326,-0.00065
2048.30453,-0.00061
2046.37581,-0.00053
2044.44709,-0.00037
2042.51836,-0.00021
2040.58964,-0.00011
2038.66091,0.00000
2036.73219,0.00010
2034.80347,0.00026
2032.87474,0.00048
2030.94602,0.00070
2029.01730,0.00084
2027.08857,0.00095
2025.15985,0.00110
2023.23112,0.00128
2021.30240,0.00148
2019.37368,0.00169
2017.44495,0.00188
2015.51623,0.00200
2013.58751,0.00215
2011.65878,0.00239
2009.73006,0.00263
2007.80134,0.00280
2005.87261,0.00298
2003.94389,0.00318
2002.01516,0.00338
2000.08644,0.00355
1998.15772,0.00369
1996.22899,0.00381
1994.30027,0.00394
1992.37155,0.00402
1990.44282,0.00406
1988.51410,0.00422
1986.58538,0.00446
1984.65665,0.00463
1982.72793,0.00468
1980.79920,0.00473
1978.87048,0.00489
1976.94176,0.00506
1975.01303,0.00513
1973.08431,0.00514
1971.15559,0.00517
1969.22686,0.00528
1967.29814,0.00537
1965.36941,0.00541
1963.44069,0.00541
1961.51197,0.00540
1959.58324,0.00539
1957.65452,0.00536
1955.72580,0.00533
1953.79707,0.00529
1951.86835,0.00527
1949.93963,0.00532
1948.01090,0.00545
1946.08218,0.00557
1944.15345,0.00555
1942.22473,0.00544
1940.29601,0.00537
1938.36728,0.00539
1936.43856,0.00542
1934.50984,0.00540
1932.58111,0.00542
1930.65239,0.00549
1928.72367,0.00561
1926.79494,0.00569
1924.86622,0.00569
1922.93749,0.00566
1921.00877,0.00568
1919.08005,0.00575
1917.15132,0.00583
1915.22260,0.00596
1913.29388,0.00616
1911.36515,0.00639
1909.43643,0.00661
1907.50770,0.00678
1905.57898,0.00692
1903.65026,0.00707
1901.72153,0.00727
1899.79281,0.00752
1897.86409,0.00779
1895.93536,0.00807
1894.00664,0.00840
1892.07792,0.00872
1890.14919,0.00891
1888.22047,0.00899
1886.29174,0.00910
1884.36302,0.00927
1882.43430,0.00941
1880.50557,0.00952
1878.57685,0.00959
1876.64813,0.00962
1874.71940,0.00967
1872.79068,0.00979
1870.86196,0.00985
1868.93323,0.00973
1867.00451,0.00949
1865.07578,0.00935
1863.14706,0.00930
1861.21834,0.00923
1859.28961,0.00911
1857.36089,0.00895
1855.43217,0.00873
1853.50344,0.00851
1851.57472,0.00834
1849.64599,0.00819
1847.71727,0.00804
1845.78855,0.00779
1843.85982,0.00739
1841.93110,0.00709
1840.00238,0.00704
1838.07365,0.00705
1836.14493,0.00699
1834.21621,0.00691
1832.28748,0.00684
1830.35876,0.00666
1828.43003,0.00636
1826.50131,0.00610
1824.57259,0.00595
1822.64386,0.00588
1820.71514,0.00587
1818.78642,0.00583
1816.85769,0.00573
1814.92897,0.00564
1813.00025,0.00556
1811.07152,0.00545
1809.14280,0.00536
1807.21407,0.00537
1805.28535,0.00547
1803.35663,0.00554
1801.42790,0.00555
1799.49918,0.00558
1797.57046,0.00572
1795.64173,0.00595
1793.71301,0.00615
1791.78428,0.00618
1789.85556,0.00618
1787.92684,0.00634
1785.99811,0.00662
1784.06939,0.00691
1782.14067,0.00715
1780.21194,0.00731
1778.28322,0.00748
1776.35450,0.00779
1774.42577,0.00816
1772.49705,0.00838
1770.56832,0.00844
1768.63960,0.00857
1766.71088,0.00886
1764.78215,0.00924
1762.85343,0.00957
1760.92471,0.00978
1758.99598,0.00998
1757.06726,0.01026
1755.13854,0.01066
1753.20981,0.01110
1751.28109,0.01148
1749.35236,0.01177
1747.42364,0.01207
1745.49492,0.01241
1743.56619,0.01278
1741.63747,0.01317
1739.70875,0.01370
1737.78002,0.01447
1735.85130,0.01539
1733.92257,0.01620
1731.99385,0.01685
1730.06513,0.01759
1728.13640,0.01848
1726.20768,0.01935
1724.27896,0.02020
1722.35023,0.02113
1720.42151,0.02217
1718.49279,0.02309
1716.56406,0.02377
1714.63534,0.02455
1712.70661,0.02556
1710.77789,0.02668
1708.84917,0.02785
1706.92044,0.02906
1704.99172,0.03027
1703.06300,0.03154
1701.13427,0.03309
1699.20555,0.03487
1697.27683,0.03665
1695.34810,0.03849
1693.41938,0.04028
1691.49065,0.04202
1689.56193,0.04384
1687.63321,0.04575
1685.70448,0.04786
1683.77576,0.05022
1681.84704,0.05240
1679.91831,0.05427
1677.98959,0.05610
1676.06087,0.05807
1674.13214,0.06008
1672.20342,0.06200
1670.27469,0.06395
1668.34597,0.06594
1666.41725,0.06772
1664.48852,0.06936
1662.55980,0.07098
1660.63108,0.07247
1658.70235,0.07381
1656.77363,0.07512
1654.84490,0.07648
1652.91618,0.07784
1650.98746,0.07898
1649.05873,0.07998
1647.13001,0.08101
1645.20129,0.08200
1643.27256,0.08289
1641.34384,0.08375
1639.41512,0.08458
1637.48639,0.08521
1635.55767,0.08541
1633.62894,0.08535
1631.70022,0.08536
1629.77150,0.08529
1627.84277,0.08489
1625.91405,0.08405
1623.98533,0.08270
1622.05660,0.08113
1620.12788,0.07979
1618.19916,0.07820
1616.27043,0.07583
1614.34171,0.07350
1612.41298,0.07171
1610.48426,0.06993
1608.55554,0.06787
1606.62681,0.06579
1604.69809,0.06383
1602.76937,0.06196
1600.84064,0.06021
1598.91192,0.05867
1596.98319,0.05722
1595.05447,0.05577
1593.12575,0.05428
1591.19702,0.05279
1589.26830,0.05131
1587.33958,0.04990
1585.41085,0.04854
1583.48213,0.04716
1581.55341,0.04583
1579.62468,0.04469
1577.69596,0.04347
1575.76723,0.04206
1573.83851,0.04102
1571.90979,0.04045
1569.98106,0.03977
1568.05234,0.03887
1566.12362,0.03818
1564.19489,0.03788
1562.26617,0.03786
1560.33745,0.03747
1558.40872,0.03598
1556.48000,0.03449
1554.55127,0.03378
1552.62255,0.03328
1550.69383,0.03255
1548.76510,0.03167
1546.83638,0.03088
1544.90766,0.03009
1542.97893,0.02897
1541.05021,0.02734
1539.12148,0.02567
1537.19276,0.02487
1535.26404,0.02463
1533.33531,0.02419
1531.40659,0.02349
1529.47787,0.02281
1527.54914,0.02196
1525.62042,0.02089
1523.69170,0.01973
1521.76297,0.01830
1519.83425,0.01676
1517.90552,0.01554
1515.97680,0.01448
1514.04808,0.01349
1512.11935,0.01269
1510.19063,0.01193
1508.26191,0.01053
1506.33318,0.00828
1504.40446,0.00666
1502.47574,0.00599
1500.54701,0.00548
1498.61829,0.00456
1496.68956,0.00329
1494.76084,0.00226
1492.83212,0.00177
1490.90339,0.00144
1488.97467,0.00085
1487.04595,0.00024
1485.11722,0.00000
1483.18850,0.00001
1481.25977,0.00011
1479.33105,0.00028
1477.40233,0.00059
1475.47360,0.00106
1473.54488,0.00173
1471.61616,0.00269
1469.68743,0.00379
1467.75871,0.00481
1465.82999,0.00567
1463.90126,0.00632
1461.97254,0.00690
1460.04381,0.00757
1458.11509,0.00807
1456.18637,0.00809
1454.25764,0.00801
1452.32892,0.00816
1450.40020,0.00846
1448.47147,0.00871
1446.54275,0.00886
1444.61403,0.00897
1442.68530,0.00911
1440.75658,0.00930
1438.82785,0.00948
1436.89913,0.00962
1434.97041,0.00982
1433.04168,0.01015
1431.11296,0.01058
1429.18424,0.01098
1427.25551,0.01136
1425.32679,0.01172
1423.39806,0.01207
1421.46934,0.01243
1419.54062,0.01278
1417.61189,0.01311
1415.68317,0.01353
1413.75445,0.01412
1411.82572,0.01479
1409.89700,0.01543
1407.96828,0.01600
1406.03955,0.01643
1404.11083,0.01667
1402.18210,0.01669
1400.25338,0.01638
1398.32466,0.01567
1396.39593,0.01461
1394.46721,0.01341
1392.53849,0.01233
1390.60976,0.01146
1388.68104,0.01058
1386.75232,0.00962
1384.82359,0.00883
1382.89487,0.00827
1380.96614,0.00773
1379.03742,0.00710
1377.10870,0.00644
1375.17997,0.00574
1373.25125,0.00495
1371.32253,0.00418
1369.39380,0.00357
1367.46508,0.00313
1365.53635,0.00280
1363.60763,0.00237
1361.67891,0.00177
1359.75018,0.00125
1357.82146,0.00091
1355.89274,0.00058
1353.96401,0.00022
1352.03529,-0.00001
1350.10657,-0.00011
1348.17784,-0.00024
1346.24912,-0.00042
1344.32039,-0.00056
1342.39167,-0.00066
1340.46295,-0.00070
1338.53422,-0.00070
1336.60550,-0.00067
1334.67678,-0.00064
1332.74805,-0.00060
1330.81933,-0.00052
1328.89061,-0.00039
1326.96188,-0.00022
1325.03316,-0.00001
1323.10443,0.00020
1321.17571,0.00039
1319.24699,0.00065
1317.31826,0.00097
1315.38954,0.00129
1313.46082,0.00161
1311.53209,0.00204
1309.60337,0.00257
1307.67464,0.00308
1305.74592,0.00358
1303.81720,0.00415
1301.88847,0.00481
1299.95975,0.00553
1298.03103,0.00636
1296.10230,0.00732
1294.17358,0.00839
1292.24486,0.00950
1290.31613,0.01068
1288.38741,0.01203
1286.45868,0.01358
1284.52996,0.01527
1282.60124,0.01703
1280.67251,0.01890
1278.74379,0.02096
1276.81507,0.02323
1274.88634,0.02576
1272.95762,0.02854
1271.02890,0.03152
1269.10017,0.03470
1267.17145,0.03820
1265.24272,0.04208
1263.31400,0.04637
1261.38528,0.05116
1259.45655,0.05649
1257.52783,0.06234
1255.59911,0.06860
1253.67038,0.07501
1251.74166,0.08138
1249.81294,0.08769
1247.88421,0.09396
1245.95549,0.10005
1244.02676,0.10580
1242.09804,0.11123
1240.16932,0.11634
1238.24059,0.12110
1236.31187,0.12560
1234.38315,0.12993
1232.45442,0.13404
1230.52570,0.13794
1228.59697,0.14168
1226.66825,0.14513
1224.73953,0.14818
1222.81080,0.15097
1220.88208,0.15386
1218.95336,0.15672
1217.02463,0.15925
1215.09591,0.16163
1213.16719,0.16411
1211.23846,0.16656
1209.30974,0.16886
1207.38101,0.17106
1205.45229,0.17319
1203.52357,0.17525
1201.59484,0.17744
1199.66612,0.17974
1197.73740,0.18174
1195.80867,0.18336
1193.87995,0.18492
1191.95123,0.18660
1190.02250,0.18839
1188.09378,0.19033
1186.16505,0.19219
1184.23633,0.19383
1182.30761,0.19535
1180.37888,0.19675
1178.45016,0.19809
1176.52144,0.19966
1174.59271,0.20149
1172.66399,0.20321
1170.73526,0.20464
1168.80654,0.20590
1166.87782,0.20720
1164.94909,0.20868
1163.02037,0.21024
1161.09165,0.21168
1159.16292,0.21286
1157.23420,0.21394
1155.30548,0.21516
1153.37675,0.21641
1151.44803,0.21758
1149.51930,0.21873
1147.59058,0.21991
1145.66186,0.22120
1143.73313,0.22265
1141.80441,0.22427
1139.87569,0.22603
1137.94696,0.22745
1136.01824,0.22821
1134.08952,0.22869
1132.16079,0.22938
1130.23207,0.23042
1128.30334,0.23164
1126.37462,0.23294
1124.44590,0.23436
1122.51717,0.23613
1120.58845,0.23832
1118.65973,0.24057
1116.73100,0.24271
1114.80228,0.24513
1112.87355,0.24817
1110.94483,0.25160
1109.01611,0.25504
1107.08738,0.25856
1105.15866,0.26203
1103.22994,0.26511
1101.30121,0.26794
1099.37249,0.27057
1097.44377,0.27269
1095.51504,0.27417
1093.58632,0.27511
1091.65759,0.27559
1089.72887,0.27588
1087.80015,0.27613
1085.87142,0.27640
1083.94270,0.27645
1082.01398,0.27593
1080.08525,0.27510
1078.15653,0.27427
1076.22781,0.27336
1074.29908,0.27217
1072.37036,0.27069
1070.44163,0.26912
1068.51291,0.26740
1066.58419,0.26526
1064.65546,0.26297
1062.72674,0.26092
1060.79802,0.25896
1058.86929,0.25687
1056.94057,0.25448
1055.01184,0.25165
1053.08312,0.24869
1051.15440,0.24578
1049.22567,0.24288
1047.29695,0.23985
1045.36823,0.23657
1043.43950,0.23311
1041.51078,0.22970
1039.58206,0.22647
1037.65333,0.22334
1035.72461,0.22032
1033.79588,0.21728
1031.86716,0.21405
1029.93844,0.21097
1028.00971,0.20823
1026.08099,0.20556
1024.15227,0.20288
1022.22354,0.20034
1020.29482,0.19801
1018.36610,0.19576
1016.43737,0.19355
1014.50865,0.19149
1012.57992,0.18957
1010.65120,0.18770
1008.72248,0.18601
1006.79375,0.18459
1004.86503,0.18302
1002.93631,0.18111
1001.00758,0.17944
999.07886,0.17846
997.15013,0.17769
995.22141,0.17654
993.29269,0.17509
991.36396,0.17379
989.43524,0.17272
987.50652,0.17170
985.57779,0.17066
983.64907,0.16973
981.72035,0.16897
979.79162,0.16835
977.86290,0.16779
975.93417,0.16717
974.00545,0.16649
972.07673,0.16584
970.14800,0.16519
968.21928,0.16451
966.29056,0.16384
964.36183,0.16319
962.43311,0.16252
960.50439,0.16180
958.57566,0.16094
956.64694,0.15991
954.71821,0.15890
952.78949,0.15810
950.86077,0.15734
948.93204,0.15636
947.00332,0.15515
945.07460,0.15388
943.14587,0.15252
941.21715,0.15092
939.28842,0.14913
937.35970,0.14726
935.43098,0.14544
933.50225,0.14379
931.57353,0.14229
929.64481,0.14055
927.71608,0.13833
925.78736,0.13596
923.85864,0.13375
921.92991,0.13174
920.00119,0.12987
918.07246,0.12779
916.14374,0.12533
914.21502,0.12280
912.28629,0.12047
910.35757,0.11825
908.42885,0.11597
906.50012,0.11358
904.57140,0.11106
902.64268,0.10835
900.71395,0.10544
898.78523,0.10243
896.85650,0.09970
894.92778,0.09741
892.99906,0.09516
891.07033,0.09272
889.14161,0.09032
887.21289,0.08789
885.28416,0.08491
883.35544,0.08183
881.42671,0.07944
879.49799,0.07741
877.56927,0.07528
875.64054,0.07317
873.71182,0.07105
871.78310,0.06886
869.85437,0.06678
867.92565,0.06492
865.99693,0.06308
864.06820,0.06115
862.13948,0.05923
860.21075,0.05734
858.28203,0.05542
856.35331,0.05362
854.42458,0.05230
852.49586,0.05152
850.56714,0.05088
848.63841,0.05016
846.70969,0.04959
844.78097,0.04955
842.85224,0.05009
840.92352,0.05078
838.99479,0.05142
837.06607,0.05263
835.13735,0.05464
833.20862,0.05674
831.27990,0.05857
829.35118,0.06046
827.42245,0.06256
825.49373,0.06465
823.56501,0.06662
821.63628,0.06853
819.70756,0.07026
817.77883,0.07166
815.85011,0.07294
813.92139,0.07464
811.99266,0.07687
810.06394,0.07907
808.13522,0.08082
806.20649,0.08235
804.27777,0.08384
802.34904,0.08494
800.42032,0.08572
798.49160,0.08663
796.56287,0.08738
794.63415,0.08751
792.70543,0.08741
790.77670,0.08748
788.84798,0.08733
786.91926,0.08648
784.99053,0.08532
783.06181,0.08431
781.13308,0.08324
779.20436,0.08202
777.27564,0.08086
775.34691,0.07981
773.41819,0.07865
771.48947,0.07718
769.56074,0.07583
767.63202,0.07490
765.70330,0.07427
763.77457,0.07395
761.84585,0.07384
759.91712,0.07358
757.98840,0.07283
756.05968,0.07187
754.13095,0.07134
752.20223,0.07114
750.27351,0.07075
748.34478,0.07043
746.41606,0.07050
744.48733,0.07046
742.55861,0.07000
740.62989,0.06954
738.70116,0.06936
736.77244,0.06930
734.84372,0.06917
732.91499,0.06893
730.98627,0.06866
729.05755,0.06864
727.12882,0.06882
725.20010,0.06887
723.27137,0.06876
721.34265,0.06865
719.41393,0.06842
717.48520,0.06792
715.55648,0.06743
713.62776,0.06739
711.69903,0.06769
709.77031,0.06790
707.84159,0.06782
705.91286,0.06744
703.98414,0.06708
702.05541,0.06700
700.12669,0.06691
698.19797,0.06653
696.26924,0.06625
694.34052,0.06634
692.41180,0.06652
690.48307,0.06645
688.55435,0.06605
686.62562,0.06550
684.69690,0.06508
682.76818,0.06472
680.83945,0.06406
678.91073,0.06349
676.98201,0.06355
675.05328,0.06377
673.12456,0.06352
671.19584,0.06293
669.26711,0.06253
667.33839,0.06258
665.40966,0.06274
663.48094,0.06263
661.55222,0.06215
659.62349,0.06152
657.69477,0.06112
655.76605,0.06106
653.83732,0.06114
651.90860,0.06127
649.97988,0.06159
648.05115,0.06204
646.12243,0.06249
644.19370,0.06307
642.26498,0.06407
640.33626,0.06550
638.40753,0.06705
636.47881,0.06821
634.55009,0.06868
632.62136,0.06877
630.69264,0.06906
628.76391,0.06979
626.83519,0.07084
624.90647,0.07178
622.97774,0.07227
621.04902,0.07229
619.12030,0.07228
617.19157,0.07279
615.26285,0.07346
613.33413,0.07378
611.40540,0.07392
609.47668,0.07400
607.54795,0.07433
605.61923,0.07507
603.69051,0.07597
601.76178,0.07694
599.83306,0.07763
597.90434,0.07775
595.97561,0.07821
594.04689,0.07968
592.11817,0.08121
590.18944,0.08192
588.26072,0.08244
586.33199,0.08340
584.40327,0.08421
582.47455,0.08423
580.54582,0.08404
578.61710,0.08435
576.68838,0.08466
574.75965,0.08450
572.83093,0.08440
570.90220,0.08463
568.97348,0.08499
567.04476,0.08511
565.11603,0.08461
563.18731,0.08392
561.25859,0.08353
559.32986,0.08331
557.40114,0.08348
555.47242,0.08403
553.54369,0.08427
551.61497,0.08427
549.68624,0.08446
547.75752,0.08440
545.82880,0.08399
543.90007,0.08388
541.97135,0.08421
540.04263,0.08453
538.11390,0.08477
536.18518,0.08497
534.25646,0.08482
532.32773,0.08364
530.39901,0.08147
528.47028,0.07988
526.54156,0.07990
524.61284,0.08071
522.68411,0.08147
520.75539,0.08204
518.82667,0.08243
516.89794,0.08314
514.96922,0.08456
513.04049,0.08602
511.11177,0.08729
509.18305,0.08884
507.25432,0.09062
505.32560,0.09241
503.39688,0.09448
501.46815,0.09717
499.53943,0.10012
497.61071,0.10293
495.68198,0.10565
493.75326,0.10916
491.82453,0.11390
489.89581,0.11817
487.96709,0.12122
486.03836,0.12518
484.10964,0.13051
482.18092,0.13426
480.25219,0.13558
478.32347,0.13770
476.39475,0.14204
474.46602,0.14629
472.53730,0.14911
470.60857,0.15152
468.67985,0.15429
466.75113,0.15690
464.82240,0.15863
462.89368,0.15878
460.96496,0.15692
459.03623,0.15391
457.10751,0.15159
455.17878,0.15041
453.25006,0.14840
451.32134,0.14406
449.39261,0.13786
447.46389,0.13136
445.53517,0.12634
443.60644,0.12357
441.67772,0.12249
439.74900,0.12261
437.82027,0.12347
435.89155,0.12299
433.96282,0.11867
432.03410,0.11173
430.10538,0.10625
428.17665,0.10342
426.24793,0.10051
424.31921,0.09606
422.39048,0.09057
420.46176,0.08491
418.53304,0.08356
416.60431,0.08822
414.67559,0.09137
412.74686,0.08880
410.81814,0.08347
408.88942,0.07902
406.96069,0.07439
405.03197,0.06618
403.10325,0.05619
401.17452,0.05125
399.24580,0.05163
397.31708,0.04866
395.38835,0.04446
393.45963,0.04832
391.53090,0.05755
389.60218,0.06166
387.67346,0.05534
385.74473,0.03959
383.81601,0.02350
381.88729,0.02367
379.95856,0.04034
378.02984,0.05086
376.10111,0.03654
374.17239,0.00966
372.24367,0.00000
370.31494,-0.00180
368.38622,0.00000
