3996.31543,0.00000
3994.38671,0.00009
3992.45799,0.00020
3990.52926,0.00024
3988.60054,0.00018
3986.67182,0.00012
3984.74309,0.00017
3982.81437,0.00023
3980.88564,0.00022
3978.95692,0.00024
3977.02820,0.00040
3975.09947,0.00055
3973.17075,0.00050
3971.24203,0.00039
3969.31330,0.00042
3967.38458,0.00057
3965.45586,0.00068
3963.52713,0.00066
3961.59841,0.00051
3959.66968,0.00037
3957.74096,0.00033
3955.81224,0.00038
3953.88351,0.00047
3951.95479,0.00061
3950.02607,0.00066
3948.09734,0.00050
3946.16862,0.00031
3944.23990,0.00042
3942.31117,0.00077
3940.38245,0.00096
3938.45372,0.00083
3936.52500,0.00065
3934.59628,0.00069
3932.66755,0.00083
3930.73883,0.00090
3928.81011,0.00089
3926.88138,0.00076
3924.95266,0.00050
3923.02393,0.00026
3921.09521,0.00023
3919.16649,0.00033
3917.23776,0.00041
3915.30904,0.00043
3913.38032,0.00040
3911.45159,0.00036
3909.52287,0.00036
3907.59415,0.00047
3905.66542,0.00075
3903.73670,0.00114
3901.80797,0.00144
3899.87925,0.00139
3897.95053,0.00096
3896.02180,0.00046
3894.09308,0.00018
3892.16436,0.00014
3890.23563,0.00015
3888.30691,0.00010
3886.37819,0.00007
3884.44946,0.00011
3882.52074,0.00018
3880.59201,0.00018
3878.66329,0.00007
3876.73457,0.00000
3874.80584,0.00009
3872.87712,0.00033
3870.94840,0.00061
3869.01967,0.00070
3867.09095,0.00048
3865.16222,0.00018
3863.23350,0.00002
3861.30478,-0.00006
3859.37605,-0.00011
3857.44733,-0.00000
3855.51861,0.00039
3853.58988,0.00083
3851.66116,0.00071
3849.73244,0.00012
3847.80371,-0.00032
3845.87499,-0.00035
3843.94626,-0.00010
3842.01754,0.00029
3840.08882,0.00070
3838.16009,0.00081
3836.23137,0.00056
3834.30265,0.00035
3832.37392,0.00031
3830.44520,0.00027
3828.51648,0.00021
3826.58775,0.00020
3824.65903,0.00021
3822.73030,0.00033
3820.80158,0.00059
3818.87286,0.00075
3816.94413,0.00071
3815.01541,0.00052
3813.08669,0.00034
3811.15796,0.00037
3809.22924,0.00067
3807.30052,0.00105
3805.37179,0.00124
3803.44307,0.00129
3801.51434,0.00134
3799.58562,0.00136
3797.65690,0.00142
3795.72817,0.00159
3793.79945,0.00171
3791.87073,0.00173
3789.94200,0.00174
3788.01328,0.00187
3786.08455,0.00213
3784.15583,0.00246
3782.22711,0.00286
3780.29838,0.00331
3778.36966,0.00357
3776.44094,0.00363
3774.51221,0.00375
3772.58349,0.00403
3770.65477,0.00433
3768.72604,0.00455
3766.79732,0.00479
3764.86859,0.00516
3762.93987,0.00560
3761.01115,0.00605
3759.08242,0.00656
3757.15370,0.00706
3755.22498,0.00745
3753.29625,0.00789
3751.36753,0.00868
3749.43881,0.00970
3747.51008,0.01054
3745.58136,0.01118
3743.65263,0.01182
3741.72391,0.01243
3739.79519,0.01311
3737.86646,0.01419
3735.93774,0.01581
3734.00902,0.01747
3732.08029,0.01873
3730.15157,0.01971
3728.22284,0.02083
3726.29412,0.02244
3724.36540,0.02437
3722.43667,0.02626
3720.50795,0.02807
3718.57923,0.02999
3716.65050,0.03206
3714.72178,0.03441
3712.79306,0.03757
3710.86433,0.04160
3708.93561,0.04540
3707.00688,0.04835
3705.07816,0.05113
3703.14944,0.05457
3701.22071,0.05859
3699.29199,0.06241
3697.36327,0.06579
3695.43454,0.06896
3693.50582,0.07213
3691.57710,0.07580
3689.64837,0.08045
3687.71965,0.08533
3685.79092,0.08940
3683.86220,0.09300
3681.93348,0.09691
3680.00475,0.10125
3678.07603,0.10604
3676.14731,0.11180
3674.21858,0.11778
3672.28986,0.12271
3670.36113,0.12773
3668.43241,0.13324
3666.50369,0.13798
3664.57496,0.14201
3662.64624,0.14599
3660.71752,0.14996
3658.78879,0.15392
3656.86007,0.15810
3654.93135,0.16211
3653.00262,0.16545
3651.07390,0.16902
3649.14517,0.17369
3647.21645,0.17834
3645.28773,0.18175
3643.35900,0.18440
3641.43028,0.18713
3639.50156,0.19012
3637.57283,0.19316
3635.64411,0.19615
3633.71539,0.19905
3631.78666,0.20184
3629.85794,0.20503
3627.92921,0.20859
3626.00049,0.21140
3624.07177,0.21335
3622.14304,0.21521
3620.21432,0.21740
3618.28560,0.21956
3616.35687,0.22119
3614.42815,0.22258
3612.49942,0.22404
3610.57070,0.22562
3608.64198,0.22745
3606.71325,0.22938
3604.78453,0.23112
3602.85581,0.23277
3600.92708,0.23445
3598.99836,0.23603
3597.06964,0.23761
3595.14091,0.23937
3593.21219,0.24108
3591.28346,0.24249
3589.35474,0.24401
3587.42602,0.24593
3585.49729,0.24764
3583.56857,0.24881
3581.63985,0.24988
3579.71112,0.25121
3577.78240,0.25279
3575.85368,0.25450
3573.92495,0.25605
3571.99623,0.25723
3570.06750,0.25828
3568.13878,0.25983
3566.21006,0.26198
3564.28133,0.26381
3562.35261,0.26482
3560.42389,0.26560
3558.49516,0.26674
3556.56644,0.26818
3554.63771,0.26960
3552.70899,0.27086
3550.78027,0.27199
3548.85154,0.27321
3546.92282,0.27473
3544.99410,0.27627
3543.06537,0.27748
3541.13665,0.27838
3539.20793,0.27931
3537.27920,0.28047
3535.35048,0.28173
3533.42175,0.28286
3531.49303,0.28381
3529.56431,0.28477
3527.63558,0.28605
3525.70686,0.28771
3523.77814,0.28939
3521.84941,0.29072
3519.92069,0.29170
3517.99197,0.29256
3516.06324,0.29346
3514.13452,0.29446
3512.20579,0.29549
3510.27707,0.29649
3508.34835,0.29750
3506.41962,0.29847
3504.49090,0.29948
3502.56218,0.30068
3500.63345,0.30188
3498.70473,0.30290
3496.77600,0.30388
3494.84728,0.30487
3492.91856,0.30570
3490.98983,0.30633
3489.06111,0.30703
3487.13239,0.30810
3485.20366,0.30931
3483.27494,0.31037
3481.34622,0.31147
3479.41749,0.31250
3477.48877,0.31309
3475.56004,0.31357
3473.63132,0.31429
3471.70260,0.31502
3469.77387,0.31571
3467.84515,0.31658
3465.91643,0.31746
3463.98770,0.31807
3462.05898,0.31853
3460.13026,0.31900
3458.20153,0.31956
3456.27281,0.32019
3454.34408,0.32092
3452.41536,0.32167
3450.48664,0.32221
3448.55791,0.32255
3446.62919,0.32295
3444.70047,0.32346
3442.77174,0.32394
3440.84302,0.32440
3438.91429,0.32484
3436.98557,0.32531
3435.05685,0.32587
3433.12812,0.32633
3431.19940,0.32659
3429.27068,0.32683
3427.34195,0.32715
3425.41323,0.32737
3423.48451,0.32746
3421.55578,0.32766
3419.62706,0.32806
3417.69833,0.32845
3415.76961,0.32860
3413.84089,0.32866
3411.91216,0.32886
3409.98344,0.32907
3408.05472,0.32903
3406.12599,0.32889
3404.19727,0.32891
3402.26855,0.32907
3400.33982,0.32905
3398.41110,0.32878
3396.48237,0.32868
3394.55365,0.32873
3392.62493,0.32875
3390.69620,0.32878
3388.76748,0.32871
3386.83876,0.32847
3384.91003,0.32819
3382.98131,0.32784
3381.05259,0.32745
3379.12386,0.32719
3377.19514,0.32698
3375.26641,0.32665
3373.33769,0.32617
3371.40897,0.32571
3369.48024,0.32547
3367.55152,0.32541
3365.62280,0.32514
3363.69407,0.32466
3361.76535,0.32432
3359.83662,0.32398
3357.90790,0.32352
3355.97918,0.32323
3354.05045,0.32316
3352.12173,0.32281
3350.19301,0.32211
3348.26428,0.32149
3346.33556,0.32106
3344.40684,0.32065
3342.47811,0.32029
3340.54939,0.31996
3338.62066,0.31944
3336.69194,0.31877
3334.76322,0.31815
3332.83449,0.31762
3330.90577,0.31719
3328.97705,0.31672
3327.04832,0.31612
3325.11960,0.31559
3323.19088,0.31532
3321.26215,0.31506
3319.33343,0.31450
3317.40470,0.31383
3315.47598,0.31320
3313.54726,0.31253
3311.61853,0.31186
3309.68981,0.31145
3307.76109,0.31134
3305.83236,0.31120
3303.90364,0.31082
3301.97491,0.31036
3300.04619,0.31006
3298.11747,0.30984
3296.18874,0.30945
3294.26002,0.30897
3292.33130,0.30858
3290.40257,0.30823
3288.47385,0.30783
3286.54513,0.30742
3284.61640,0.30701
3282.68768,0.30652
3280.75895,0.30596
3278.83023,0.30548
3276.90151,0.30500
3274.97278,0.30430
3273.04406,0.30353
3271.11534,0.30303
3269.18661,0.30270
3267.25789,0.30224
3265.32917,0.30171
3263.40044,0.30131
3261.47172,0.30097
3259.54299,0.30051
3257.61427,0.29996
3255.68555,0.29944
3253.75682,0.29893
3251.82810,0.29836
3249.89938,0.29786
3247.97065,0.29739
3246.04193,0.29682
3244.11320,0.29629
3242.18448,0.29577
3240.25576,0.29511
3238.32703,0.29437
3236.39831,0.29374
3234.46959,0.29326
3232.54086,0.29280
3230.61214,0.29225
3228.68342,0.29161
3226.75469,0.29076
3224.82597,0.28968
3222.89724,0.28866
3220.96852,0.28794
3219.03980,0.28744
3217.11107,0.28691
3215.18235,0.28618
3213.25363,0.28536
3211.32490,0.28461
3209.39618,0.28386
3207.46746,0.28298
3205.53873,0.28200
3203.61001,0.28102
3201.68128,0.28008
3199.75256,0.27928
3197.82384,0.27855
3195.89511,0.27773
3193.96639,0.27674
3192.03767,0.27573
3190.10894,0.27473
3188.18022,0.27377
3186.25149,0.27286
3184.32277,0.27191
3182.39405,0.27093
3180.46532,0.27002
3178.53660,0.26913
3176.60788,0.26822
3174.67915,0.26729
3172.75043,0.26628
3170.82171,0.26511
3168.89298,0.26392
3166.96426,0.26288
3165.03553,0.26193
3163.10681,0.26090
3161.17809,0.25979
3159.24936,0.25873
3157.32064,0.25775
3155.39192,0.25673
3153.46319,0.25570
3151.53447,0.25473
3149.60575,0.25385
3147.67702,0.25296
3145.74830,0.25189
3143.81957,0.25075
3141.89085,0.24972
3139.96213,0.24875
3138.03340,0.24764
3136.10468,0.24635
3134.17596,0.24511
3132.24723,0.24404
3130.31851,0.24307
3128.38978,0.24209
3126.46106,0.24106
3124.53234,0.24015
3122.60361,0.23929
3120.67489,0.23830
3118.74617,0.23724
3116.81744,0.23616
3114.88872,0.23489
3112.96000,0.23345
3111.03127,0.23202
3109.10255,0.23075
3107.17382,0.22965
3105.24510,0.22843
3103.31638,0.22691
3101.38765,0.22536
3099.45893,0.22407
3097.53021,0.22289
3095.60148,0.22154
3093.67276,0.22002
3091.74404,0.21853
3089.81531,0.21710
3087.88659,0.21575
3085.95786,0.21447
3084.02914,0.21317
3082.10042,0.21186
3080.17169,0.21058
3078.24297,0.20928
3076.31425,0.20786
3074.38552,0.20634
3072.45680,0.20481
3070.52807,0.20336
3068.59935,0.20205
3066.67063,0.20083
3064.74190,0.19953
3062.81318,0.19813
3060.88446,0.19672
3058.95573,0.19538
3057.02701,0.19414
3055.09829,0.19283
3053.16956,0.19142
3051.24084,0.19012
3049.31211,0.18905
3047.38339,0.18797
3045.45467,0.18663
3043.52594,0.18524
3041.59722,0.18418
3039.66850,0.18330
3037.73977,0.18226
3035.81105,0.18107
3033.88233,0.17996
3031.95360,0.17895
3030.02488,0.17785
3028.09615,0.17674
3026.16743,0.17582
3024.23871,0.17498
3022.30998,0.17401
3020.38126,0.17293
3018.45254,0.17186
3016.52381,0.17091
3014.59509,0.17014
3012.66636,0.16945
3010.73764,0.16856
3008.80892,0.16743
3006.88019,0.16627
3004.95147,0.16529
3003.02275,0.16447
3001.09402,0.16369
2999.16530,0.16293
2997.23658,0.16224
2995.30785,0.16163
2993.37913,0.16098
2991.45040,0.16033
2989.52168,0.15986
2987.59296,0.15952
2985.66423,0.15915
2983.73551,0.15872
2981.80679,0.15832
2979.87806,0.15799
2977.94934,0.15766
2976.02062,0.15738
2974.09189,0.15727
2972.16317,0.15736
2970.23444,0.15755
2968.30572,0.15772
2966.37700,0.15775
2964.44827,0.15761
2962.51955,0.15738
2960.59083,0.15702
2958.66210,0.15647
2956.73338,0.15592
2954.80466,0.15552
2952.87593,0.15509
2950.94721,0.15441
2949.01848,0.15382
2947.08976,0.15364
2945.16104,0.15375
2943.23231,0.15401
2941.30359,0.15447
2939.37487,0.15512
2937.44614,0.15586
2935.51742,0.15659
2933.58869,0.15717
2931.65997,0.15752
2929.73125,0.15758
2927.80252,0.15725
2925.87380,0.15643
2923.94508,0.15501
2922.01635,0.15294
2920.08763,0.15042
2918.15891,0.14789
2916.23018,0.14557
2914.30146,0.14320
2912.37273,0.14075
2910.44401,0.13845
2908.51529,0.13638
2906.58656,0.13445
2904.65784,0.13272
2902.72912,0.13119
2900.80039,0.12969
2898.87167,0.12811
2896.94295,0.12654
2895.01422,0.12507
2893.08550,0.12369
2891.15677,0.12244
2889.22805,0.12128
2887.29933,0.12012
2885.37060,0.11894
2883.44188,0.11778
2881.51316,0.11675
2879.58443,0.11602
2877.65571,0.11551
2875.72698,0.11502
2873.79826,0.11442
2871.86954,0.11363
2869.94081,0.11279
2868.01209,0.11209
2866.08337,0.11152
2864.15464,0.11107
2862.22592,0.11090
2860.29720,0.11112
2858.36847,0.11152
2856.43975,0.11166
2854.51102,0.11136
2852.58230,0.11051
2850.65358,0.10877
2848.72485,0.10610
2846.79613,0.10301
2844.86741,0.10004
2842.93868,0.09740
2841.00996,0.09505
2839.08124,0.09291
2837.15251,0.09104
2835.22379,0.08949
2833.29506,0.08812
2831.36634,0.08679
2829.43762,0.08552
2827.50889,0.08442
2825.58017,0.08340
2823.65145,0.08231
2821.72272,0.08129
2819.79400,0.08052
2817.86527,0.07974
2815.93655,0.07875
2814.00783,0.07774
2812.07910,0.07690
2810.15038,0.07618
2808.22166,0.07537
2806.29293,0.07447
2804.36421,0.07370
2802.43549,0.07302
2800.50676,0.07232
2798.57804,0.07160
2796.64931,0.07087
2794.72059,0.07017
2792.79187,0.06952
2790.86314,0.06885
2788.93442,0.06811
2787.00570,0.06726
2785.07697,0.06636
2783.14825,0.06561
2781.21953,0.06497
2779.29080,0.06433
2777.36208,0.06374
2775.43335,0.06318
2773.50463,0.06253
2771.57591,0.06180
2769.64718,0.06112
2767.71846,0.06052
2765.78974,0.05990
2763.86101,0.05924
2761.93229,0.05861
2760.00356,0.05806
2758.07484,0.05754
2756.14612,0.05698
2754.21739,0.05635
2752.28867,0.05571
2750.35995,0.05508
2748.43122,0.05446
2746.50250,0.05385
2744.57378,0.05328
2742.64505,0.05272
2740.71633,0.05219
2738.78760,0.05164
2736.85888,0.05107
2734.93016,0.05054
2733.00143,0.05002
2731.07271,0.04949
2729.14399,0.04894
2727.21526,0.04829
2725.28654,0.04764
2723.35782,0.04708
2721.42909,0.04656
2719.50037,0.04604
2717.57164,0.04553
2715.64292,0.04498
2713.71420,0.04438
2711.78547,0.04384
2709.85675,0.04343
2707.92803,0.04302
2705.99930,0.04248
2704.07058,0.04188
2702.14185,0.04139
2700.21313,0.04097
2698.28441,0.04052
2696.35568,0.03998
2694.42696,0.03943
2692.49824,0.03891
2690.56951,0.03839
2688.64079,0.03790
2686.71207,0.03748
2684.78334,0.03710
2682.85462,0.03672
2680.92589,0.03633
2678.99717,0.03593
2677.06845,0.03552
2675.13972,0.03508
2673.21100,0.03460
2671.28228,0.03415
2669.35355,0.03377
2667.42483,0.03337
2665.49611,0.03292
2663.56738,0.03247
2661.63866,0.03204
2659.70993,0.03159
2657.78121,0.03112
2655.85249,0.03072
2653.92376,0.03032
2651.99504,0.02984
2650.06632,0.02931
2648.13759,0.02887
2646.20887,0.02848
2644.28014,0.02810
2642.35142,0.02772
2640.42270,0.02735
2638.49397,0.02708
2636.56525,0.02683
2634.63653,0.02650
2632.70780,0.02610
2630.77908,0.02574
2628.85036,0.02538
2626.92163,0.02494
2624.99291,0.02453
2623.06418,0.02424
2621.13546,0.02395
2619.20674,0.02360
2617.27801,0.02322
2615.34929,0.02281
2613.42057,0.02239
2611.49184,0.02203
2609.56312,0.02180
2607.63440,0.02162
2605.70567,0.02136
2603.77695,0.02102
2601.84822,0.02064
2599.91950,0.02027
2597.99078,0.01994
2596.06205,0.01962
2594.13333,0.01927
2592.20461,0.01894
2590.27588,0.01865
2588.34716,0.01835
2586.41843,0.01805
2584.48971,0.01777
2582.56099,0.01752
2580.63226,0.01728
2578.70354,0.01701
2576.77482,0.01669
2574.84609,0.01642
2572.91737,0.01617
2570.98865,0.01585
2569.05992,0.01553
2567.13120,0.01531
2565.20247,0.01518
2563.27375,0.01503
2561.34503,0.01484
2559.41630,0.01462
2557.48758,0.01438
2555.55886,0.01413
2553.63013,0.01387
2551.70141,0.01357
2549.77269,0.01328
2547.84396,0.01307
2545.91524,0.01285
2543.98651,0.01264
2542.05779,0.01250
2540.12907,0.01229
2538.20034,0.01201
2536.27162,0.01175
2534.34290,0.01154
2532.41417,0.01138
2530.48545,0.01118
2528.55673,0.01098
2526.62800,0.01081
2524.69928,0.01067
2522.77055,0.01053
2520.84183,0.01036
2518.91311,0.01013
2516.98438,0.00988
2515.05566,0.00966
2513.12694,0.00947
2511.19821,0.00932
2509.26949,0.00915
2507.34076,0.00894
2505.41204,0.00870
2503.48332,0.00851
2501.55459,0.00833
2499.62587,0.00815
2497.69715,0.00800
2495.76842,0.00791
2493.83970,0.00779
2491.91098,0.00760
2489.98225,0.00738
2488.05353,0.00722
2486.12480,0.00716
2484.19608,0.00713
2482.26736,0.00709
2480.33863,0.00701
2478.40991,0.00677
2476.48119,0.00644
2474.55246,0.00622
2472.62374,0.00615
2470.69502,0.00604
2468.76629,0.00586
2466.83757,0.00565
2464.90884,0.00543
2462.98012,0.00525
2461.05140,0.00513
2459.12267,0.00500
2457.19395,0.00482
2455.26523,0.00468
2453.33650,0.00461
2451.40778,0.00452
2449.47905,0.00433
2447.55033,0.00413
2445.62161,0.00406
2443.69288,0.00408
2441.76416,0.00407
2439.83544,0.00397
2437.90671,0.00380
2435.97799,0.00358
2434.04927,0.00338
2432.12054,0.00323
2430.19182,0.00315
2428.26309,0.00316
2426.33437,0.00320
2424.40565,0.00311
2422.47692,0.00286
2420.54820,0.00259
2418.61948,0.00241
2416.69075,0.00232
2414.76203,0.00229
2412.83331,0.00228
2410.90458,0.00223
2408.97586,0.00210
2407.04713,0.00199
2405.11841,0.00190
2403.18969,0.00180
2401.26096,0.00171
2399.33224,0.00166
2397.40352,0.00161
2395.47479,0.00151
2393.54607,0.00139
2391.61734,0.00127
2389.68862,0.00117
2387.75990,0.00111
2385.83117,0.00107
2383.90245,0.00105
2381.97373,0.00105
2380.04500,0.00111
2378.11628,0.00124
2376.18756,0.00137
2374.25883,0.00148
2372.33011,0.00158
2370.40138,0.00168
2368.47266,0.00172
2366.54394,0.00164
2364.61521,0.00161
2362.68649,0.00175
2360.75777,0.00194
2358.82904,0.00195
2356.90032,0.00176
2354.97160,0.00150
2353.04287,0.00124
2351.11415,0.00099
2349.18542,0.00085
2347.25670,0.00094
2345.32798,0.00117
2343.39925,0.00133
2341.47053,0.00135
2339.54181,0.00130
2337.61308,0.00116
2335.68436,0.00095
2333.75563,0.00078
2331.82691,0.00073
2329.89819,0.00078
2327.96946,0.00086
2326.04074,0.00090
2324.11202,0.00083
2322.18329,0.00071
2320.25457,0.00062
2318.32585,0.00056
2316.39712,0.00048
2314.46840,0.00038
2312.53967,0.00026
2310.61095,0.00015
2308.68223,0.00007
2306.75350,0.00000
2304.82478,-0.00003
2302.89606,-0.00002
2300.96733,-0.00003
2299.03861,-0.00010
2297.10989,-0.00015
2295.18116,-0.00014
2293.25244,-0.00010
2291.32371,-0.00002
2289.39499,0.00008
2287.46627,0.00011
2285.53754,0.00003
2283.60882,-0.00007
2281.68010,-0.00011
2279.75137,-0.00013
2277.82265,-0.00011
2275.89392,-0.00003
2273.96520,-0.00000
2272.03648,-0.00005
2270.10775,-0.00008
2268.17903,-0.00005
2266.25031,-0.00001
2264.32158,-0.00001
2262.39286,0.00001
2260.46414,0.00006
2258.53541,0.00007
2256.60669,0.00005
2254.67796,0.00007
2252.74924,0.00010
2250.82052,0.00011
2248.89179,0.00007
2246.96307,0.00003
2245.03435,-0.00004
2243.10562,-0.00008
2241.17690,-0.00009
2239.24818,-0.00009
2237.31945,-0.00011
2235.39073,-0.00013
2233.46200,-0.00011
2231.53328,-0.00006
2229.60456,0.00001
2227.67583,0.00008
2225.74711,0.00012
2223.81839,0.00011
2221.88966,0.00008
2219.96094,0.00005
2218.03221,0.00005
2216.10349,0.00005
2214.17477,0.00003
2212.24604,0.00006
2210.31732,0.00014
2208.38860,0.00017
2206.45987,0.00008
2204.53115,0.00000
2202.60243,-0.00004
2200.67370,-0.00005
2198.74498,-0.00004
2196.81625,-0.00004
2194.88753,-0.00006
2192.95881,-0.00004
2191.03008,-0.00001
2189.10136,-0.00002
2187.17264,-0.00007
2185.24391,-0.00010
2183.31519,-0.00009
2181.38647,-0.00008
2179.45774,-0.00006
2177.52902,0.00003
2175.60029,0.00011
2173.67157,0.00010
2171.74285,0.00004
2169.81412,-0.00000
2167.88540,0.00001
2165.95668,0.00002
2164.02795,0.00004
2162.09923,0.00011
2160.17050,0.00021
2158.24178,0.00027
2156.31306,0.00025
2154.38433,0.00022
2152.45561,0.00025
2150.52689,0.00027
2148.59816,0.00027
2146.66944,0.00029
2144.74072,0.00033
2142.81199,0.00031
2140.88327,0.00026
2138.95454,0.00026
2137.02582,0.00029
2135.09710,0.00028
2133.16837,0.00025
2131.23965,0.00024
2129.31093,0.00023
2127.38220,0.00020
2125.45348,0.00014
2123.52476,0.00005
2121.59603,-0.00001
2119.66731,0.00002
2117.73858,0.00007
2115.80986,0.00009
2113.88114,0.00010
2111.95241,0.00009
2110.02369,0.00005
2108.09497,0.00004
2106.16624,0.00008
2104.23752,0.00011
2102.30880,0.00008
2100.38007,0.00003
2098.45135,0.00001
2096.52262,0.00001
2094.59390,0.00000
2092.66518,-0.00007
2090.73645,-0.00011
2088.80773,-0.00021
2086.87901,-0.00035
2084.95028,-0.00042
2083.02156,-0.00044
2081.09283,-0.00045
2079.16411,-0.00045
2077.23539,-0.00049
2075.30666,-0.00057
2073.37794,-0.00064
2071.44922,-0.00066
2069.52049,-0.00064
2067.59177,-0.00059
2065.66305,-0.00051
2063.73432,-0.00044
2061.80560,-0.00039
2059.87687,-0.00033
2057.94815,-0.00017
2056.01943,0.00004
2054.09070,0.00018
2052.16198,0.00024
2050.23326,0.00032
2048.30453,0.00050
2046.37581,0.00073
2044.44709,0.00090
2042.51836,0.00108
2040.58964,0.00144
2038.66091,0.00187
2036.73219,0.00223
2034.80347,0.00250
2032.87474,0.00275
2030.94602,0.00301
2029.01730,0.00325
2027.08857,0.00346
2025.15985,0.00371
2023.23112,0.00402
2021.30240,0.00433
2019.37368,0.00458
2017.44495,0.00477
2015.51623,0.00494
2013.58751,0.00509
2011.65878,0.00524
2009.73006,0.00542
2007.80134,0.00560
2005.87261,0.00571
2003.94389,0.00574
2002.01516,0.00573
2000.08644,0.00577
1998.15772,0.00579
1996.22899,0.00571
1994.30027,0.00561
1992.37155,0.00559
1990.44282,0.00556
1988.51410,0.00540
1986.58538,0.00520
1984.65665,0.00508
1982.72793,0.00504
1980.79920,0.00500
1978.87048,0.00487
1976.94176,0.00468
1975.01303,0.00446
1973.08431,0.00423
1971.15559,0.00399
1969.22686,0.00378
1967.29814,0.00358
1965.36941,0.00331
1963.44069,0.00298
1961.51197,0.00266
1959.58324,0.00237
1957.65452,0.00213
1955.72580,0.00191
1953.79707,0.00176
1951.86835,0.00167
1949.93963,0.00153
1948.01090,0.00131
1946.08218,0.00108
1944.15345,0.00091
1942.22473,0.00072
1940.29601,0.00053
1938.36728,0.00037
1936.43856,0.00021
1934.50984,0.00005
1932.58111,-0.00005
1930.65239,-0.00008
1928.72367,-0.00006
1926.79494,0.00000
1924.86622,0.00009
1922.93749,0.00021
1921.00877,0.00037
1919.08005,0.00064
1917.15132,0.00103
1915.22260,0.00146
1913.29388,0.00194
1911.36515,0.00249
1909.43643,0.00303
1907.50770,0.00351
1905.57898,0.00405
1903.65026,0.00471
1901.72153,0.00539
1899.79281,0.00605
1897.86409,0.00668
1895.93536,0.00727
1894.00664,0.00784
1892.07792,0.00848
1890.14919,0.00919
1888.22047,0.00983
1886.29174,0.01030
1884.36302,0.01071
1882.43430,0.01107
1880.50557,0.01135
1878.57685,0.01152
1876.64813,0.01168
1874.71940,0.01179
1872.79068,0.01178
1870.86196,0.01164
1868.93323,0.01145
1867.00451,0.01113
1865.07578,0.01059
1863.14706,0.00990
1861.21834,0.00916
1859.28961,0.00843
1857.36089,0.00775
1855.43217,0.00708
1853.50344,0.00639
1851.57472,0.00566
1849.64599,0.00499
1847.71727,0.00445
1845.78855,0.00403
1843.85982,0.00359
1841.93110,0.00304
1840.00238,0.00250
1838.07365,0.00200
1836.14493,0.00150
1834.21621,0.00106
1832.28748,0.00078
1830.35876,0.00061
1828.43003,0.00044
1826.50131,0.00028
1824.57259,0.00014
1822.64386,-0.00002
1820.71514,-0.00015
1818.78642,-0.00017
1816.85769,-0.00010
1814.92897,0.00000
1813.00025,-0.00003
1811.07152,-0.00000
1809.14280,0.00003
1807.21407,0.00006
1805.28535,0.00014
1803.35663,0.00040
1801.42790,0.00088
1799.49918,0.00142
1797.57046,0.00188
1795.64173,0.00232
1793.71301,0.00290
1791.78428,0.00354
1789.85556,0.00404
1787.92684,0.00454
1785.99811,0.00525
1784.06939,0.00613
1782.14067,0.00705
1780.21194,0.00797
1778.28322,0.00888
1776.35450,0.00983
1774.42577,0.01092
1772.49705,0.01216
1770.56832,0.01332
1768.63960,0.01420
1766.71088,0.01485
1764.78215,0.01547
1762.85343,0.01629
1760.92471,0.01727
1758.99598,0.01816
1757.06726,0.01901
1755.13854,0.01988
1753.20981,0.02081
1751.28109,0.02201
1749.35236,0.02341
1747.42364,0.02469
1745.49492,0.02589
1743.56619,0.02728
1741.63747,0.02896
1739.70875,0.03073
1737.78002,0.03240
1735.85130,0.03439
1733.92257,0.03723
1731.99385,0.04006
1730.06513,0.04220
1728.13640,0.04418
1726.20768,0.04641
1724.27896,0.04886
1722.35023,0.05118
1720.42151,0.05325
1718.49279,0.05564
1716.56406,0.05854
1714.63534,0.06111
1712.70661,0.06303
1710.77789,0.06486
1708.84917,0.06696
1706.92044,0.06946
1704.99172,0.07206
1703.06300,0.07443
1701.13427,0.07714
1699.20555,0.08057
1697.27683,0.08424
1695.34810,0.08788
1693.41938,0.09100
1691.49065,0.09363
1689.56193,0.09643
1687.63321,0.09948
1685.70448,0.10315
1683.77576,0.10793
1681.84704,0.11230
1679.91831,0.11538
1677.98959,0.11803
1676.06087,0.12117
1674.13214,0.12471
1672.20342,0.12809
1670.27469,0.13154
1668.34597,0.13503
1666.41725,0.13782
1664.48852,0.14032
1662.55980,0.14319
1660.63108,0.14589
1658.70235,0.14782
1656.77363,0.14932
1654.84490,0.15138
1652.91618,0.15437
1650.98746,0.15666
1649.05873,0.15786
1647.13001,0.15912
1645.20129,0.16043
1643.27256,0.16120
1641.34384,0.16163
1639.41512,0.16210
1637.48639,0.16279
1635.55767,0.16356
1633.62894,0.16379
1631.70022,0.16340
1629.77150,0.16266
1627.84277,0.16157
1625.91405,0.16002
1623.98533,0.15799
1622.05660,0.15556
1620.12788,0.15298
1618.19916,0.15002
1616.27043,0.14634
1614.34171,0.14253
1612.41298,0.13905
1610.48426,0.13560
1608.55554,0.13190
1606.62681,0.12808
1604.69809,0.12434
1602.76937,0.12066
1600.84064,0.11709
1598.91192,0.11377
1596.98319,0.11075
1595.05447,0.10781
1593.12575,0.10486
1591.19702,0.10198
1589.26830,0.09930
1587.33958,0.09682
1585.41085,0.09446
1583.48213,0.09211
1581.55341,0.08984
1579.62468,0.08776
1577.69596,0.08582
1575.76723,0.08385
1573.83851,0.08196
1571.90979,0.08029
1569.98106,0.07875
1568.05234,0.07733
1566.12362,0.07610
1564.19489,0.07506
1562.26617,0.07427
1560.33745,0.07369
1558.40872,0.07287
1556.48000,0.07156
1554.55127,0.07018
1552.62255,0.06893
1550.69383,0.06776
1548.76510,0.06662
1546.83638,0.06557
1544.90766,0.06452
1542.97893,0.06328
1541.05021,0.06164
1539.12148,0.05962
1537.19276,0.05774
1535.26404,0.05605
1533.33531,0.05421
1531.40659,0.05225
1529.47787,0.05040
1527.54914,0.04858
1525.62042,0.04671
1523.69170,0.04493
1521.76297,0.04318
1519.83425,0.04144
1517.90552,0.03979
1515.97680,0.03809
1514.04808,0.03628
1512.11935,0.03446
1510.19063,0.03263
1508.26191,0.03045
1506.33318,0.02763
1504.40446,0.02486
1502.47574,0.02267
1500.54701,0.02074
1498.61829,0.01886
1496.68956,0.01713
1494.76084,0.01570
1492.83212,0.01465
1490.90339,0.01390
1488.97467,0.01336
1487.04595,0.01297
1485.11722,0.01272
1483.18850,0.01275
1481.25977,0.01319
1479.33105,0.01397
1477.40233,0.01497
1475.47360,0.01640
1473.54488,0.01868
1471.61616,0.02158
1469.68743,0.02402
1467.75871,0.02582
1465.82999,0.02743
1463.90126,0.02881
1461.97254,0.02967
1460.04381,0.03033
1458.11509,0.03131
1456.18637,0.03236
1454.25764,0.03285
1452.32892,0.03293
1450.40020,0.03301
1448.47147,0.03327
1446.54275,0.03366
1444.61403,0.03402
1442.68530,0.03433
1440.75658,0.03471
1438.82785,0.03525
1436.89913,0.03604
1434.97041,0.03686
1433.04168,0.03751
1431.11296,0.03817
1429.18424,0.03896
1427.25551,0.03978
1425.32679,0.04069
1423.39806,0.04169
1421.46934,0.04274
1419.54062,0.04407
1417.61189,0.04575
1415.68317,0.04745
1413.75445,0.04915
1411.82572,0.05108
1409.89700,0.05331
1407.96828,0.05574
1406.03955,0.05821
1404.11083,0.06030
1402.18210,0.06146
1400.25338,0.06144
1398.32466,0.06023
1396.39593,0.05790
1394.46721,0.05478
1392.53849,0.05158
1390.60976,0.04911
1388.68104,0.04797
1386.75232,0.04804
1384.82359,0.04769
1382.89487,0.04525
1380.96614,0.04112
1379.03742,0.03712
1377.10870,0.03417
1375.17997,0.03190
1373.25125,0.02989
1371.32253,0.02813
1369.39380,0.02666
1367.46508,0.02534
1365.53635,0.02404
1363.60763,0.02273
1361.67891,0.02146
1359.75018,0.02038
1357.82146,0.01945
1355.89274,0.01858
1353.96401,0.01774
1352.03529,0.01701
1350.10657,0.01641
1348.17784,0.01589
1346.24912,0.01540
1344.32039,0.01496
1342.39167,0.01464
1340.46295,0.01443
1338.53422,0.01423
1336.60550,0.01402
1334.67678,0.01388
1332.74805,0.01385
1330.81933,0.01393
1328.89061,0.01420
1326.96188,0.01456
1325.03316,0.01489
1323.10443,0.01521
1321.17571,0.01557
1319.24699,0.01597
1317.31826,0.01636
1315.38954,0.01674
1313.46082,0.01708
1311.53209,0.01740
1309.60337,0.01784
1307.67464,0.01853
1305.74592,0.01943
1303.81720,0.02045
1301.88847,0.02151
1299.95975,0.02259
1298.03103,0.02377
1296.10230,0.02522
1294.17358,0.02701
1292.24486,0.02898
1290.31613,0.03101
1288.38741,0.03325
1286.45868,0.03587
1284.52996,0.03884
1282.60124,0.04204
1280.67251,0.04548
1278.74379,0.04928
1276.81507,0.05348
1274.88634,0.05805
1272.95762,0.06318
1271.02890,0.06919
1269.10017,0.07604
1267.17145,0.08356
1265.24272,0.09179
1263.31400,0.10100
1261.38528,0.11145
1259.45655,0.12309
1257.52783,0.13563
1255.59911,0.14892
1253.67038,0.16269
1251.74166,0.17647
1249.81294,0.18993
1247.88421,0.20295
1245.95549,0.21535
1244.02676,0.22692
1242.09804,0.23755
1240.16932,0.24709
1238.24059,0.25559
1236.31187,0.26320
1234.38315,0.27002
1232.45442,0.27613
1230.52570,0.28177
1228.59697,0.28715
1226.66825,0.29203
1224.73953,0.29626
1222.81080,0.30015
1220.88208,0.30398
1218.95336,0.30764
1217.02463,0.31096
1215.09591,0.31417
1213.16719,0.31754
1211.23846,0.32090
1209.30974,0.32382
1207.38101,0.32633
1205.45229,0.32882
1203.52357,0.33141
1201.59484,0.33408
1199.66612,0.33665
1197.73740,0.33892
1195.80867,0.34125
1193.87995,0.34392
1191.95123,0.34644
1190.02250,0.34861
1188.09378,0.35065
1186.16505,0.35277
1184.23633,0.35523
1182.30761,0.35789
1180.37888,0.36020
1178.45016,0.36200
1176.52144,0.36391
1174.59271,0.36651
1172.66399,0.36936
1170.73526,0.37169
1168.80654,0.37358
1166.87782,0.37543
1164.94909,0.37724
1163.02037,0.37908
1161.09165,0.38134
1159.16292,0.38382
1157.23420,0.38586
1155.30548,0.38741
1153.37675,0.38925
1151.44803,0.39182
1149.51930,0.39473
1147.59058,0.39753
1145.66186,0.39985
1143.73313,0.40175
1141.80441,0.40384
1139.87569,0.40623
1137.94696,0.40869
1136.01824,0.41131
1134.08952,0.41417
1132.16079,0.41695
1130.23207,0.41966
1128.30334,0.42287
1126.37462,0.42686
1124.44590,0.43126
1122.51717,0.43573
1120.58845,0.44027
1118.65973,0.44499
1116.73100,0.45047
1114.80228,0.45714
1112.87355,0.46461
1110.94483,0.47201
1109.01611,0.47868
1107.08738,0.48500
1105.15866,0.49189
1103.22994,0.49896
1101.30121,0.50475
1099.37249,0.50911
1097.44377,0.51288
1095.51504,0.51619
1093.58632,0.51887
1091.65759,0.52079
1089.72887,0.52156
1087.80015,0.52104
1085.87142,0.51973
1083.94270,0.51865
1082.01398,0.51825
1080.08525,0.51760
1078.15653,0.51578
1076.22781,0.51327
1074.29908,0.51025
1072.37036,0.50660
1070.44163,0.50310
1068.51291,0.49993
1066.58419,0.49610
1064.65546,0.49102
1062.72674,0.48527
1060.79802,0.47932
1058.86929,0.47334
1056.94057,0.46771
1055.01184,0.46193
1053.08312,0.45516
1051.15440,0.44764
1049.22567,0.43985
1047.29695,0.43161
1045.36823,0.42308
1043.43950,0.41480
1041.51078,0.40686
1039.58206,0.39895
1037.65333,0.39068
1035.72461,0.38207
1033.79588,0.37323
1031.86716,0.36383
1029.93844,0.35397
1028.00971,0.34457
1026.08099,0.33588
1024.15227,0.32732
1022.22354,0.31884
1020.29482,0.31068
1018.36610,0.30285
1016.43737,0.29528
1014.50865,0.28787
1012.57992,0.28031
1010.65120,0.27256
1008.72248,0.26511
1006.79375,0.25812
1004.86503,0.25121
1002.93631,0.24417
1001.00758,0.23725
999.07886,0.23058
997.15013,0.22397
995.22141,0.21740
993.29269,0.21104
991.36396,0.20502
989.43524,0.19955
987.50652,0.19479
985.57779,0.19056
983.64907,0.18658
981.72035,0.18272
979.79162,0.17916
977.86290,0.17611
975.93417,0.17360
974.00545,0.17148
972.07673,0.16964
970.14800,0.16812
968.21928,0.16689
966.29056,0.16574
964.36183,0.16473
962.43311,0.16411
960.50439,0.16370
958.57566,0.16307
956.64694,0.16213
954.71821,0.16111
952.78949,0.16011
950.86077,0.15915
948.93204,0.15807
947.00332,0.15668
945.07460,0.15505
943.14587,0.15326
941.21715,0.15134
939.28842,0.14937
937.35970,0.14717
935.43098,0.14471
933.50225,0.14242
931.57353,0.14028
929.64481,0.13763
927.71608,0.13444
925.78736,0.13128
923.85864,0.12805
921.92991,0.12448
920.00119,0.12111
918.07246,0.11816
916.14374,0.11511
914.21502,0.11183
912.28629,0.10844
910.35757,0.10482
908.42885,0.10100
906.50012,0.09704
904.57140,0.09317
902.64268,0.08945
900.71395,0.08554
898.78523,0.08151
896.85650,0.07763
894.92778,0.07387
892.99906,0.07009
891.07033,0.06631
889.14161,0.06256
887.21289,0.05888
885.28416,0.05534
883.35544,0.05193
881.42671,0.04873
879.49799,0.04583
877.56927,0.04315
875.64054,0.04052
873.71182,0.03786
871.78310,0.03525
869.85437,0.03276
867.92565,0.03035
865.99693,0.02808
864.06820,0.02601
862.13948,0.02399
860.21075,0.02222
858.28203,0.02090
856.35331,0.01972
854.42458,0.01854
852.49586,0.01772
850.56714,0.01728
848.63841,0.01708
846.70969,0.01746
844.78097,0.01868
842.85224,0.02062
840.92352,0.02344
838.99479,0.02708
837.06607,0.03095
835.13735,0.03459
833.20862,0.03837
831.27990,0.04308
829.35118,0.04845
827.42245,0.05349
825.49373,0.05803
823.56501,0.06254
821.63628,0.06703
819.70756,0.07109
817.77883,0.07477
815.85011,0.07877
813.92139,0.08337
811.99266,0.08777
810.06394,0.09133
808.13522,0.09425
806.20649,0.09690
804.27777,0.09964
802.34904,0.10238
800.42032,0.10443
798.49160,0.10555
796.56287,0.10600
794.63415,0.10563
792.70543,0.10417
790.77670,0.10189
788.84798,0.09920
786.91926,0.09635
784.99053,0.09349
783.06181,0.09052
781.13308,0.08702
779.20436,0.08262
777.27564,0.07734
775.34691,0.07181
773.41819,0.06682
771.48947,0.06271
769.56074,0.05943
767.63202,0.05693
765.70330,0.05524
763.77457,0.05387
761.84585,0.05237
759.91712,0.05127
757.98840,0.05088
756.05968,0.05055
754.13095,0.04964
752.20223,0.04844
750.27351,0.04774
748.34478,0.04775
746.41606,0.04779
744.48733,0.04717
742.55861,0.04628
740.62989,0.04597
738.70116,0.04601
736.77244,0.04599
734.84372,0.04595
732.91499,0.04573
730.98627,0.04553
729.05755,0.04580
727.12882,0.04626
725.20010,0.04673
723.27137,0.04702
721.34265,0.04688
719.41393,0.04634
717.48520,0.04595
715.55648,0.04586
713.62776,0.04567
711.69903,0.04536
709.77031,0.04540
707.84159,0.04586
705.91286,0.04619
703.98414,0.04626
702.05541,0.04662
700.12669,0.04740
698.19797,0.04824
696.26924,0.04901
694.34052,0.04971
692.41180,0.05016
690.48307,0.04995
688.55435,0.04911
686.62562,0.04848
684.69690,0.04864
682.76818,0.04921
680.83945,0.04955
678.91073,0.04951
676.98201,0.04929
675.05328,0.04921
673.12456,0.04947
671.19584,0.04981
669.26711,0.05005
667.33839,0.05046
665.40966,0.05096
663.48094,0.05124
661.55222,0.05151
659.62349,0.05215
657.69477,0.05313
655.76605,0.05423
653.83732,0.05534
651.90860,0.05659
649.97988,0.05822
648.05115,0.05999
646.12243,0.06128
644.19370,0.06232
642.26498,0.06389
640.33626,0.06595
638.40753,0.06780
636.47881,0.06910
634.55009,0.07001
632.62136,0.07071
630.69264,0.07104
628.76391,0.07110
626.83519,0.07153
624.90647,0.07256
622.97774,0.07371
621.04902,0.07476
619.12030,0.07597
617.19157,0.07811
615.26285,0.08098
613.33413,0.08295
611.40540,0.08380
609.47668,0.08485
607.54795,0.08660
605.61923,0.08864
603.69051,0.09065
601.76178,0.09276
599.83306,0.09510
597.90434,0.09739
595.97561,0.09927
594.04689,0.10042
592.11817,0.10141
590.18944,0.10305
588.26072,0.10441
586.33199,0.10483
584.40327,0.10532
582.47455,0.10599
580.54582,0.10624
578.61710,0.10655
576.68838,0.10730
574.75965,0.10844
572.83093,0.10985
570.90220,0.11086
568.97348,0.11108
567.04476,0.11104
565.11603,0.11111
563.18731,0.11148
561.25859,0.11272
559.32986,0.11430
557.40114,0.11482
555.47242,0.11450
553.54369,0.11499
551.61497,0.11706
549.68624,0.11956
547.75752,0.12073
545.82880,0.12062
543.90007,0.12066
541.97135,0.12098
540.04263,0.12095
538.11390,0.12102
536.18518,0.12171
534.25646,0.12287
532.32773,0.12397
530.39901,0.12433
528.47028,0.12362
526.54156,0.12216
524.61284,0.12102
522.68411,0.12105
520.75539,0.12237
518.82667,0.12474
516.89794,0.12686
514.96922,0.12786
513.04049,0.12941
511.11177,0.13352
509.18305,0.13898
507.25432,0.14321
505.32560,0.14672
503.39688,0.15205
501.46815,0.15955
499.53943,0.16791
497.61071,0.17706
495.68198,0.18677
493.75326,0.19589
491.82453,0.20395
489.89581,0.21148
487.96709,0.21964
486.03836,0.22886
484.10964,0.23829
482.18092,0.24798
480.25219,0.25856
478.32347,0.26834
476.39475,0.27470
474.46602,0.27942
472.53730,0.28816
470.60857,0.29987
468.67985,0.30559
466.75113,0.30244
464.82240,0.29743
462.89368,0.29712
460.96496,0.30105
459.03623,0.30406
457.10751,0.30148
455.17878,0.29461
453.25006,0.28801
451.32134,0.28281
449.39261,0.27817
447.46389,0.27311
445.53517,0.26547
443.60644,0.25348
441.67772,0.23809
439.74900,0.22287
437.82027,0.21285
435.89155,0.21134
433.96282,0.21269
432.03410,0.20715
430.10538,0.19639
428.17665,0.18902
426.24793,0.18505
424.31921,0.17888
422.39048,0.17063
420.46176,0.16298
418.53304,0.15362
416.60431,0.14239
414.67559,0.13468
412.74686,0.13147
410.81814,0.12806
408.88942,0.12117
406.96069,0.11223
405.03197,0.10343
403.10325,0.09623
401.17452,0.09151
399.24580,0.08871
397.31708,0.08626
395.38835,0.08063
393.45963,0.06951
391.53090,0.05627
389.60218,0.04493
387.67346,0.03690
385.74473,0.02916
383.81601,0.01456
381.88729,0.00000
379.95856,0.00540
378.02984,0.04023
376.10111,0.08640
374.17239,0.10360
372.24367,0.07116
370.31494,0.02493
368.38622,0.00000
