3996.31543,0.00014
3994.38671,0.00018
3992.45799,0.00014
3990.52926,0.00015
3988.60054,0.00026
3986.67182,0.00034
3984.74309,0.00033
3982.81437,0.00027
3980.88564,0.00027
3978.95692,0.00024
3977.02820,0.00009
3975.09947,0.00000
3973.17075,0.00012
3971.24203,0.00029
3969.31330,0.00031
3967.38458,0.00028
3965.45586,0.00040
3963.52713,0.00055
3961.59841,0.00054
3959.66968,0.00038
3957.74096,0.00033
3955.81224,0.00047
3953.88351,0.00061
3951.95479,0.00057
3950.02607,0.00042
3948.09734,0.00041
3946.16862,0.00057
3944.23990,0.00068
3942.31117,0.00068
3940.38245,0.00076
3938.45372,0.00095
3936.52500,0.00104
3934.59628,0.00094
3932.66755,0.00075
3930.73883,0.00062
3928.81011,0.00067
3926.88138,0.00082
3924.95266,0.00089
3923.02393,0.00086
3921.09521,0.00089
3919.16649,0.00095
3917.23776,0.00093
3915.30904,0.00084
3913.38032,0.00069
3911.45159,0.00053
3909.52287,0.00051
3907.59415,0.00081
3905.66542,0.00128
3903.73670,0.00154
3901.80797,0.00144
3899.87925,0.00106
3897.95053,0.00069
3896.02180,0.00071
3894.09308,0.00108
3892.16436,0.00132
3890.23563,0.00123
3888.30691,0.00114
3886.37819,0.00105
3884.44946,0.00075
3882.52074,0.00047
3880.59201,0.00035
3878.66329,0.00042
3876.73457,0.00082
3874.80584,0.00135
3872.87712,0.00163
3870.94840,0.00134
3869.01967,0.00067
3867.09095,0.00024
3865.16222,0.00018
3863.23350,0.00016
3861.30478,0.00022
3859.37605,0.00053
3857.44733,0.00112
3855.51861,0.00163
3853.58988,0.00135
3851.66116,0.00044
3849.73244,0.00000
3847.80371,0.00015
3845.87499,0.00050
3843.94626,0.00079
3842.01754,0.00105
3840.08882,0.00119
3838.16009,0.00094
3836.23137,0.00044
3834.30265,0.00022
3832.37392,0.00035
3830.44520,0.00065
3828.51648,0.00096
3826.58775,0.00112
3824.65903,0.00124
3822.73030,0.00146
3820.80158,0.00153
3818.87286,0.00136
3816.94413,0.00102
3815.01541,0.00060
3813.08669,0.00053
3811.15796,0.00092
3809.22924,0.00138
3807.30052,0.00158
3805.37179,0.00167
3803.44307,0.00185
3801.51434,0.00178
3799.58562,0.00141
3797.65690,0.00115
3795.72817,0.00105
3793.79945,0.00110
3791.87073,0.00133
3789.94200,0.00161
3788.01328,0.00187
3786.08455,0.00212
3784.15583,0.00230
3782.22711,0.00244
3780.29838,0.00254
3778.36966,0.00258
3776.44094,0.00264
3774.51221,0.00280
3772.58349,0.00305
3770.65477,0.00330
3768.72604,0.00348
3766.79732,0.00365
3764.86859,0.00382
3762.93987,0.00407
3761.01115,0.00442
3759.08242,0.00472
3757.15370,0.00502
3755.22498,0.00558
3753.29625,0.00628
3751.36753,0.00667
3749.43881,0.00682
3747.51008,0.00733
3745.58136,0.00808
3743.65263,0.00849
3741.72391,0.00872
3739.79519,0.00924
3737.86646,0.01004
3735.93774,0.01087
3734.00902,0.01152
3732.08029,0.01213
3730.15157,0.01298
3728.22284,0.01405
3726.29412,0.01519
3724.36540,0.01639
3722.43667,0.01771
3720.50795,0.01910
3718.57923,0.02064
3716.65050,0.02247
3714.72178,0.02456
3712.79306,0.02677
3710.86433,0.02894
3708.93561,0.03106
3707.00688,0.03329
3705.07816,0.03581
3703.14944,0.03858
3701.22071,0.04140
3699.29199,0.04414
3697.36327,0.04687
3695.43454,0.04961
3693.50582,0.05239
3691.57710,0.05539
3689.64837,0.05871
3687.71965,0.06205
3685.79092,0.06517
3683.86220,0.06829
3681.93348,0.07171
3680.00475,0.07541
3678.07603,0.07932
3676.14731,0.08350
3674.21858,0.08754
3672.28986,0.09120
3670.36113,0.09506
3668.43241,0.09897
3666.50369,0.10239
3664.57496,0.10563
3662.64624,0.10892
3660.71752,0.11200
3658.78879,0.11489
3656.86007,0.11794
3654.93135,0.12110
3653.00262,0.12402
3651.07390,0.12689
3649.14517,0.12994
3647.21645,0.13286
3645.28773,0.13539
3643.35900,0.13772
3641.43028,0.14004
3639.50156,0.14229
3637.57283,0.14438
3635.64411,0.14648
3633.71539,0.14879
3631.78666,0.15130
3629.85794,0.15379
3627.92921,0.15596
3626.00049,0.15768
3624.07177,0.15926
3622.14304,0.16094
3620.21432,0.16271
3618.28560,0.16438
3616.35687,0.16580
3614.42815,0.16710
3612.49942,0.16840
3610.57070,0.16978
3608.64198,0.17122
3606.71325,0.17267
3604.78453,0.17407
3602.85581,0.17549
3600.92708,0.17699
3598.99836,0.17846
3597.06964,0.17985
3595.14091,0.18128
3593.21219,0.18280
3591.28346,0.18427
3589.35474,0.18561
3587.42602,0.18688
3585.49729,0.18821
3583.56857,0.18957
3581.63985,0.19076
3579.71112,0.19178
3577.78240,0.19279
3575.85368,0.19390
3573.92495,0.19510
3571.99623,0.19638
3570.06750,0.19777
3568.13878,0.19925
3566.21006,0.20056
3564.28133,0.20157
3562.35261,0.20255
3560.42389,0.20372
3558.49516,0.20500
3556.56644,0.20624
3554.63771,0.20737
3552.70899,0.20842
3550.78027,0.20945
3548.85154,0.21057
3546.92282,0.21173
3544.99410,0.21277
3543.06537,0.21361
3541.13665,0.21439
3539.20793,0.21527
3537.27920,0.21636
3535.35048,0.21755
3533.42175,0.21859
3531.49303,0.21945
3529.56431,0.22032
3527.63558,0.22135
3525.70686,0.22252
3523.77814,0.22364
3521.84941,0.22463
3519.92069,0.22557
3517.99197,0.22655
3516.06324,0.22756
3514.13452,0.22850
3512.20579,0.22932
3510.27707,0.23005
3508.34835,0.23072
3506.41962,0.23144
3504.49090,0.23228
3502.56218,0.23319
3500.63345,0.23409
3498.70473,0.23503
3496.77600,0.23601
3494.84728,0.23695
3492.91856,0.23774
3490.98983,0.23844
3489.06111,0.23920
3487.13239,0.23997
3485.20366,0.24071
3483.27494,0.24144
3481.34622,0.24207
3479.41749,0.24256
3477.48877,0.24303
3475.56004,0.24353
3473.63132,0.24411
3471.70260,0.24487
3469.77387,0.24575
3467.84515,0.24664
3465.91643,0.24741
3463.98770,0.24804
3462.05898,0.24853
3460.13026,0.24892
3458.20153,0.24926
3456.27281,0.24959
3454.34408,0.24995
3452.41536,0.25045
3450.48664,0.25113
3448.55791,0.25166
3446.62919,0.25185
3444.70047,0.25193
3442.77174,0.25215
3440.84302,0.25249
3438.91429,0.25294
3436.98557,0.25348
3435.05685,0.25397
3433.12812,0.25421
3431.19940,0.25422
3429.27068,0.25428
3427.34195,0.25457
3425.41323,0.25500
3423.48451,0.25534
3421.55578,0.25561
3419.62706,0.25590
3417.69833,0.25616
3415.76961,0.25638
3413.84089,0.25657
3411.91216,0.25662
3409.98344,0.25656
3408.05472,0.25665
3406.12599,0.25688
3404.19727,0.25691
3402.26855,0.25661
3400.33982,0.25627
3398.41110,0.25615
3396.48237,0.25625
3394.55365,0.25648
3392.62493,0.25663
3390.69620,0.25658
3388.76748,0.25651
3386.83876,0.25653
3384.91003,0.25643
3382.98131,0.25613
3381.05259,0.25578
3379.12386,0.25563
3377.19514,0.25567
3375.26641,0.25557
3373.33769,0.25526
3371.40897,0.25503
3369.48024,0.25490
3367.55152,0.25476
3365.62280,0.25461
3363.69407,0.25429
3361.76535,0.25388
3359.83662,0.25359
3357.90790,0.25341
3355.97918,0.25318
3354.05045,0.25291
3352.12173,0.25262
3350.19301,0.25219
3348.26428,0.25176
3346.33556,0.25149
3344.40684,0.25123
3342.47811,0.25084
3340.54939,0.25041
3338.62066,0.25015
3336.69194,0.24999
3334.76322,0.24972
3332.83449,0.24940
3330.90577,0.24912
3328.97705,0.24874
3327.04832,0.24823
3325.11960,0.24773
3323.19088,0.24730
3321.26215,0.24694
3319.33343,0.24668
3317.40470,0.24644
3315.47598,0.24615
3313.54726,0.24587
3311.61853,0.24574
3309.68981,0.24565
3307.76109,0.24536
3305.83236,0.24488
3303.90364,0.24442
3301.97491,0.24401
3300.04619,0.24367
3298.11747,0.24345
3296.18874,0.24329
3294.26002,0.24299
3292.33130,0.24254
3290.40257,0.24209
3288.47385,0.24175
3286.54513,0.24141
3284.61640,0.24097
3282.68768,0.24054
3280.75895,0.24017
3278.83023,0.23989
3276.90151,0.23969
3274.97278,0.23942
3273.04406,0.23897
3271.11534,0.23848
3269.18661,0.23814
3267.25789,0.23784
3265.32917,0.23746
3263.40044,0.23699
3261.47172,0.23654
3259.54299,0.23618
3257.61427,0.23585
3255.68555,0.23541
3253.75682,0.23477
3251.82810,0.23411
3249.89938,0.23362
3247.97065,0.23320
3246.04193,0.23268
3244.11320,0.23221
3242.18448,0.23193
3240.25576,0.23161
3238.32703,0.23105
3236.39831,0.23033
3234.46959,0.22960
3232.54086,0.22900
3230.61214,0.22847
3228.68342,0.22785
3226.75469,0.22718
3224.82597,0.22661
3222.89724,0.22613
3220.96852,0.22564
3219.03980,0.22507
3217.11107,0.22442
3215.18235,0.22381
3213.25363,0.22331
3211.32490,0.22275
3209.39618,0.22201
3207.46746,0.22117
3205.53873,0.22036
3203.61001,0.21963
3201.68128,0.21899
3199.75256,0.21833
3197.82384,0.21754
3195.89511,0.21669
3193.96639,0.21593
3192.03767,0.21525
3190.10894,0.21449
3188.18022,0.21361
3186.25149,0.21287
3184.32277,0.21238
3182.39405,0.21177
3180.46532,0.21078
3178.53660,0.20973
3176.60788,0.20884
3174.67915,0.20797
3172.75043,0.20705
3170.82171,0.20620
3168.89298,0.20536
3166.96426,0.20447
3165.03553,0.20358
3163.10681,0.20276
3161.17809,0.20196
3159.24936,0.20113
3157.32064,0.20032
3155.39192,0.19955
3153.46319,0.19873
3151.53447,0.19782
3149.60575,0.19695
3147.67702,0.19612
3145.74830,0.19521
3143.81957,0.19430
3141.89085,0.19350
3139.96213,0.19268
3138.03340,0.19177
3136.10468,0.19088
3134.17596,0.19009
3132.24723,0.18933
3130.31851,0.18849
3128.38978,0.18758
3126.46106,0.18668
3124.53234,0.18578
3122.60361,0.18486
3120.67489,0.18401
3118.74617,0.18323
3116.81744,0.18246
3114.88872,0.18164
3112.96000,0.18073
3111.03127,0.17976
3109.10255,0.17875
3107.17382,0.17773
3105.24510,0.17670
3103.31638,0.17565
3101.38765,0.17468
3099.45893,0.17387
3097.53021,0.17301
3095.60148,0.17200
3093.67276,0.17095
3091.74404,0.16996
3089.81531,0.16893
3087.88659,0.16781
3085.95786,0.16676
3084.02914,0.16585
3082.10042,0.16491
3080.17169,0.16391
3078.24297,0.16297
3076.31425,0.16199
3074.38552,0.16085
3072.45680,0.15971
3070.52807,0.15873
3068.59935,0.15782
3066.67063,0.15686
3064.74190,0.15586
3062.81318,0.15486
3060.88446,0.15387
3058.95573,0.15287
3057.02701,0.15176
3055.09829,0.15063
3053.16956,0.14962
3051.24084,0.14868
3049.31211,0.14773
3047.38339,0.14682
3045.45467,0.14592
3043.52594,0.14501
3041.59722,0.14411
3039.66850,0.14320
3037.73977,0.14222
3035.81105,0.14116
3033.88233,0.14018
3031.95360,0.13934
3030.02488,0.13853
3028.09615,0.13769
3026.16743,0.13685
3024.23871,0.13605
3022.30998,0.13536
3020.38126,0.13468
3018.45254,0.13392
3016.52381,0.13308
3014.59509,0.13227
3012.66636,0.13158
3010.73764,0.13090
3008.80892,0.13015
3006.88019,0.12944
3004.95147,0.12879
3003.02275,0.12813
3001.09402,0.12746
2999.16530,0.12684
2997.23658,0.12628
2995.30785,0.12581
2993.37913,0.12550
2991.45040,0.12528
2989.52168,0.12499
2987.59296,0.12467
2985.66423,0.12446
2983.73551,0.12437
2981.80679,0.12437
2979.87806,0.12442
2977.94934,0.12448
2976.02062,0.12459
2974.09189,0.12480
2972.16317,0.12503
2970.23444,0.12523
2968.30572,0.12541
2966.37700,0.12559
2964.44827,0.12586
2962.51955,0.12604
2960.59083,0.12590
2958.66210,0.12556
2956.73338,0.12507
2954.80466,0.12442
2952.87593,0.12375
2950.94721,0.12316
2949.01848,0.12275
2947.08976,0.12267
2945.16104,0.12293
2943.23231,0.12344
2941.30359,0.12419
2939.37487,0.12519
2937.44614,0.12634
2935.51742,0.12743
2933.58869,0.12847
2931.65997,0.12950
2929.73125,0.13028
2927.80252,0.13059
2925.87380,0.13044
2923.94508,0.12970
2922.01635,0.12816
2920.08763,0.12587
2918.15891,0.12325
2916.23018,0.12058
2914.30146,0.11790
2912.37273,0.11528
2910.44401,0.11283
2908.51529,0.11064
2906.58656,0.10870
2904.65784,0.10702
2902.72912,0.10551
2900.80039,0.10406
2898.87167,0.10260
2896.94295,0.10110
2895.01422,0.09966
2893.08550,0.09846
2891.15677,0.09738
2889.22805,0.09627
2887.29933,0.09520
2885.37060,0.09424
2883.44188,0.09333
2881.51316,0.09257
2879.58443,0.09209
2877.65571,0.09176
2875.72698,0.09140
2873.79826,0.09098
2871.86954,0.09035
2869.94081,0.08953
2868.01209,0.08886
2866.08337,0.08857
2864.15464,0.08858
2862.22592,0.08883
2860.29720,0.08928
2858.36847,0.08998
2856.43975,0.09074
2854.51102,0.09112
2852.58230,0.09061
2850.65358,0.08890
2848.72485,0.08612
2846.79613,0.08279
2844.86741,0.07940
2842.93868,0.07631
2841.00996,0.07379
2839.08124,0.07180
2837.15251,0.07017
2835.22379,0.06883
2833.29506,0.06763
2831.36634,0.06647
2829.43762,0.06538
2827.50889,0.06440
2825.58017,0.06354
2823.65145,0.06274
2821.72272,0.06196
2819.79400,0.06124
2817.86527,0.06055
2815.93655,0.05984
2814.00783,0.05908
2812.07910,0.05829
2810.15038,0.05752
2808.22166,0.05685
2806.29293,0.05632
2804.36421,0.05586
2802.43549,0.05535
2800.50676,0.05474
2798.57804,0.05411
2796.64931,0.05348
2794.72059,0.05284
2792.79187,0.05227
2790.86314,0.05173
2788.93442,0.05113
2787.00570,0.05049
2785.07697,0.04984
2783.14825,0.04918
2781.21953,0.04863
2779.29080,0.04821
2777.36208,0.04778
2775.43335,0.04726
2773.50463,0.04667
2771.57591,0.04607
2769.64718,0.04554
2767.71846,0.04511
2765.78974,0.04468
2763.86101,0.04419
2761.93229,0.04368
2760.00356,0.04319
2758.07484,0.04270
2756.14612,0.04216
2754.21739,0.04161
2752.28867,0.04115
2750.35995,0.04076
2748.43122,0.04028
2746.50250,0.03970
2744.57378,0.03926
2742.64505,0.03900
2740.71633,0.03867
2738.78760,0.03816
2736.85888,0.03764
2734.93016,0.03719
2733.00143,0.03673
2731.07271,0.03629
2729.14399,0.03595
2727.21526,0.03558
2725.28654,0.03509
2723.35782,0.03457
2721.42909,0.03419
2719.50037,0.03391
2717.57164,0.03354
2715.64292,0.03308
2713.71420,0.03266
2711.78547,0.03229
2709.85675,0.03186
2707.92803,0.03136
2705.99930,0.03092
2704.07058,0.03059
2702.14185,0.03027
2700.21313,0.02987
2698.28441,0.02944
2696.35568,0.02904
2694.42696,0.02865
2692.49824,0.02827
2690.56951,0.02792
2688.64079,0.02757
2686.71207,0.02719
2684.78334,0.02689
2682.85462,0.02663
2680.92589,0.02631
2678.99717,0.02593
2677.06845,0.02555
2675.13972,0.02516
2673.21100,0.02477
2671.28228,0.02444
2669.35355,0.02417
2667.42483,0.02383
2665.49611,0.02340
2663.56738,0.02305
2661.63866,0.02276
2659.70993,0.02240
2657.78121,0.02204
2655.85249,0.02176
2653.92376,0.02152
2651.99504,0.02124
2650.06632,0.02089
2648.13759,0.02051
2646.20887,0.02022
2644.28014,0.02001
2642.35142,0.01975
2640.42270,0.01938
2638.49397,0.01904
2636.56525,0.01876
2634.63653,0.01848
2632.70780,0.01820
2630.77908,0.01795
2628.85036,0.01768
2626.92163,0.01736
2624.99291,0.01702
2623.06418,0.01669
2621.13546,0.01643
2619.20674,0.01623
2617.27801,0.01597
2615.34929,0.01567
2613.42057,0.01543
2611.49184,0.01521
2609.56312,0.01497
2607.63440,0.01472
2605.70567,0.01444
2603.77695,0.01418
2601.84822,0.01398
2599.91950,0.01375
2597.99078,0.01352
2596.06205,0.01331
2594.13333,0.01306
2592.20461,0.01280
2590.27588,0.01256
2588.34716,0.01231
2586.41843,0.01203
2584.48971,0.01172
2582.56099,0.01142
2580.63226,0.01122
2578.70354,0.01110
2576.77482,0.01098
2574.84609,0.01079
2572.91737,0.01060
2570.98865,0.01043
2569.05992,0.01028
2567.13120,0.01012
2565.20247,0.00993
2563.27375,0.00973
2561.34503,0.00955
2559.41630,0.00940
2557.48758,0.00922
2555.55886,0.00903
2553.63013,0.00882
2551.70141,0.00859
2549.77269,0.00842
2547.84396,0.00833
2545.91524,0.00817
2543.98651,0.00793
2542.05779,0.00774
2540.12907,0.00763
2538.20034,0.00751
2536.27162,0.00739
2534.34290,0.00726
2532.41417,0.00711
2530.48545,0.00697
2528.55673,0.00683
2526.62800,0.00662
2524.69928,0.00640
2522.77055,0.00628
2520.84183,0.00621
2518.91311,0.00614
2516.98438,0.00603
2515.05566,0.00591
2513.12694,0.00577
2511.19821,0.00561
2509.26949,0.00546
2507.34076,0.00533
2505.41204,0.00516
2503.48332,0.00499
2501.55459,0.00489
2499.62587,0.00476
2497.69715,0.00456
2495.76842,0.00445
2493.83970,0.00443
2491.91098,0.00435
2489.98225,0.00418
2488.05353,0.00401
2486.12480,0.00395
2484.19608,0.00396
2482.26736,0.00392
2480.33863,0.00378
2478.40991,0.00366
2476.48119,0.00362
2474.55246,0.00352
2472.62374,0.00334
2470.69502,0.00320
2468.76629,0.00314
2466.83757,0.00315
2464.90884,0.00312
2462.98012,0.00298
2461.05140,0.00281
2459.12267,0.00269
2457.19395,0.00260
2455.26523,0.00253
2453.33650,0.00251
2451.40778,0.00247
2449.47905,0.00234
2447.55033,0.00222
2445.62161,0.00219
2443.69288,0.00215
2441.76416,0.00204
2439.83544,0.00191
2437.90671,0.00182
2435.97799,0.00178
2434.04927,0.00173
2432.12054,0.00163
2430.19182,0.00158
2428.26309,0.00160
2426.33437,0.00156
2424.40565,0.00145
2422.47692,0.00133
2420.54820,0.00125
2418.61948,0.00120
2416.69075,0.00120
2414.76203,0.00119
2412.83331,0.00117
2410.90458,0.00113
2408.97586,0.00106
2407.04713,0.00094
2405.11841,0.00083
2403.18969,0.00076
2401.26096,0.00068
2399.33224,0.00055
2397.40352,0.00045
2395.47479,0.00044
2393.54607,0.00050
2391.61734,0.00052
2389.68862,0.00048
2387.75990,0.00043
2385.83117,0.00044
2383.90245,0.00054
2381.97373,0.00067
2380.04500,0.00076
2378.11628,0.00079
2376.18756,0.00080
2374.25883,0.00076
2372.33011,0.00069
2370.40138,0.00068
2368.47266,0.00073
2366.54394,0.00083
2364.61521,0.00085
2362.68649,0.00073
2360.75777,0.00054
2358.82904,0.00033
2356.90032,0.00017
2354.97160,0.00012
2353.04287,0.00033
2351.11415,0.00084
2349.18542,0.00119
2347.25670,0.00091
2345.32798,0.00034
2343.39925,0.00011
2341.47053,0.00027
2339.54181,0.00056
2337.61308,0.00072
2335.68436,0.00062
2333.75563,0.00043
2331.82691,0.00034
2329.89819,0.00037
2327.96946,0.00047
2326.04074,0.00049
2324.11202,0.00035
2322.18329,0.00016
2320.25457,0.00010
2318.32585,0.00016
2316.39712,0.00020
2314.46840,0.00014
2312.53967,0.00004
2310.61095,0.00000
2308.68223,0.00002
2306.75350,0.00003
2304.82478,-0.00000
2302.89606,-0.00004
2300.96733,-0.00006
2299.03861,-0.00004
2297.10989,0.00001
2295.18116,0.00004
2293.25244,-0.00001
2291.32371,-0.00011
2289.39499,-0.00016
2287.46627,-0.00013
2285.53754,-0.00006
2283.60882,-0.00003
2281.68010,-0.00004
2279.75137,-0.00008
2277.82265,-0.00014
2275.89392,-0.00020
2273.96520,-0.00024
2272.03648,-0.00026
2270.10775,-0.00027
2268.17903,-0.00024
2266.25031,-0.00017
2264.32158,-0.00006
2262.39286,0.00000
2260.46414,-0.00003
2258.53541,-0.00007
2256.60669,-0.00006
2254.67796,-0.00005
2252.74924,-0.00009
2250.82052,-0.00017
2248.89179,-0.00027
2246.96307,-0.00031
2245.03435,-0.00025
2243.10562,-0.00020
2241.17690,-0.00021
2239.24818,-0.00024
2237.31945,-0.00027
2235.39073,-0.00028
2233.46200,-0.00027
2231.53328,-0.00028
2229.60456,-0.00028
2227.67583,-0.00023
2225.74711,-0.00019
2223.81839,-0.00018
2221.88966,-0.00020
2219.96094,-0.00015
2218.03221,-0.00005
2216.10349,0.00003
2214.17477,0.00006
2212.24604,0.00009
2210.31732,0.00009
2208.38860,0.00004
2206.45987,0.00000
2204.53115,0.00002
2202.60243,0.00012
2200.67370,0.00022
2198.74498,0.00026
2196.81625,0.00018
2194.88753,0.00006
2192.95881,0.00003
2191.03008,0.00007
2189.10136,0.00007
2187.17264,0.00005
2185.24391,0.00009
2183.31519,0.00016
2181.38647,0.00021
2179.45774,0.00022
2177.52902,0.00024
2175.60029,0.00024
2173.67157,0.00023
2171.74285,0.00023
2169.81412,0.00022
2167.88540,0.00019
2165.95668,0.00023
2164.02795,0.00030
2162.09923,0.00032
2160.17050,0.00030
2158.24178,0.00025
2156.31306,0.00024
2154.38433,0.00027
2152.45561,0.00033
2150.52689,0.00035
2148.59816,0.00036
2146.66944,0.00036
2144.74072,0.00039
2142.81199,0.00045
2140.88327,0.00050
2138.95454,0.00045
2137.02582,0.00037
2135.09710,0.00032
2133.16837,0.00030
2131.23965,0.00030
2129.31093,0.00032
2127.38220,0.00036
2125.45348,0.00035
2123.52476,0.00026
2121.59603,0.00015
2119.66731,0.00014
2117.73858,0.00020
2115.80986,0.00021
2113.88114,0.00017
2111.95241,0.00011
2110.02369,0.00007
2108.09497,0.00004
2106.16624,0.00001
2104.23752,-0.00003
2102.30880,-0.00003
2100.38007,0.00000
2098.45135,0.00004
2096.52262,0.00004
2094.59390,0.00000
2092.66518,-0.00015
2090.73645,-0.00026
2088.80773,-0.00032
2086.87901,-0.00042
2084.95028,-0.00055
2083.02156,-0.00062
2081.09283,-0.00066
2079.16411,-0.00067
2077.23539,-0.00069
2075.30666,-0.00075
2073.37794,-0.00079
2071.44922,-0.00080
2069.52049,-0.00079
2067.59177,-0.00079
2065.66305,-0.00081
2063.73432,-0.00083
2061.80560,-0.00079
2059.87687,-0.00074
2057.94815,-0.00068
2056.01943,-0.00061
2054.09070,-0.00051
2052.16198,-0.00042
2050.23326,-0.00033
2048.30453,-0.00023
2046.37581,-0.00011
2044.44709,0.00006
2042.51836,0.00026
2040.58964,0.00042
2038.66091,0.00055
2036.73219,0.00072
2034.80347,0.00097
2032.87474,0.00126
2030.94602,0.00154
2029.01730,0.00176
2027.08857,0.00191
2025.15985,0.00201
2023.23112,0.00207
2021.30240,0.00221
2019.37368,0.00244
2017.44495,0.00265
2015.51623,0.00278
2013.58751,0.00289
2011.65878,0.00303
2009.73006,0.00315
2007.80134,0.00323
2005.87261,0.00329
2003.94389,0.00333
2002.01516,0.00335
2000.08644,0.00341
1998.15772,0.00353
1996.22899,0.00361
1994.30027,0.00363
1992.37155,0.00360
1990.44282,0.00359
1988.51410,0.00359
1986.58538,0.00355
1984.65665,0.00340
1982.72793,0.00322
1980.79920,0.00311
1978.87048,0.00306
1976.94176,0.00300
1975.01303,0.00296
1973.08431,0.00295
1971.15559,0.00289
1969.22686,0.00277
1967.29814,0.00259
1965.36941,0.00232
1963.44069,0.00203
1961.51197,0.00182
1959.58324,0.00169
1957.65452,0.00161
1955.72580,0.00157
1953.79707,0.00153
1951.86835,0.00141
1949.93963,0.00125
1948.01090,0.00111
1946.08218,0.00102
1944.15345,0.00096
1942.22473,0.00084
1940.29601,0.00069
1938.36728,0.00060
1936.43856,0.00057
1934.50984,0.00056
1932.58111,0.00053
1930.65239,0.00048
1928.72367,0.00046
1926.79494,0.00052
1924.86622,0.00065
1922.93749,0.00078
1921.00877,0.00095
1919.08005,0.00123
1917.15132,0.00152
1915.22260,0.00174
1913.29388,0.00199
1911.36515,0.00234
1909.43643,0.00276
1907.50770,0.00320
1905.57898,0.00367
1903.65026,0.00418
1901.72153,0.00469
1899.79281,0.00519
1897.86409,0.00566
1895.93536,0.00613
1894.00664,0.00659
1892.07792,0.00701
1890.14919,0.00739
1888.22047,0.00778
1886.29174,0.00818
1884.36302,0.00849
1882.43430,0.00871
1880.50557,0.00890
1878.57685,0.00910
1876.64813,0.00924
1874.71940,0.00928
1872.79068,0.00927
1870.86196,0.00919
1868.93323,0.00899
1867.00451,0.00866
1865.07578,0.00827
1863.14706,0.00787
1861.21834,0.00743
1859.28961,0.00691
1857.36089,0.00634
1855.43217,0.00580
1853.50344,0.00529
1851.57472,0.00480
1849.64599,0.00432
1847.71727,0.00388
1845.78855,0.00345
1843.85982,0.00297
1841.93110,0.00255
1840.00238,0.00224
1838.07365,0.00195
1836.14493,0.00160
1834.21621,0.00131
1832.28748,0.00111
1830.35876,0.00086
1828.43003,0.00056
1826.50131,0.00034
1824.57259,0.00022
1822.64386,0.00013
1820.71514,0.00006
1818.78642,0.00002
1816.85769,-0.00001
1814.92897,0.00000
1813.00025,-0.00010
1811.07152,-0.00023
1809.14280,-0.00034
1807.21407,-0.00036
1805.28535,-0.00029
1803.35663,-0.00018
1801.42790,-0.00010
1799.49918,-0.00005
1797.57046,0.00002
1795.64173,0.00016
1793.71301,0.00038
1791.78428,0.00063
1789.85556,0.00088
1787.92684,0.00115
1785.99811,0.00147
1784.06939,0.00183
1782.14067,0.00225
1780.21194,0.00268
1778.28322,0.00309
1776.35450,0.00354
1774.42577,0.00406
1772.49705,0.00457
1770.56832,0.00497
1768.63960,0.00530
1766.71088,0.00567
1764.78215,0.00609
1762.85343,0.00654
1760.92471,0.00698
1758.99598,0.00743
1757.06726,0.00787
1755.13854,0.00828
1753.20981,0.00876
1751.28109,0.00939
1749.35236,0.01007
1747.42364,0.01076
1745.49492,0.01152
1743.56619,0.01235
1741.63747,0.01323
1739.70875,0.01421
1737.78002,0.01526
1735.85130,0.01643
1733.92257,0.01782
1731.99385,0.01925
1730.06513,0.02055
1728.13640,0.02179
1726.20768,0.02303
1724.27896,0.02432
1722.35023,0.02564
1720.42151,0.02699
1718.49279,0.02847
1716.56406,0.03007
1714.63534,0.03161
1712.70661,0.03307
1710.77789,0.03464
1708.84917,0.03635
1706.92044,0.03817
1704.99172,0.04004
1703.06300,0.04194
1701.13427,0.04420
1699.20555,0.04694
1697.27683,0.04978
1695.34810,0.05258
1693.41938,0.05515
1691.49065,0.05759
1689.56193,0.06026
1687.63321,0.06307
1685.70448,0.06623
1683.77576,0.06999
1681.84704,0.07342
1679.91831,0.07608
1677.98959,0.07858
1676.06087,0.08146
1674.13214,0.08458
1672.20342,0.08753
1670.27469,0.09052
1668.34597,0.09360
1666.41725,0.09625
1664.48852,0.09857
1662.55980,0.10089
1660.63108,0.10303
1658.70235,0.10478
1656.77363,0.10632
1654.84490,0.10810
1652.91618,0.11020
1650.98746,0.11174
1649.05873,0.11259
1647.13001,0.11334
1645.20129,0.11419
1643.27256,0.11502
1641.34384,0.11580
1639.41512,0.11644
1637.48639,0.11682
1635.55767,0.11688
1633.62894,0.11675
1631.70022,0.11649
1629.77150,0.11599
1627.84277,0.11514
1625.91405,0.11399
1623.98533,0.11255
1622.05660,0.11090
1620.12788,0.10923
1618.19916,0.10724
1616.27043,0.10458
1614.34171,0.10186
1612.41298,0.09948
1610.48426,0.09704
1608.55554,0.09433
1606.62681,0.09157
1604.69809,0.08894
1602.76937,0.08639
1600.84064,0.08391
1598.91192,0.08154
1596.98319,0.07923
1595.05447,0.07696
1593.12575,0.07482
1591.19702,0.07285
1589.26830,0.07097
1587.33958,0.06911
1585.41085,0.06729
1583.48213,0.06557
1581.55341,0.06405
1579.62468,0.06270
1577.69596,0.06129
1575.76723,0.05969
1573.83851,0.05828
1571.90979,0.05712
1569.98106,0.05588
1568.05234,0.05463
1566.12362,0.05367
1564.19489,0.05299
1562.26617,0.05254
1560.33745,0.05188
1558.40872,0.05050
1556.48000,0.04910
1554.55127,0.04827
1552.62255,0.04761
1550.69383,0.04673
1548.76510,0.04569
1546.83638,0.04473
1544.90766,0.04379
1542.97893,0.04253
1541.05021,0.04065
1539.12148,0.03858
1537.19276,0.03719
1535.26404,0.03610
1533.33531,0.03463
1531.40659,0.03301
1529.47787,0.03165
1527.54914,0.03033
1525.62042,0.02884
1523.69170,0.02721
1521.76297,0.02541
1519.83425,0.02365
1517.90552,0.02217
1515.97680,0.02080
1514.04808,0.01950
1512.11935,0.01835
1510.19063,0.01722
1508.26191,0.01562
1506.33318,0.01328
1504.40446,0.01117
1502.47574,0.00969
1500.54701,0.00828
1498.61829,0.00663
1496.68956,0.00495
1494.76084,0.00367
1492.83212,0.00281
1490.90339,0.00199
1488.97467,0.00110
1487.04595,0.00051
1485.11722,0.00039
1483.18850,0.00054
1481.25977,0.00082
1479.33105,0.00126
1477.40233,0.00198
1475.47360,0.00314
1473.54488,0.00490
1471.61616,0.00706
1469.68743,0.00902
1467.75871,0.01058
1465.82999,0.01182
1463.90126,0.01265
1461.97254,0.01313
1460.04381,0.01359
1458.11509,0.01424
1456.18637,0.01481
1454.25764,0.01500
1452.32892,0.01496
1450.40020,0.01489
1448.47147,0.01486
1446.54275,0.01490
1444.61403,0.01505
1442.68530,0.01528
1440.75658,0.01555
1438.82785,0.01588
1436.89913,0.01624
1434.97041,0.01661
1433.04168,0.01697
1431.11296,0.01737
1429.18424,0.01781
1427.25551,0.01826
1425.32679,0.01876
1423.39806,0.01937
1421.46934,0.02012
1419.54062,0.02101
1417.61189,0.02189
1415.68317,0.02263
1413.75445,0.02338
1411.82572,0.02432
1409.89700,0.02539
1407.96828,0.02645
1406.03955,0.02744
1404.11083,0.02826
1402.18210,0.02869
1400.25338,0.02851
1398.32466,0.02764
1396.39593,0.02611
1394.46721,0.02412
1392.53849,0.02215
1390.60976,0.02055
1388.68104,0.01930
1386.75232,0.01828
1384.82359,0.01737
1382.89487,0.01635
1380.96614,0.01519
1379.03742,0.01396
1377.10870,0.01270
1375.17997,0.01132
1373.25125,0.00986
1371.32253,0.00853
1369.39380,0.00742
1367.46508,0.00646
1365.53635,0.00559
1363.60763,0.00462
1361.67891,0.00357
1359.75018,0.00268
1357.82146,0.00200
1355.89274,0.00142
1353.96401,0.00086
1352.03529,0.00038
1350.10657,0.00000
1348.17784,-0.00030
1346.24912,-0.00055
1344.32039,-0.00079
1342.39167,-0.00107
1340.46295,-0.00140
1338.53422,-0.00174
1336.60550,-0.00202
1334.67678,-0.00218
1332.74805,-0.00218
1330.81933,-0.00214
1328.89061,-0.00212
1326.96188,-0.00205
1325.03316,-0.00189
1323.10443,-0.00166
1321.17571,-0.00137
1319.24699,-0.00097
1317.31826,-0.00045
1315.38954,0.00005
1313.46082,0.00053
1311.53209,0.00103
1309.60337,0.00159
1307.67464,0.00233
1305.74592,0.00330
1303.81720,0.00444
1301.88847,0.00567
1299.95975,0.00685
1298.03103,0.00799
1296.10230,0.00927
1294.17358,0.01067
1292.24486,0.01217
1290.31613,0.01385
1288.38741,0.01579
1286.45868,0.01796
1284.52996,0.02030
1282.60124,0.02283
1280.67251,0.02565
1278.74379,0.02887
1276.81507,0.03252
1274.88634,0.03659
1272.95762,0.04104
1271.02890,0.04590
1269.10017,0.05135
1267.17145,0.05750
1265.24272,0.06452
1263.31400,0.07253
1261.38528,0.08156
1259.45655,0.09143
1257.52783,0.10196
1255.59911,0.11303
1253.67038,0.12452
1251.74166,0.13617
1249.81294,0.14765
1247.88421,0.15857
1245.95549,0.16867
1244.02676,0.17790
1242.09804,0.18630
1240.16932,0.19402
1238.24059,0.20113
1236.31187,0.20751
1234.38315,0.21315
1232.45442,0.21818
1230.52570,0.22279
1228.59697,0.22718
1226.66825,0.23146
1224.73953,0.23557
1222.81080,0.23933
1220.88208,0.24270
1218.95336,0.24585
1217.02463,0.24901
1215.09591,0.25211
1213.16719,0.25493
1211.23846,0.25768
1209.30974,0.26057
1207.38101,0.26338
1205.45229,0.26597
1203.52357,0.26855
1201.59484,0.27121
1199.66612,0.27392
1197.73740,0.27674
1195.80867,0.27956
1193.87995,0.28215
1191.95123,0.28449
1190.02250,0.28675
1188.09378,0.28906
1186.16505,0.29135
1184.23633,0.29356
1182.30761,0.29585
1180.37888,0.29819
1178.45016,0.30027
1176.52144,0.30225
1174.59271,0.30456
1172.66399,0.30700
1170.73526,0.30911
1168.80654,0.31092
1166.87782,0.31270
1164.94909,0.31469
1163.02037,0.31690
1161.09165,0.31908
1159.16292,0.32117
1157.23420,0.32322
1155.30548,0.32519
1153.37675,0.32714
1151.44803,0.32909
1149.51930,0.33102
1147.59058,0.33296
1145.66186,0.33490
1143.73313,0.33698
1141.80441,0.33931
1139.87569,0.34169
1137.94696,0.34401
1136.01824,0.34653
1134.08952,0.34941
1132.16079,0.35247
1130.23207,0.35556
1128.30334,0.35870
1126.37462,0.36195
1124.44590,0.36543
1122.51717,0.36933
1120.58845,0.37405
1118.65973,0.37959
1116.73100,0.38558
1114.80228,0.39175
1112.87355,0.39825
1110.94483,0.40537
1109.01611,0.41278
1107.08738,0.41976
1105.15866,0.42604
1103.22994,0.43190
1101.30121,0.43728
1099.37249,0.44154
1097.44377,0.44456
1095.51504,0.44682
1093.58632,0.44858
1091.65759,0.44963
1089.72887,0.44950
1087.80015,0.44799
1085.87142,0.44588
1083.94270,0.44415
1082.01398,0.44264
1080.08525,0.44064
1078.15653,0.43807
1076.22781,0.43518
1074.29908,0.43175
1072.37036,0.42755
1070.44163,0.42289
1068.51291,0.41823
1066.58419,0.41347
1064.65546,0.40830
1062.72674,0.40293
1060.79802,0.39729
1058.86929,0.39103
1056.94057,0.38440
1055.01184,0.37787
1053.08312,0.37149
1051.15440,0.36493
1049.22567,0.35798
1047.29695,0.35064
1045.36823,0.34294
1043.43950,0.33513
1041.51078,0.32756
1039.58206,0.32018
1037.65333,0.31272
1035.72461,0.30521
1033.79588,0.29778
1031.86716,0.29046
1029.93844,0.28310
1028.00971,0.27568
1026.08099,0.26849
1024.15227,0.26189
1022.22354,0.25594
1020.29482,0.25017
1018.36610,0.24425
1016.43737,0.23838
1014.50865,0.23304
1012.57992,0.22827
1010.65120,0.22372
1008.72248,0.21933
1006.79375,0.21504
1004.86503,0.21049
1002.93631,0.20578
1001.00758,0.20134
999.07886,0.19720
997.15013,0.19316
995.22141,0.18933
993.29269,0.18576
991.36396,0.18230
989.43524,0.17906
987.50652,0.17639
985.57779,0.17415
983.64907,0.17175
981.72035,0.16924
979.79162,0.16717
977.86290,0.16560
975.93417,0.16428
974.00545,0.16304
972.07673,0.16180
970.14800,0.16063
968.21928,0.15963
966.29056,0.15865
964.36183,0.15761
962.43311,0.15672
960.50439,0.15601
958.57566,0.15517
956.64694,0.15411
954.71821,0.15303
952.78949,0.15188
950.86077,0.15055
948.93204,0.14911
947.00332,0.14768
945.07460,0.14606
943.14587,0.14409
941.21715,0.14196
939.28842,0.13981
937.35970,0.13746
935.43098,0.13481
933.50225,0.13223
931.57353,0.12998
929.64481,0.12761
927.71608,0.12480
925.78736,0.12175
923.85864,0.11868
921.92991,0.11565
920.00119,0.11260
918.07246,0.10928
916.14374,0.10571
914.21502,0.10209
912.28629,0.09850
910.35757,0.09498
908.42885,0.09156
906.50012,0.08805
904.57140,0.08425
902.64268,0.08041
900.71395,0.07690
898.78523,0.07348
896.85650,0.06978
894.92778,0.06605
892.99906,0.06272
891.07033,0.05976
889.14161,0.05691
887.21289,0.05409
885.28416,0.05121
883.35544,0.04816
881.42671,0.04515
879.49799,0.04243
877.56927,0.04002
875.64054,0.03775
873.71182,0.03557
871.78310,0.03357
869.85437,0.03167
867.92565,0.02978
865.99693,0.02798
864.06820,0.02648
862.13948,0.02519
860.21075,0.02374
858.28203,0.02213
856.35331,0.02082
854.42458,0.02000
852.49586,0.01957
850.56714,0.01933
848.63841,0.01921
846.70969,0.01947
844.78097,0.02022
842.85224,0.02114
840.92352,0.02247
838.99479,0.02475
837.06607,0.02751
835.13735,0.03014
833.20862,0.03298
831.27990,0.03627
829.35118,0.03950
827.42245,0.04228
825.49373,0.04494
823.56501,0.04791
821.63628,0.05129
819.70756,0.05498
817.77883,0.05859
815.85011,0.06198
813.92139,0.06542
811.99266,0.06870
810.06394,0.07164
808.13522,0.07474
806.20649,0.07808
804.27777,0.08127
802.34904,0.08403
800.42032,0.08595
798.49160,0.08673
796.56287,0.08681
794.63415,0.08670
792.70543,0.08619
790.77670,0.08475
788.84798,0.08245
786.91926,0.07987
784.99053,0.07719
783.06181,0.07433
781.13308,0.07133
779.20436,0.06803
777.27564,0.06422
775.34691,0.06007
773.41819,0.05607
771.48947,0.05269
769.56074,0.05009
767.63202,0.04812
765.70330,0.04683
763.77457,0.04625
761.84585,0.04583
759.91712,0.04502
757.98840,0.04407
756.05968,0.04345
754.13095,0.04315
752.20223,0.04290
750.27351,0.04262
748.34478,0.04235
746.41606,0.04224
744.48733,0.04227
742.55861,0.04204
740.62989,0.04133
738.70116,0.04056
736.77244,0.04008
734.84372,0.03994
732.91499,0.04025
730.98627,0.04084
729.05755,0.04124
727.12882,0.04132
725.20010,0.04144
723.27137,0.04182
721.34265,0.04205
719.41393,0.04196
717.48520,0.04174
715.55648,0.04151
713.62776,0.04123
711.69903,0.04096
709.77031,0.04079
707.84159,0.04081
705.91286,0.04106
703.98414,0.04147
702.05541,0.04205
700.12669,0.04284
698.19797,0.04344
696.26924,0.04360
694.34052,0.04358
692.41180,0.04362
690.48307,0.04379
688.55435,0.04398
686.62562,0.04393
684.69690,0.04371
682.76818,0.04364
680.83945,0.04377
678.91073,0.04388
676.98201,0.04372
675.05328,0.04359
673.12456,0.04397
671.19584,0.04399
669.26711,0.04299
667.33839,0.04296
665.40966,0.04458
663.48094,0.04569
661.55222,0.04575
659.62349,0.04576
657.69477,0.04626
655.76605,0.04737
653.83732,0.04907
651.90860,0.05108
649.97988,0.05314
648.05115,0.05526
646.12243,0.05744
644.19370,0.05963
642.26498,0.06173
640.33626,0.06349
638.40753,0.06454
636.47881,0.06503
634.55009,0.06581
632.62136,0.06740
630.69264,0.06929
628.76391,0.07089
626.83519,0.07219
624.90647,0.07324
622.97774,0.07395
621.04902,0.07478
619.12030,0.07595
617.19157,0.07698
615.26285,0.07760
613.33413,0.07825
611.40540,0.07954
609.47668,0.08158
607.54795,0.08362
605.61923,0.08501
603.69051,0.08588
601.76178,0.08694
599.83306,0.08885
597.90434,0.09120
595.97561,0.09281
594.04689,0.09373
592.11817,0.09530
590.18944,0.09775
588.26072,0.09971
586.33199,0.10043
584.40327,0.10058
582.47455,0.10071
580.54582,0.10079
578.61710,0.10116
576.68838,0.10197
574.75965,0.10260
572.83093,0.10258
570.90220,0.10238
568.97348,0.10263
567.04476,0.10287
565.11603,0.10238
563.18731,0.10164
561.25859,0.10142
559.32986,0.10144
557.40114,0.10124
555.47242,0.10122
553.54369,0.10205
551.61497,0.10379
549.68624,0.10593
547.75752,0.10801
545.82880,0.10955
543.90007,0.11001
541.97135,0.10932
540.04263,0.10797
538.11390,0.10680
536.18518,0.10588
534.25646,0.10441
532.32773,0.10286
530.39901,0.10247
528.47028,0.10323
526.54156,0.10448
524.61284,0.10587
522.68411,0.10686
520.75539,0.10730
518.82667,0.10798
516.89794,0.10953
514.96922,0.11163
513.04049,0.11378
511.11177,0.11579
509.18305,0.11847
507.25432,0.12311
505.32560,0.12875
503.39688,0.13391
501.46815,0.13959
499.53943,0.14625
497.61071,0.15265
495.68198,0.15868
493.75326,0.16527
491.82453,0.17253
489.89581,0.18020
487.96709,0.18887
486.03836,0.19846
484.10964,0.20675
482.18092,0.21301
480.25219,0.21976
478.32347,0.22707
476.39475,0.23247
474.46602,0.23652
472.53730,0.24154
470.60857,0.24759
468.67985,0.25310
466.75113,0.25601
464.82240,0.25410
462.89368,0.24829
460.96496,0.24341
459.03623,0.24119
457.10751,0.23847
455.17878,0.23379
453.25006,0.22796
451.32134,0.22129
449.39261,0.21396
447.46389,0.20593
445.53517,0.19771
443.60644,0.19062
441.67772,0.18486
439.74900,0.17989
437.82027,0.17569
435.89155,0.17219
433.96282,0.16895
432.03410,0.16488
430.10538,0.15924
428.17665,0.15324
426.24793,0.14773
424.31921,0.14187
422.39048,0.13521
420.46176,0.12738
418.53304,0.11870
416.60431,0.11198
414.67559,0.10718
412.74686,0.10248
410.81814,0.09751
408.88942,0.09165
406.96069,0.08601
405.03197,0.08324
403.10325,0.08233
401.17452,0.08052
399.24580,0.07702
397.31708,0.07238
395.38835,0.06866
393.45963,0.06625
391.53090,0.06269
389.60218,0.05826
387.67346,0.05849
385.74473,0.06445
383.81601,0.06272
381.88729,0.04598
379.95856,0.02639
378.02984,0.01061
376.10111,0.00039
374.17239,0.00000
372.24367,0.00272
370.31494,0.00347
368.38622,0.00000
