3996.31543,-0.00001
3994.38671,0.00000
3992.45799,0.00006
3990.52926,0.00027
3988.60054,0.00044
3986.67182,0.00040
3984.74309,0.00027
3982.81437,0.00023
3980.88564,0.00030
3978.95692,0.00043
3977.02820,0.00056
3975.09947,0.00063
3973.17075,0.00055
3971.24203,0.00039
3969.31330,0.00037
3967.38458,0.00049
3965.45586,0.00052
3963.52713,0.00040
3961.59841,0.00030
3959.66968,0.00036
3957.74096,0.00053
3955.81224,0.00065
3953.88351,0.00069
3951.95479,0.00069
3950.02607,0.00066
3948.09734,0.00066
3946.16862,0.00081
3944.23990,0.00095
3942.31117,0.00091
3940.38245,0.00080
3938.45372,0.00079
3936.52500,0.00084
3934.59628,0.00083
3932.66755,0.00076
3930.73883,0.00080
3928.81011,0.00095
3926.88138,0.00100
3924.95266,0.00091
3923.02393,0.00089
3921.09521,0.00094
3919.16649,0.00089
3917.23776,0.00073
3915.30904,0.00052
3913.38032,0.00038
3911.45159,0.00039
3909.52287,0.00054
3907.59415,0.00077
3905.66542,0.00103
3903.73670,0.00118
3901.80797,0.00115
3899.87925,0.00107
3897.95053,0.00093
3896.02180,0.00072
3894.09308,0.00054
3892.16436,0.00035
3890.23563,0.00011
3888.30691,0.00000
3886.37819,0.00015
3884.44946,0.00044
3882.52074,0.00056
3880.59201,0.00047
3878.66329,0.00040
3876.73457,0.00056
3874.80584,0.00086
3872.87712,0.00106
3870.94840,0.00094
3869.01967,0.00063
3867.09095,0.00053
3865.16222,0.00066
3863.23350,0.00070
3861.30478,0.00065
3859.37605,0.00071
3857.44733,0.00080
3855.51861,0.00075
3853.58988,0.00054
3851.66116,0.00028
3849.73244,0.00011
3847.80371,0.00000
3845.87499,0.00000
3843.94626,0.00020
3842.01754,0.00051
3840.08882,0.00064
3838.16009,0.00045
3836.23137,0.00020
3834.30265,0.00015
3832.37392,0.00025
3830.44520,0.00046
3828.51648,0.00072
3826.58775,0.00097
3824.65903,0.00112
3822.73030,0.00111
3820.80158,0.00088
3818.87286,0.00063
3816.94413,0.00052
3815.01541,0.00053
3813.08669,0.00067
3811.15796,0.00092
3809.22924,0.00117
3807.30052,0.00132
3805.37179,0.00133
3803.44307,0.00140
3801.51434,0.00159
3799.58562,0.00173
3797.65690,0.00176
3795.72817,0.00178
3793.79945,0.00192
3791.87073,0.00215
3789.94200,0.00238
3788.01328,0.00258
3786.08455,0.00275
3784.15583,0.00291
3782.22711,0.00312
3780.29838,0.00335
3778.36966,0.00352
3776.44094,0.00370
3774.51221,0.00394
3772.58349,0.00419
3770.65477,0.00441
3768.72604,0.00462
3766.79732,0.00484
3764.86859,0.00510
3762.93987,0.00539
3761.01115,0.00566
3759.08242,0.00587
3757.15370,0.00618
3755.22498,0.00676
3753.29625,0.00741
3751.36753,0.00787
3749.43881,0.00830
3747.51008,0.00902
3745.58136,0.01002
3743.65263,0.01104
3741.72391,0.01193
3739.79519,0.01281
3737.86646,0.01383
3735.93774,0.01495
3734.00902,0.01597
3732.08029,0.01690
3730.15157,0.01784
3728.22284,0.01891
3726.29412,0.02033
3724.36540,0.02211
3722.43667,0.02411
3720.50795,0.02623
3718.57923,0.02851
3716.65050,0.03087
3714.72178,0.03334
3712.79306,0.03639
3710.86433,0.04001
3708.93561,0.04325
3707.00688,0.04578
3705.07816,0.04831
3703.14944,0.05153
3701.22071,0.05536
3699.29199,0.05905
3697.36327,0.06215
3695.43454,0.06476
3693.50582,0.06725
3691.57710,0.07027
3689.64837,0.07419
3687.71965,0.07842
3685.79092,0.08214
3683.86220,0.08550
3681.93348,0.08895
3680.00475,0.09261
3678.07603,0.09667
3676.14731,0.10164
3674.21858,0.10685
3672.28986,0.11121
3670.36113,0.11557
3668.43241,0.12027
3666.50369,0.12431
3664.57496,0.12775
3662.64624,0.13115
3660.71752,0.13466
3658.78879,0.13828
3656.86007,0.14205
3654.93135,0.14547
3653.00262,0.14816
3651.07390,0.15111
3649.14517,0.15530
3647.21645,0.15973
3645.28773,0.16305
3643.35900,0.16567
3641.43028,0.16840
3639.50156,0.17128
3637.57283,0.17402
3635.64411,0.17650
3633.71539,0.17861
3631.78666,0.18040
3629.85794,0.18269
3627.92921,0.18597
3626.00049,0.18893
3624.07177,0.19093
3622.14304,0.19262
3620.21432,0.19460
3618.28560,0.19665
3616.35687,0.19822
3614.42815,0.19959
3612.49942,0.20121
3610.57070,0.20287
3608.64198,0.20446
3606.71325,0.20611
3604.78453,0.20767
3602.85581,0.20900
3600.92708,0.21034
3598.99836,0.21188
3597.06964,0.21350
3595.14091,0.21501
3593.21219,0.21628
3591.28346,0.21728
3589.35474,0.21833
3587.42602,0.21990
3585.49729,0.22183
3583.56857,0.22349
3581.63985,0.22479
3579.71112,0.22599
3577.78240,0.22717
3575.85368,0.22832
3573.92495,0.22955
3571.99623,0.23088
3570.06750,0.23225
3568.13878,0.23366
3566.21006,0.23504
3564.28133,0.23613
3562.35261,0.23701
3560.42389,0.23796
3558.49516,0.23908
3556.56644,0.24023
3554.63771,0.24130
3552.70899,0.24241
3550.78027,0.24358
3548.85154,0.24470
3546.92282,0.24580
3544.99410,0.24690
3543.06537,0.24791
3541.13665,0.24891
3539.20793,0.25008
3537.27920,0.25131
3535.35048,0.25229
3533.42175,0.25299
3531.49303,0.25360
3529.56431,0.25425
3527.63558,0.25499
3525.70686,0.25584
3523.77814,0.25681
3521.84941,0.25786
3519.92069,0.25881
3517.99197,0.25969
3516.06324,0.26061
3514.13452,0.26153
3512.20579,0.26227
3510.27707,0.26294
3508.34835,0.26389
3506.41962,0.26511
3504.49090,0.26629
3502.56218,0.26724
3500.63345,0.26796
3498.70473,0.26858
3496.77600,0.26926
3494.84728,0.26998
3492.91856,0.27054
3490.98983,0.27102
3489.06111,0.27159
3487.13239,0.27225
3485.20366,0.27291
3483.27494,0.27370
3481.34622,0.27465
3479.41749,0.27556
3477.48877,0.27637
3475.56004,0.27713
3473.63132,0.27767
3471.70260,0.27793
3469.77387,0.27822
3467.84515,0.27886
3465.91643,0.27974
3463.98770,0.28047
3462.05898,0.28088
3460.13026,0.28128
3458.20153,0.28188
3456.27281,0.28249
3454.34408,0.28293
3452.41536,0.28325
3450.48664,0.28352
3448.55791,0.28377
3446.62919,0.28412
3444.70047,0.28463
3442.77174,0.28526
3440.84302,0.28592
3438.91429,0.28640
3436.98557,0.28659
3435.05685,0.28675
3433.12812,0.28705
3431.19940,0.28741
3429.27068,0.28760
3427.34195,0.28768
3425.41323,0.28789
3423.48451,0.28821
3421.55578,0.28848
3419.62706,0.28872
3417.69833,0.28900
3415.76961,0.28928
3413.84089,0.28951
3411.91216,0.28966
3409.98344,0.28975
3408.05472,0.28968
3406.12599,0.28963
3404.19727,0.28977
3402.26855,0.28983
3400.33982,0.28969
3398.41110,0.28946
3396.48237,0.28929
3394.55365,0.28921
3392.62493,0.28911
3390.69620,0.28892
3388.76748,0.28878
3386.83876,0.28881
3384.91003,0.28882
3382.98131,0.28865
3381.05259,0.28836
3379.12386,0.28801
3377.19514,0.28775
3375.26641,0.28758
3373.33769,0.28736
3371.40897,0.28711
3369.48024,0.28676
3367.55152,0.28626
3365.62280,0.28571
3363.69407,0.28516
3361.76535,0.28478
3359.83662,0.28464
3357.90790,0.28451
3355.97918,0.28430
3354.05045,0.28412
3352.12173,0.28386
3350.19301,0.28347
3348.26428,0.28306
3346.33556,0.28270
3344.40684,0.28231
3342.47811,0.28188
3340.54939,0.28147
3338.62066,0.28101
3336.69194,0.28050
3334.76322,0.28004
3332.83449,0.27956
3330.90577,0.27902
3328.97705,0.27851
3327.04832,0.27814
3325.11960,0.27790
3323.19088,0.27769
3321.26215,0.27741
3319.33343,0.27715
3317.40470,0.27684
3315.47598,0.27632
3313.54726,0.27570
3311.61853,0.27525
3309.68981,0.27500
3307.76109,0.27483
3305.83236,0.27463
3303.90364,0.27432
3301.97491,0.27387
3300.04619,0.27345
3298.11747,0.27314
3296.18874,0.27291
3294.26002,0.27273
3292.33130,0.27255
3290.40257,0.27218
3288.47385,0.27161
3286.54513,0.27115
3284.61640,0.27080
3282.68768,0.27028
3280.75895,0.26964
3278.83023,0.26922
3276.90151,0.26903
3274.97278,0.26887
3273.04406,0.26861
3271.11534,0.26826
3269.18661,0.26787
3267.25789,0.26740
3265.32917,0.26676
3263.40044,0.26612
3261.47172,0.26565
3259.54299,0.26510
3257.61427,0.26448
3255.68555,0.26410
3253.75682,0.26391
3251.82810,0.26357
3249.89938,0.26312
3247.97065,0.26282
3246.04193,0.26263
3244.11320,0.26232
3242.18448,0.26189
3240.25576,0.26136
3238.32703,0.26061
3236.39831,0.25977
3234.46959,0.25919
3232.54086,0.25879
3230.61214,0.25825
3228.68342,0.25762
3226.75469,0.25705
3224.82597,0.25642
3222.89724,0.25586
3220.96852,0.25548
3219.03980,0.25500
3217.11107,0.25420
3215.18235,0.25327
3213.25363,0.25245
3211.32490,0.25168
3209.39618,0.25089
3207.46746,0.25013
3205.53873,0.24945
3203.61001,0.24878
3201.68128,0.24804
3199.75256,0.24716
3197.82384,0.24627
3195.89511,0.24550
3193.96639,0.24487
3192.03767,0.24436
3190.10894,0.24380
3188.18022,0.24302
3186.25149,0.24214
3184.32277,0.24137
3182.39405,0.24068
3180.46532,0.23982
3178.53660,0.23876
3176.60788,0.23781
3174.67915,0.23705
3172.75043,0.23632
3170.82171,0.23546
3168.89298,0.23438
3166.96426,0.23330
3165.03553,0.23242
3163.10681,0.23155
3161.17809,0.23059
3159.24936,0.22976
3157.32064,0.22910
3155.39192,0.22831
3153.46319,0.22728
3151.53447,0.22632
3149.60575,0.22554
3147.67702,0.22473
3145.74830,0.22387
3143.81957,0.22300
3141.89085,0.22217
3139.96213,0.22136
3138.03340,0.22045
3136.10468,0.21939
3134.17596,0.21839
3132.24723,0.21754
3130.31851,0.21672
3128.38978,0.21586
3126.46106,0.21497
3124.53234,0.21399
3122.60361,0.21296
3120.67489,0.21199
3118.74617,0.21111
3116.81744,0.21026
3114.88872,0.20936
3112.96000,0.20835
3111.03127,0.20728
3109.10255,0.20620
3107.17382,0.20498
3105.24510,0.20369
3103.31638,0.20249
3101.38765,0.20141
3099.45893,0.20038
3097.53021,0.19927
3095.60148,0.19804
3093.67276,0.19682
3091.74404,0.19570
3089.81531,0.19450
3087.88659,0.19323
3085.95786,0.19204
3084.02914,0.19092
3082.10042,0.18981
3080.17169,0.18866
3078.24297,0.18747
3076.31425,0.18633
3074.38552,0.18525
3072.45680,0.18409
3070.52807,0.18288
3068.59935,0.18169
3066.67063,0.18047
3064.74190,0.17919
3062.81318,0.17796
3060.88446,0.17689
3058.95573,0.17592
3057.02701,0.17492
3055.09829,0.17382
3053.16956,0.17262
3051.24084,0.17143
3049.31211,0.17035
3047.38339,0.16942
3045.45467,0.16856
3043.52594,0.16763
3041.59722,0.16662
3039.66850,0.16563
3037.73977,0.16470
3035.81105,0.16379
3033.88233,0.16280
3031.95360,0.16163
3030.02488,0.16040
3028.09615,0.15942
3026.16743,0.15868
3024.23871,0.15795
3022.30998,0.15709
3020.38126,0.15619
3018.45254,0.15535
3016.52381,0.15453
3014.59509,0.15366
3012.66636,0.15276
3010.73764,0.15189
3008.80892,0.15109
3006.88019,0.15041
3004.95147,0.14979
3003.02275,0.14908
3001.09402,0.14828
2999.16530,0.14755
2997.23658,0.14679
2995.30785,0.14595
2993.37913,0.14526
2991.45040,0.14486
2989.52168,0.14458
2987.59296,0.14426
2985.66423,0.14395
2983.73551,0.14365
2981.80679,0.14328
2979.87806,0.14301
2977.94934,0.14289
2976.02062,0.14271
2974.09189,0.14243
2972.16317,0.14222
2970.23444,0.14215
2968.30572,0.14213
2966.37700,0.14217
2964.44827,0.14225
2962.51955,0.14218
2960.59083,0.14193
2958.66210,0.14166
2956.73338,0.14132
2954.80466,0.14078
2952.87593,0.14023
2950.94721,0.13988
2949.01848,0.13972
2947.08976,0.13971
2945.16104,0.13989
2943.23231,0.14023
2941.30359,0.14064
2939.37487,0.14111
2937.44614,0.14171
2935.51742,0.14240
2933.58869,0.14310
2931.65997,0.14356
2929.73125,0.14369
2927.80252,0.14356
2925.87380,0.14300
2923.94508,0.14184
2922.01635,0.14024
2920.08763,0.13836
2918.15891,0.13617
2916.23018,0.13378
2914.30146,0.13136
2912.37273,0.12907
2910.44401,0.12703
2908.51529,0.12523
2906.58656,0.12357
2904.65784,0.12209
2902.72912,0.12075
2900.80039,0.11937
2898.87167,0.11792
2896.94295,0.11654
2895.01422,0.11527
2893.08550,0.11402
2891.15677,0.11270
2889.22805,0.11140
2887.29933,0.11035
2885.37060,0.10953
2883.44188,0.10869
2881.51316,0.10776
2879.58443,0.10694
2877.65571,0.10635
2875.72698,0.10586
2873.79826,0.10526
2871.86954,0.10452
2869.94081,0.10378
2868.01209,0.10323
2866.08337,0.10292
2864.15464,0.10273
2862.22592,0.10266
2860.29720,0.10286
2858.36847,0.10325
2856.43975,0.10352
2854.51102,0.10341
2852.58230,0.10259
2850.65358,0.10083
2848.72485,0.09839
2846.79613,0.09562
2844.86741,0.09280
2842.93868,0.09024
2841.00996,0.08803
2839.08124,0.08616
2837.15251,0.08456
2835.22379,0.08312
2833.29506,0.08176
2831.36634,0.08055
2829.43762,0.07956
2827.50889,0.07872
2825.58017,0.07794
2823.65145,0.07707
2821.72272,0.07606
2819.79400,0.07510
2817.86527,0.07428
2815.93655,0.07345
2814.00783,0.07259
2812.07910,0.07186
2810.15038,0.07123
2808.22166,0.07050
2806.29293,0.06971
2804.36421,0.06899
2802.43549,0.06827
2800.50676,0.06757
2798.57804,0.06693
2796.64931,0.06632
2794.72059,0.06568
2792.79187,0.06502
2790.86314,0.06435
2788.93442,0.06367
2787.00570,0.06301
2785.07697,0.06243
2783.14825,0.06184
2781.21953,0.06120
2779.29080,0.06057
2777.36208,0.06002
2775.43335,0.05948
2773.50463,0.05884
2771.57591,0.05817
2769.64718,0.05753
2767.71846,0.05693
2765.78974,0.05631
2763.86101,0.05571
2761.93229,0.05517
2760.00356,0.05461
2758.07484,0.05399
2756.14612,0.05338
2754.21739,0.05282
2752.28867,0.05231
2750.35995,0.05176
2748.43122,0.05119
2746.50250,0.05073
2744.57378,0.05038
2742.64505,0.04994
2740.71633,0.04938
2738.78760,0.04884
2736.85888,0.04836
2734.93016,0.04784
2733.00143,0.04726
2731.07271,0.04669
2729.14399,0.04614
2727.21526,0.04569
2725.28654,0.04536
2723.35782,0.04498
2721.42909,0.04441
2719.50037,0.04374
2717.57164,0.04311
2715.64292,0.04258
2713.71420,0.04213
2711.78547,0.04166
2709.85675,0.04114
2707.92803,0.04069
2705.99930,0.04037
2704.07058,0.04008
2702.14185,0.03964
2700.21313,0.03909
2698.28441,0.03855
2696.35568,0.03813
2694.42696,0.03778
2692.49824,0.03736
2690.56951,0.03688
2688.64079,0.03650
2686.71207,0.03618
2684.78334,0.03577
2682.85462,0.03527
2680.92589,0.03480
2678.99717,0.03441
2677.06845,0.03404
2675.13972,0.03367
2673.21100,0.03325
2671.28228,0.03274
2669.35355,0.03225
2667.42483,0.03188
2665.49611,0.03158
2663.56738,0.03123
2661.63866,0.03077
2659.70993,0.03025
2657.78121,0.02983
2655.85249,0.02955
2653.92376,0.02933
2651.99504,0.02904
2650.06632,0.02862
2648.13759,0.02812
2646.20887,0.02760
2644.28014,0.02713
2642.35142,0.02677
2640.42270,0.02650
2638.49397,0.02624
2636.56525,0.02595
2634.63653,0.02559
2632.70780,0.02513
2630.77908,0.02472
2628.85036,0.02449
2626.92163,0.02431
2624.99291,0.02398
2623.06418,0.02358
2621.13546,0.02322
2619.20674,0.02293
2617.27801,0.02267
2615.34929,0.02235
2613.42057,0.02198
2611.49184,0.02163
2609.56312,0.02133
2607.63440,0.02105
2605.70567,0.02078
2603.77695,0.02049
2601.84822,0.02018
2599.91950,0.01989
2597.99078,0.01964
2596.06205,0.01939
2594.13333,0.01910
2592.20461,0.01876
2590.27588,0.01839
2588.34716,0.01806
2586.41843,0.01781
2584.48971,0.01761
2582.56099,0.01742
2580.63226,0.01717
2578.70354,0.01687
2576.77482,0.01668
2574.84609,0.01651
2572.91737,0.01625
2570.98865,0.01596
2569.05992,0.01570
2567.13120,0.01547
2565.20247,0.01531
2563.27375,0.01510
2561.34503,0.01480
2559.41630,0.01451
2557.48758,0.01429
2555.55886,0.01408
2553.63013,0.01385
2551.70141,0.01363
2549.77269,0.01341
2547.84396,0.01320
2545.91524,0.01308
2543.98651,0.01305
2542.05779,0.01294
2540.12907,0.01272
2538.20034,0.01248
2536.27162,0.01225
2534.34290,0.01205
2532.41417,0.01191
2530.48545,0.01176
2528.55673,0.01152
2526.62800,0.01128
2524.69928,0.01114
2522.77055,0.01104
2520.84183,0.01088
2518.91311,0.01065
2516.98438,0.01044
2515.05566,0.01027
2513.12694,0.01014
2511.19821,0.01005
2509.26949,0.00989
2507.34076,0.00962
2505.41204,0.00939
2503.48332,0.00929
2501.55459,0.00921
2499.62587,0.00907
2497.69715,0.00889
2495.76842,0.00875
2493.83970,0.00865
2491.91098,0.00852
2489.98225,0.00833
2488.05353,0.00812
2486.12480,0.00789
2484.19608,0.00771
2482.26736,0.00764
2480.33863,0.00760
2478.40991,0.00747
2476.48119,0.00724
2474.55246,0.00702
2472.62374,0.00688
2470.69502,0.00677
2468.76629,0.00664
2466.83757,0.00646
2464.90884,0.00628
2462.98012,0.00611
2461.05140,0.00598
2459.12267,0.00589
2457.19395,0.00578
2455.26523,0.00562
2453.33650,0.00541
2451.40778,0.00520
2449.47905,0.00509
2447.55033,0.00503
2445.62161,0.00494
2443.69288,0.00482
2441.76416,0.00472
2439.83544,0.00462
2437.90671,0.00445
2435.97799,0.00431
2434.04927,0.00423
2432.12054,0.00414
2430.19182,0.00400
2428.26309,0.00387
2426.33437,0.00373
2424.40565,0.00362
2422.47692,0.00354
2420.54820,0.00342
2418.61948,0.00326
2416.69075,0.00315
2414.76203,0.00307
2412.83331,0.00298
2410.90458,0.00290
2408.97586,0.00281
2407.04713,0.00269
2405.11841,0.00262
2403.18969,0.00260
2401.26096,0.00255
2399.33224,0.00238
2397.40352,0.00212
2395.47479,0.00185
2393.54607,0.00170
2391.61734,0.00168
2389.68862,0.00172
2387.75990,0.00178
2385.83117,0.00184
2383.90245,0.00189
2381.97373,0.00188
2380.04500,0.00180
2378.11628,0.00177
2376.18756,0.00178
2374.25883,0.00177
2372.33011,0.00175
2370.40138,0.00176
2368.47266,0.00191
2366.54394,0.00221
2364.61521,0.00237
2362.68649,0.00218
2360.75777,0.00190
2358.82904,0.00170
2356.90032,0.00157
2354.97160,0.00153
2353.04287,0.00166
2351.11415,0.00193
2349.18542,0.00199
2347.25670,0.00160
2345.32798,0.00115
2343.39925,0.00098
2341.47053,0.00100
2339.54181,0.00115
2337.61308,0.00132
2335.68436,0.00130
2333.75563,0.00115
2331.82691,0.00098
2329.89819,0.00082
2327.96946,0.00070
2326.04074,0.00063
2324.11202,0.00059
2322.18329,0.00057
2320.25457,0.00057
2318.32585,0.00059
2316.39712,0.00055
2314.46840,0.00045
2312.53967,0.00038
2310.61095,0.00034
2308.68223,0.00029
2306.75350,0.00017
2304.82478,0.00007
2302.89606,0.00010
2300.96733,0.00019
2299.03861,0.00020
2297.10989,0.00014
2295.18116,0.00009
2293.25244,0.00012
2291.32371,0.00015
2289.39499,0.00007
2287.46627,-0.00004
2285.53754,-0.00006
2283.60882,-0.00001
2281.68010,0.00002
2279.75137,0.00003
2277.82265,0.00002
2275.89392,-0.00000
2273.96520,0.00003
2272.03648,0.00009
2270.10775,0.00006
2268.17903,-0.00003
2266.25031,-0.00005
2264.32158,-0.00001
2262.39286,0.00000
2260.46414,-0.00001
2258.53541,0.00001
2256.60669,0.00000
2254.67796,-0.00005
2252.74924,-0.00003
2250.82052,0.00006
2248.89179,0.00006
2246.96307,-0.00000
2245.03435,-0.00004
2243.10562,-0.00003
2241.17690,0.00002
2239.24818,0.00005
2237.31945,0.00004
2235.39073,0.00004
2233.46200,0.00003
2231.53328,0.00001
2229.60456,0.00002
2227.67583,0.00004
2225.74711,0.00001
2223.81839,-0.00005
2221.88966,-0.00005
2219.96094,-0.00001
2218.03221,-0.00003
2216.10349,-0.00009
2214.17477,-0.00010
2212.24604,-0.00010
2210.31732,-0.00011
2208.38860,-0.00007
2206.45987,0.00000
2204.53115,0.00000
2202.60243,-0.00001
2200.67370,-0.00001
2198.74498,-0.00001
2196.81625,-0.00002
2194.88753,-0.00008
2192.95881,-0.00012
2191.03008,-0.00008
2189.10136,0.00002
2187.17264,0.00004
2185.24391,0.00000
2183.31519,0.00003
2181.38647,0.00012
2179.45774,0.00017
2177.52902,0.00018
2175.60029,0.00020
2173.67157,0.00022
2171.74285,0.00021
2169.81412,0.00021
2167.88540,0.00026
2165.95668,0.00030
2164.02795,0.00031
2162.09923,0.00031
2160.17050,0.00031
2158.24178,0.00032
2156.31306,0.00037
2154.38433,0.00040
2152.45561,0.00037
2150.52689,0.00036
2148.59816,0.00039
2146.66944,0.00041
2144.74072,0.00039
2142.81199,0.00042
2140.88327,0.00051
2138.95454,0.00057
2137.02582,0.00056
2135.09710,0.00055
2133.16837,0.00054
2131.23965,0.00051
2129.31093,0.00048
2127.38220,0.00044
2125.45348,0.00037
2123.52476,0.00027
2121.59603,0.00025
2119.66731,0.00030
2117.73858,0.00031
2115.80986,0.00030
2113.88114,0.00037
2111.95241,0.00042
2110.02369,0.00036
2108.09497,0.00026
2106.16624,0.00022
2104.23752,0.00020
2102.30880,0.00019
2100.38007,0.00018
2098.45135,0.00016
2096.52262,0.00009
2094.59390,0.00000
2092.66518,-0.00008
2090.73645,-0.00004
2088.80773,0.00004
2086.87901,0.00001
2084.95028,-0.00010
2083.02156,-0.00021
2081.09283,-0.00032
2079.16411,-0.00041
2077.23539,-0.00040
2075.30666,-0.00031
2073.37794,-0.00025
2071.44922,-0.00025
2069.52049,-0.00030
2067.59177,-0.00035
2065.66305,-0.00037
2063.73432,-0.00035
2061.80560,-0.00027
2059.87687,-0.00015
2057.94815,-0.00007
2056.01943,-0.00003
2054.09070,0.00005
2052.16198,0.00021
2050.23326,0.00039
2048.30453,0.00057
2046.37581,0.00075
2044.44709,0.00093
2042.51836,0.00109
2040.58964,0.00128
2038.66091,0.00153
2036.73219,0.00182
2034.80347,0.00214
2032.87474,0.00244
2030.94602,0.00268
2029.01730,0.00288
2027.08857,0.00308
2025.15985,0.00328
2023.23112,0.00350
2021.30240,0.00369
2019.37368,0.00384
2017.44495,0.00399
2015.51623,0.00418
2013.58751,0.00438
2011.65878,0.00452
2009.73006,0.00461
2007.80134,0.00469
2005.87261,0.00476
2003.94389,0.00484
2002.01516,0.00496
2000.08644,0.00505
1998.15772,0.00505
1996.22899,0.00501
1994.30027,0.00492
1992.37155,0.00478
1990.44282,0.00466
1988.51410,0.00460
1986.58538,0.00451
1984.65665,0.00439
1982.72793,0.00428
1980.79920,0.00416
1978.87048,0.00398
1976.94176,0.00380
1975.01303,0.00364
1973.08431,0.00347
1971.15559,0.00329
1969.22686,0.00310
1967.29814,0.00289
1965.36941,0.00266
1963.44069,0.00244
1961.51197,0.00223
1959.58324,0.00199
1957.65452,0.00174
1955.72580,0.00154
1953.79707,0.00137
1951.86835,0.00117
1949.93963,0.00095
1948.01090,0.00073
1946.08218,0.00057
1944.15345,0.00047
1942.22473,0.00036
1940.29601,0.00020
1938.36728,0.00010
1936.43856,0.00009
1934.50984,0.00008
1932.58111,0.00002
1930.65239,-0.00006
1928.72367,-0.00007
1926.79494,0.00000
1924.86622,0.00008
1922.93749,0.00012
1921.00877,0.00016
1919.08005,0.00027
1917.15132,0.00052
1915.22260,0.00085
1913.29388,0.00126
1911.36515,0.00177
1909.43643,0.00237
1907.50770,0.00303
1905.57898,0.00370
1903.65026,0.00434
1901.72153,0.00492
1899.79281,0.00545
1897.86409,0.00599
1895.93536,0.00658
1894.00664,0.00722
1892.07792,0.00783
1890.14919,0.00841
1888.22047,0.00895
1886.29174,0.00940
1884.36302,0.00972
1882.43430,0.00996
1880.50557,0.01019
1878.57685,0.01044
1876.64813,0.01064
1874.71940,0.01068
1872.79068,0.01057
1870.86196,0.01040
1868.93323,0.01021
1867.00451,0.00994
1865.07578,0.00953
1863.14706,0.00904
1861.21834,0.00849
1859.28961,0.00786
1857.36089,0.00719
1855.43217,0.00648
1853.50344,0.00573
1851.57472,0.00498
1849.64599,0.00431
1847.71727,0.00372
1845.78855,0.00312
1843.85982,0.00250
1841.93110,0.00196
1840.00238,0.00157
1838.07365,0.00124
1836.14493,0.00089
1834.21621,0.00059
1832.28748,0.00042
1830.35876,0.00032
1828.43003,0.00020
1826.50131,0.00006
1824.57259,-0.00005
1822.64386,-0.00014
1820.71514,-0.00021
1818.78642,-0.00025
1816.85769,-0.00018
1814.92897,0.00000
1813.00025,0.00005
1811.07152,0.00012
1809.14280,0.00023
1807.21407,0.00035
1805.28535,0.00045
1803.35663,0.00060
1801.42790,0.00089
1799.49918,0.00131
1797.57046,0.00175
1795.64173,0.00219
1793.71301,0.00271
1791.78428,0.00329
1789.85556,0.00383
1787.92684,0.00430
1785.99811,0.00485
1784.06939,0.00554
1782.14067,0.00635
1780.21194,0.00719
1778.28322,0.00791
1776.35450,0.00851
1774.42577,0.00917
1772.49705,0.01006
1770.56832,0.01102
1768.63960,0.01182
1766.71088,0.01247
1764.78215,0.01305
1762.85343,0.01367
1760.92471,0.01440
1758.99598,0.01518
1757.06726,0.01603
1755.13854,0.01691
1753.20981,0.01779
1751.28109,0.01882
1749.35236,0.01997
1747.42364,0.02115
1745.49492,0.02242
1743.56619,0.02384
1741.63747,0.02542
1739.70875,0.02707
1737.78002,0.02862
1735.85130,0.03030
1733.92257,0.03261
1731.99385,0.03509
1730.06513,0.03717
1728.13640,0.03909
1726.20768,0.04109
1724.27896,0.04320
1722.35023,0.04514
1720.42151,0.04684
1718.49279,0.04874
1716.56406,0.05106
1714.63534,0.05328
1712.70661,0.05507
1710.77789,0.05670
1708.84917,0.05850
1706.92044,0.06065
1704.99172,0.06296
1703.06300,0.06508
1701.13427,0.06741
1699.20555,0.07026
1697.27683,0.07323
1695.34810,0.07626
1693.41938,0.07905
1691.49065,0.08149
1689.56193,0.08405
1687.63321,0.08676
1685.70448,0.08999
1683.77576,0.09412
1681.84704,0.09785
1679.91831,0.10049
1677.98959,0.10280
1676.06087,0.10547
1674.13214,0.10837
1672.20342,0.11118
1670.27469,0.11427
1668.34597,0.11750
1666.41725,0.11996
1664.48852,0.12196
1662.55980,0.12430
1660.63108,0.12665
1658.70235,0.12836
1656.77363,0.12959
1654.84490,0.13112
1652.91618,0.13333
1650.98746,0.13501
1649.05873,0.13586
1647.13001,0.13699
1645.20129,0.13841
1643.27256,0.13937
1641.34384,0.13986
1639.41512,0.14015
1637.48639,0.14044
1635.55767,0.14088
1633.62894,0.14114
1631.70022,0.14091
1629.77150,0.14025
1627.84277,0.13924
1625.91405,0.13795
1623.98533,0.13642
1622.05660,0.13463
1620.12788,0.13268
1618.19916,0.13035
1616.27043,0.12740
1614.34171,0.12436
1612.41298,0.12159
1610.48426,0.11881
1608.55554,0.11586
1606.62681,0.11289
1604.69809,0.11000
1602.76937,0.10715
1600.84064,0.10436
1598.91192,0.10165
1596.98319,0.09904
1595.05447,0.09651
1593.12575,0.09406
1591.19702,0.09173
1589.26830,0.08949
1587.33958,0.08728
1585.41085,0.08512
1583.48213,0.08309
1581.55341,0.08124
1579.62468,0.07950
1577.69596,0.07770
1575.76723,0.07586
1573.83851,0.07431
1571.90979,0.07306
1569.98106,0.07180
1568.05234,0.07050
1566.12362,0.06936
1564.19489,0.06840
1562.26617,0.06759
1560.33745,0.06672
1558.40872,0.06550
1556.48000,0.06421
1554.55127,0.06314
1552.62255,0.06225
1550.69383,0.06133
1548.76510,0.06029
1546.83638,0.05918
1544.90766,0.05801
1542.97893,0.05666
1541.05021,0.05503
1539.12148,0.05323
1537.19276,0.05164
1535.26404,0.05019
1533.33531,0.04853
1531.40659,0.04676
1529.47787,0.04510
1527.54914,0.04335
1525.62042,0.04148
1523.69170,0.03969
1521.76297,0.03792
1519.83425,0.03613
1517.90552,0.03440
1515.97680,0.03259
1514.04808,0.03075
1512.11935,0.02911
1510.19063,0.02767
1508.26191,0.02587
1506.33318,0.02326
1504.40446,0.02079
1502.47574,0.01906
1500.54701,0.01761
1498.61829,0.01612
1496.68956,0.01465
1494.76084,0.01340
1492.83212,0.01248
1490.90339,0.01174
1488.97467,0.01113
1487.04595,0.01079
1485.11722,0.01078
1483.18850,0.01107
1481.25977,0.01165
1479.33105,0.01242
1477.40233,0.01335
1475.47360,0.01465
1473.54488,0.01668
1471.61616,0.01922
1469.68743,0.02134
1467.75871,0.02285
1465.82999,0.02418
1463.90126,0.02529
1461.97254,0.02589
1460.04381,0.02622
1458.11509,0.02687
1456.18637,0.02788
1454.25764,0.02859
1452.32892,0.02889
1450.40020,0.02914
1448.47147,0.02952
1446.54275,0.02997
1444.61403,0.03043
1442.68530,0.03091
1440.75658,0.03133
1438.82785,0.03169
1436.89913,0.03221
1434.97041,0.03291
1433.04168,0.03359
1431.11296,0.03428
1429.18424,0.03502
1427.25551,0.03568
1425.32679,0.03630
1423.39806,0.03702
1421.46934,0.03787
1419.54062,0.03902
1417.61189,0.04047
1415.68317,0.04196
1413.75445,0.04345
1411.82572,0.04509
1409.89700,0.04686
1407.96828,0.04871
1406.03955,0.05064
1404.11083,0.05237
1402.18210,0.05326
1400.25338,0.05295
1398.32466,0.05153
1396.39593,0.04933
1394.46721,0.04671
1392.53849,0.04416
1390.60976,0.04209
1388.68104,0.04083
1386.75232,0.04041
1384.82359,0.03986
1382.89487,0.03798
1380.96614,0.03502
1379.03742,0.03215
1377.10870,0.02995
1375.17997,0.02815
1373.25125,0.02648
1371.32253,0.02490
1369.39380,0.02344
1367.46508,0.02212
1365.53635,0.02088
1363.60763,0.01963
1361.67891,0.01843
1359.75018,0.01746
1357.82146,0.01669
1355.89274,0.01600
1353.96401,0.01536
1352.03529,0.01473
1350.10657,0.01409
1348.17784,0.01351
1346.24912,0.01305
1344.32039,0.01262
1342.39167,0.01211
1340.46295,0.01158
1338.53422,0.01117
1336.60550,0.01094
1334.67678,0.01080
1332.74805,0.01072
1330.81933,0.01069
1328.89061,0.01076
1326.96188,0.01092
1325.03316,0.01107
1323.10443,0.01118
1321.17571,0.01136
1319.24699,0.01165
1317.31826,0.01191
1315.38954,0.01205
1313.46082,0.01220
1311.53209,0.01239
1309.60337,0.01264
1307.67464,0.01307
1305.74592,0.01369
1303.81720,0.01432
1301.88847,0.01496
1299.95975,0.01575
1298.03103,0.01670
1296.10230,0.01776
1294.17358,0.01899
1292.24486,0.02044
1290.31613,0.02205
1288.38741,0.02382
1286.45868,0.02588
1284.52996,0.02827
1282.60124,0.03088
1280.67251,0.03364
1278.74379,0.03667
1276.81507,0.04000
1274.88634,0.04361
1272.95762,0.04766
1271.02890,0.05239
1269.10017,0.05769
1267.17145,0.06335
1265.24272,0.06948
1263.31400,0.07642
1261.38528,0.08450
1259.45655,0.09379
1257.52783,0.10392
1255.59911,0.11444
1253.67038,0.12519
1251.74166,0.13607
1249.81294,0.14680
1247.88421,0.15707
1245.95549,0.16665
1244.02676,0.17543
1242.09804,0.18344
1240.16932,0.19075
1238.24059,0.19746
1236.31187,0.20361
1234.38315,0.20918
1232.45442,0.21405
1230.52570,0.21835
1228.59697,0.22243
1226.66825,0.22637
1224.73953,0.22997
1222.81080,0.23330
1220.88208,0.23663
1218.95336,0.23989
1217.02463,0.24278
1215.09591,0.24537
1213.16719,0.24799
1211.23846,0.25064
1209.30974,0.25319
1207.38101,0.25583
1205.45229,0.25857
1203.52357,0.26111
1201.59484,0.26351
1199.66612,0.26601
1197.73740,0.26840
1195.80867,0.27061
1193.87995,0.27272
1191.95123,0.27471
1190.02250,0.27655
1188.09378,0.27843
1186.16505,0.28068
1184.23633,0.28316
1182.30761,0.28541
1180.37888,0.28753
1178.45016,0.28988
1176.52144,0.29239
1174.59271,0.29478
1172.66399,0.29701
1170.73526,0.29924
1168.80654,0.30151
1166.87782,0.30375
1164.94909,0.30601
1163.02037,0.30832
1161.09165,0.31053
1159.16292,0.31260
1157.23420,0.31466
1155.30548,0.31657
1153.37675,0.31813
1151.44803,0.31961
1149.51930,0.32125
1147.59058,0.32293
1145.66186,0.32469
1143.73313,0.32683
1141.80441,0.32912
1139.87569,0.33124
1137.94696,0.33341
1136.01824,0.33584
1134.08952,0.33828
1132.16079,0.34030
1130.23207,0.34219
1128.30334,0.34490
1126.37462,0.34834
1124.44590,0.35158
1122.51717,0.35468
1120.58845,0.35850
1118.65973,0.36315
1116.73100,0.36820
1114.80228,0.37338
1112.87355,0.37873
1110.94483,0.38428
1109.01611,0.38999
1107.08738,0.39575
1105.15866,0.40118
1103.22994,0.40614
1101.30121,0.41067
1099.37249,0.41510
1097.44377,0.41953
1095.51504,0.42293
1093.58632,0.42485
1091.65759,0.42611
1089.72887,0.42723
1087.80015,0.42800
1085.87142,0.42828
1083.94270,0.42814
1082.01398,0.42744
1080.08525,0.42604
1078.15653,0.42407
1076.22781,0.42181
1074.29908,0.41970
1072.37036,0.41773
1070.44163,0.41562
1068.51291,0.41323
1066.58419,0.41025
1064.65546,0.40681
1062.72674,0.40360
1060.79802,0.40025
1058.86929,0.39613
1056.94057,0.39123
1055.01184,0.38601
1053.08312,0.38131
1051.15440,0.37692
1049.22567,0.37203
1047.29695,0.36677
1045.36823,0.36140
1043.43950,0.35563
1041.51078,0.34937
1039.58206,0.34270
1037.65333,0.33582
1035.72461,0.32926
1033.79588,0.32315
1031.86716,0.31705
1029.93844,0.31051
1028.00971,0.30380
1026.08099,0.29749
1024.15227,0.29153
1022.22354,0.28567
1020.29482,0.27977
1018.36610,0.27386
1016.43737,0.26820
1014.50865,0.26285
1012.57992,0.25740
1010.65120,0.25179
1008.72248,0.24648
1006.79375,0.24141
1004.86503,0.23614
1002.93631,0.23077
1001.00758,0.22557
999.07886,0.22047
997.15013,0.21548
995.22141,0.21076
993.29269,0.20638
991.36396,0.20223
989.43524,0.19799
987.50652,0.19361
985.57779,0.18945
983.64907,0.18585
981.72035,0.18274
979.79162,0.17989
977.86290,0.17729
975.93417,0.17504
974.00545,0.17315
972.07673,0.17159
970.14800,0.17039
968.21928,0.16936
966.29056,0.16815
964.36183,0.16677
962.43311,0.16561
960.50439,0.16481
958.57566,0.16403
956.64694,0.16296
954.71821,0.16163
952.78949,0.16030
950.86077,0.15924
948.93204,0.15824
947.00332,0.15676
945.07460,0.15487
943.14587,0.15308
941.21715,0.15140
939.28842,0.14941
937.35970,0.14703
935.43098,0.14441
933.50225,0.14155
931.57353,0.13871
929.64481,0.13619
927.71608,0.13379
925.78736,0.13109
923.85864,0.12803
921.92991,0.12493
920.00119,0.12195
918.07246,0.11900
916.14374,0.11594
914.21502,0.11271
912.28629,0.10928
910.35757,0.10566
908.42885,0.10196
906.50012,0.09800
904.57140,0.09378
902.64268,0.08978
900.71395,0.08627
898.78523,0.08296
896.85650,0.07950
894.92778,0.07593
892.99906,0.07241
891.07033,0.06893
889.14161,0.06537
887.21289,0.06191
885.28416,0.05877
883.35544,0.05587
881.42671,0.05315
879.49799,0.05064
877.56927,0.04825
875.64054,0.04596
873.71182,0.04382
871.78310,0.04163
869.85437,0.03927
867.92565,0.03706
865.99693,0.03524
864.06820,0.03353
862.13948,0.03175
860.21075,0.02999
858.28203,0.02829
856.35331,0.02676
854.42458,0.02533
852.49586,0.02384
850.56714,0.02256
848.63841,0.02212
846.70969,0.02257
844.78097,0.02352
842.85224,0.02490
840.92352,0.02669
838.99479,0.02878
837.06607,0.03131
835.13735,0.03414
833.20862,0.03681
831.27990,0.03948
829.35118,0.04246
827.42245,0.04563
825.49373,0.04900
823.56501,0.05255
821.63628,0.05612
819.70756,0.05970
817.77883,0.06322
815.85011,0.06644
813.92139,0.06959
811.99266,0.07317
810.06394,0.07719
808.13522,0.08130
806.20649,0.08533
804.27777,0.08901
802.34904,0.09210
800.42032,0.09466
798.49160,0.09636
796.56287,0.09650
794.63415,0.09555
792.70543,0.09439
790.77670,0.09300
788.84798,0.09126
786.91926,0.08935
784.99053,0.08713
783.06181,0.08451
781.13308,0.08166
779.20436,0.07849
777.27564,0.07480
775.34691,0.07063
773.41819,0.06631
771.48947,0.06255
769.56074,0.05984
767.63202,0.05801
765.70330,0.05658
763.77457,0.05531
761.84585,0.05430
759.91712,0.05351
757.98840,0.05286
756.05968,0.05246
754.13095,0.05212
752.20223,0.05153
750.27351,0.05091
748.34478,0.05062
746.41606,0.05067
744.48733,0.05086
742.55861,0.05080
740.62989,0.05032
738.70116,0.05001
736.77244,0.05006
734.84372,0.05005
732.91499,0.04976
730.98627,0.04931
729.05755,0.04901
727.12882,0.04891
725.20010,0.04878
723.27137,0.04869
721.34265,0.04863
719.41393,0.04859
717.48520,0.04873
715.55648,0.04889
713.62776,0.04889
711.69903,0.04903
709.77031,0.04933
707.84159,0.04930
705.91286,0.04922
703.98414,0.04982
702.05541,0.05093
700.12669,0.05201
698.19797,0.05297
696.26924,0.05382
694.34052,0.05425
692.41180,0.05411
690.48307,0.05363
688.55435,0.05306
686.62562,0.05261
684.69690,0.05257
682.76818,0.05290
680.83945,0.05297
678.91073,0.05255
676.98201,0.05212
675.05328,0.05216
673.12456,0.05253
671.19584,0.05215
669.26711,0.05112
667.33839,0.05179
665.40966,0.05373
663.48094,0.05452
661.55222,0.05461
659.62349,0.05534
657.69477,0.05684
655.76605,0.05867
653.83732,0.06032
651.90860,0.06148
649.97988,0.06223
648.05115,0.06330
646.12243,0.06549
644.19370,0.06836
642.26498,0.07062
640.33626,0.07188
638.40753,0.07311
636.47881,0.07484
634.55009,0.07640
632.62136,0.07712
630.69264,0.07723
628.76391,0.07729
626.83519,0.07776
624.90647,0.07867
622.97774,0.07986
621.04902,0.08119
619.12030,0.08267
617.19157,0.08403
615.26285,0.08507
613.33413,0.08677
611.40540,0.08896
609.47668,0.09018
607.54795,0.09097
605.61923,0.09287
603.69051,0.09570
601.76178,0.09830
599.83306,0.09984
597.90434,0.10093
595.97561,0.10270
594.04689,0.10485
592.11817,0.10679
590.18944,0.10831
588.26072,0.10912
586.33199,0.10967
584.40327,0.11045
582.47455,0.11121
580.54582,0.11202
578.61710,0.11299
576.68838,0.11346
574.75965,0.11335
572.83093,0.11313
570.90220,0.11247
568.97348,0.11148
567.04476,0.11086
565.11603,0.11056
563.18731,0.11038
561.25859,0.11049
559.32986,0.11071
557.40114,0.11115
555.47242,0.11193
553.54369,0.11236
551.61497,0.11241
549.68624,0.11295
547.75752,0.11443
545.82880,0.11657
543.90007,0.11862
541.97135,0.11975
540.04263,0.11938
538.11390,0.11794
536.18518,0.11715
534.25646,0.11745
532.32773,0.11750
530.39901,0.11707
528.47028,0.11677
526.54156,0.11665
524.61284,0.11714
522.68411,0.11790
520.75539,0.11820
518.82667,0.11893
516.89794,0.12053
514.96922,0.12163
513.04049,0.12255
511.11177,0.12509
509.18305,0.12853
507.25432,0.13154
505.32560,0.13501
503.39688,0.13977
501.46815,0.14525
499.53943,0.15016
497.61071,0.15450
495.68198,0.16031
493.75326,0.16839
491.82453,0.17723
489.89581,0.18524
487.96709,0.19193
486.03836,0.19836
484.10964,0.20522
482.18092,0.21136
480.25219,0.21688
478.32347,0.22373
476.39475,0.23272
474.46602,0.24308
472.53730,0.25231
470.60857,0.25669
468.67985,0.25489
466.75113,0.24974
464.82240,0.24605
462.89368,0.24653
460.96496,0.25032
459.03623,0.25353
457.10751,0.25113
455.17878,0.24366
453.25006,0.23724
451.32134,0.23406
449.39261,0.23112
447.46389,0.22605
445.53517,0.21944
443.60644,0.21316
441.67772,0.20824
439.74900,0.20462
437.82027,0.20162
435.89155,0.19824
433.96282,0.19332
432.03410,0.18553
430.10538,0.17589
428.17665,0.16884
426.24793,0.16714
424.31921,0.16831
422.39048,0.16615
420.46176,0.15368
418.53304,0.13097
416.60431,0.11172
414.67559,0.10256
412.74686,0.09849
410.81814,0.09948
408.88942,0.10766
406.96069,0.11815
405.03197,0.12250
403.10325,0.11512
401.17452,0.09489
399.24580,0.06872
397.31708,0.05490
395.38835,0.06486
393.45963,0.08642
391.53090,0.10542
389.60218,0.11361
387.67346,0.10139
385.74473,0.06434
383.81601,0.02123
381.88729,0.00000
379.95856,-0.00390
378.02984,0.01908
376.10111,0.06899
374.17239,0.11635
372.24367,0.11846
370.31494,0.07203
368.38622,0.00000
