3996.31543,0.00000
3994.38671,0.00011
3992.45799,0.00013
3990.52926,0.00010
3988.60054,0.00007
3986.67182,0.00010
3984.74309,0.00020
3982.81437,0.00032
3980.88564,0.00037
3978.95692,0.00032
3977.02820,0.00035
3975.09947,0.00051
3973.17075,0.00061
3971.24203,0.00053
3969.31330,0.00041
3967.38458,0.00038
3965.45586,0.00042
3963.52713,0.00044
3961.59841,0.00047
3959.66968,0.00057
3957.74096,0.00066
3955.81224,0.00059
3953.88351,0.00044
3951.95479,0.00043
3950.02607,0.00053
3948.09734,0.00048
3946.16862,0.00036
3944.23990,0.00039
3942.31117,0.00058
3940.38245,0.00078
3938.45372,0.00089
3936.52500,0.00077
3934.59628,0.00054
3932.66755,0.00044
3930.73883,0.00050
3928.81011,0.00048
3926.88138,0.00038
3924.95266,0.00035
3923.02393,0.00042
3921.09521,0.00055
3919.16649,0.00069
3917.23776,0.00073
3915.30904,0.00062
3913.38032,0.00045
3911.45159,0.00031
3909.52287,0.00023
3907.59415,0.00025
3905.66542,0.00045
3903.73670,0.00072
3901.80797,0.00085
3899.87925,0.00077
3897.95053,0.00059
3896.02180,0.00045
3894.09308,0.00040
3892.16436,0.00031
3890.23563,0.00011
3888.30691,0.00000
3886.37819,0.00012
3884.44946,0.00039
3882.52074,0.00062
3880.59201,0.00067
3878.66329,0.00061
3876.73457,0.00053
3874.80584,0.00047
3872.87712,0.00036
3870.94840,0.00023
3869.01967,0.00013
3867.09095,0.00004
3865.16222,0.00000
3863.23350,-0.00003
3861.30478,-0.00001
3859.37605,0.00007
3857.44733,0.00023
3855.51861,0.00043
3853.58988,0.00060
3851.66116,0.00058
3849.73244,0.00033
3847.80371,0.00004
3845.87499,-0.00009
3843.94626,0.00004
3842.01754,0.00027
3840.08882,0.00039
3838.16009,0.00040
3836.23137,0.00042
3834.30265,0.00044
3832.37392,0.00029
3830.44520,0.00008
3828.51648,0.00012
3826.58775,0.00045
3824.65903,0.00078
3822.73030,0.00092
3820.80158,0.00087
3818.87286,0.00071
3816.94413,0.00063
3815.01541,0.00063
3813.08669,0.00064
3811.15796,0.00064
3809.22924,0.00068
3807.30052,0.00084
3805.37179,0.00114
3803.44307,0.00149
3801.51434,0.00173
3799.58562,0.00184
3797.65690,0.00198
3795.72817,0.00214
3793.79945,0.00216
3791.87073,0.00208
3789.94200,0.00214
3788.01328,0.00244
3786.08455,0.00281
3784.15583,0.00311
3782.22711,0.00337
3780.29838,0.00361
3778.36966,0.00375
3776.44094,0.00381
3774.51221,0.00396
3772.58349,0.00430
3770.65477,0.00485
3768.72604,0.00540
3766.79732,0.00578
3764.86859,0.00609
3762.93987,0.00660
3761.01115,0.00740
3759.08242,0.00824
3757.15370,0.00881
3755.22498,0.00935
3753.29625,0.01023
3751.36753,0.01137
3749.43881,0.01233
3747.51008,0.01310
3745.58136,0.01410
3743.65263,0.01530
3741.72391,0.01631
3739.79519,0.01730
3737.86646,0.01869
3735.93774,0.02058
3734.00902,0.02263
3732.08029,0.02452
3730.15157,0.02618
3728.22284,0.02788
3726.29412,0.02996
3724.36540,0.03239
3722.43667,0.03491
3720.50795,0.03750
3718.57923,0.04025
3716.65050,0.04311
3714.72178,0.04609
3712.79306,0.04956
3710.86433,0.05357
3708.93561,0.05746
3707.00688,0.06092
3705.07816,0.06430
3703.14944,0.06804
3701.22071,0.07213
3699.29199,0.07621
3697.36327,0.08016
3695.43454,0.08407
3693.50582,0.08790
3691.57710,0.09200
3689.64837,0.09681
3687.71965,0.10186
3685.79092,0.10637
3683.86220,0.11061
3681.93348,0.11516
3680.00475,0.12001
3678.07603,0.12505
3676.14731,0.13081
3674.21858,0.13691
3672.28986,0.14225
3670.36113,0.14751
3668.43241,0.15289
3666.50369,0.15735
3664.57496,0.16116
3662.64624,0.16508
3660.71752,0.16926
3658.78879,0.17356
3656.86007,0.17798
3654.93135,0.18215
3653.00262,0.18563
3651.07390,0.18914
3649.14517,0.19358
3647.21645,0.19808
3645.28773,0.20161
3643.35900,0.20453
3641.43028,0.20751
3639.50156,0.21075
3637.57283,0.21409
3635.64411,0.21724
3633.71539,0.21994
3631.78666,0.22239
3629.85794,0.22535
3627.92921,0.22889
3626.00049,0.23192
3624.07177,0.23426
3622.14304,0.23652
3620.21432,0.23899
3618.28560,0.24145
3616.35687,0.24349
3614.42815,0.24521
3612.49942,0.24694
3610.57070,0.24887
3608.64198,0.25109
3606.71325,0.25330
3604.78453,0.25514
3602.85581,0.25681
3600.92708,0.25864
3598.99836,0.26057
3597.06964,0.26241
3595.14091,0.26434
3593.21219,0.26637
3591.28346,0.26806
3589.35474,0.26953
3587.42602,0.27148
3585.49729,0.27379
3583.56857,0.27570
3581.63985,0.27708
3579.71112,0.27840
3577.78240,0.27999
3575.85368,0.28185
3573.92495,0.28372
3571.99623,0.28529
3570.06750,0.28656
3568.13878,0.28796
3566.21006,0.28962
3564.28133,0.29121
3562.35261,0.29264
3560.42389,0.29398
3558.49516,0.29525
3556.56644,0.29664
3554.63771,0.29816
3552.70899,0.29967
3550.78027,0.30106
3548.85154,0.30236
3546.92282,0.30365
3544.99410,0.30496
3543.06537,0.30617
3541.13665,0.30734
3539.20793,0.30868
3537.27920,0.31020
3535.35048,0.31170
3533.42175,0.31298
3531.49303,0.31398
3529.56431,0.31488
3527.63558,0.31587
3525.70686,0.31695
3523.77814,0.31801
3521.84941,0.31904
3519.92069,0.32018
3517.99197,0.32134
3516.06324,0.32233
3514.13452,0.32318
3512.20579,0.32407
3510.27707,0.32503
3508.34835,0.32599
3506.41962,0.32691
3504.49090,0.32789
3502.56218,0.32895
3500.63345,0.32995
3498.70473,0.33078
3496.77600,0.33157
3494.84728,0.33258
3492.91856,0.33373
3490.98983,0.33475
3489.06111,0.33555
3487.13239,0.33628
3485.20366,0.33706
3483.27494,0.33789
3481.34622,0.33868
3479.41749,0.33932
3477.48877,0.33984
3475.56004,0.34035
3473.63132,0.34081
3471.70260,0.34130
3469.77387,0.34192
3467.84515,0.34258
3465.91643,0.34330
3463.98770,0.34418
3462.05898,0.34494
3460.13026,0.34545
3458.20153,0.34594
3456.27281,0.34648
3454.34408,0.34699
3452.41536,0.34747
3450.48664,0.34791
3448.55791,0.34838
3446.62919,0.34899
3444.70047,0.34964
3442.77174,0.35017
3440.84302,0.35057
3438.91429,0.35095
3436.98557,0.35140
3435.05685,0.35177
3433.12812,0.35187
3431.19940,0.35191
3429.27068,0.35219
3427.34195,0.35264
3425.41323,0.35312
3423.48451,0.35358
3421.55578,0.35377
3419.62706,0.35368
3417.69833,0.35364
3415.76961,0.35375
3413.84089,0.35392
3411.91216,0.35421
3409.98344,0.35451
3408.05472,0.35449
3406.12599,0.35425
3404.19727,0.35425
3402.26855,0.35441
3400.33982,0.35448
3398.41110,0.35445
3396.48237,0.35458
3394.55365,0.35482
3392.62493,0.35492
3390.69620,0.35494
3388.76748,0.35507
3386.83876,0.35515
3384.91003,0.35495
3382.98131,0.35454
3381.05259,0.35404
3379.12386,0.35372
3377.19514,0.35371
3375.26641,0.35363
3373.33769,0.35323
3371.40897,0.35288
3369.48024,0.35284
3367.55152,0.35284
3365.62280,0.35267
3363.69407,0.35240
3361.76535,0.35213
3359.83662,0.35184
3357.90790,0.35141
3355.97918,0.35094
3354.05045,0.35052
3352.12173,0.35024
3350.19301,0.34999
3348.26428,0.34958
3346.33556,0.34913
3344.40684,0.34886
3342.47811,0.34860
3340.54939,0.34827
3338.62066,0.34783
3336.69194,0.34711
3334.76322,0.34628
3332.83449,0.34580
3330.90577,0.34572
3328.97705,0.34564
3327.04832,0.34528
3325.11960,0.34479
3323.19088,0.34433
3321.26215,0.34395
3319.33343,0.34369
3317.40470,0.34339
3315.47598,0.34289
3313.54726,0.34231
3311.61853,0.34190
3309.68981,0.34163
3307.76109,0.34136
3305.83236,0.34103
3303.90364,0.34055
3301.97491,0.33991
3300.04619,0.33933
3298.11747,0.33895
3296.18874,0.33860
3294.26002,0.33815
3292.33130,0.33774
3290.40257,0.33740
3288.47385,0.33692
3286.54513,0.33642
3284.61640,0.33604
3282.68768,0.33556
3280.75895,0.33485
3278.83023,0.33427
3276.90151,0.33395
3274.97278,0.33358
3273.04406,0.33302
3271.11534,0.33252
3269.18661,0.33221
3267.25789,0.33188
3265.32917,0.33139
3263.40044,0.33082
3261.47172,0.33012
3259.54299,0.32923
3257.61427,0.32841
3255.68555,0.32787
3253.75682,0.32738
3251.82810,0.32677
3249.89938,0.32607
3247.97065,0.32530
3246.04193,0.32445
3244.11320,0.32371
3242.18448,0.32315
3240.25576,0.32259
3238.32703,0.32197
3236.39831,0.32132
3234.46959,0.32059
3232.54086,0.31991
3230.61214,0.31937
3228.68342,0.31875
3226.75469,0.31782
3224.82597,0.31685
3222.89724,0.31607
3220.96852,0.31537
3219.03980,0.31463
3217.11107,0.31394
3215.18235,0.31331
3213.25363,0.31254
3211.32490,0.31156
3209.39618,0.31051
3207.46746,0.30950
3205.53873,0.30857
3203.61001,0.30779
3201.68128,0.30707
3199.75256,0.30627
3197.82384,0.30531
3195.89511,0.30419
3193.96639,0.30299
3192.03767,0.30183
3190.10894,0.30083
3188.18022,0.29997
3186.25149,0.29912
3184.32277,0.29827
3182.39405,0.29746
3180.46532,0.29653
3178.53660,0.29542
3176.60788,0.29422
3174.67915,0.29296
3172.75043,0.29172
3170.82171,0.29062
3168.89298,0.28962
3166.96426,0.28854
3165.03553,0.28732
3163.10681,0.28611
3161.17809,0.28506
3159.24936,0.28414
3157.32064,0.28324
3155.39192,0.28231
3153.46319,0.28132
3151.53447,0.28033
3149.60575,0.27931
3147.67702,0.27816
3145.74830,0.27697
3143.81957,0.27583
3141.89085,0.27477
3139.96213,0.27368
3138.03340,0.27245
3136.10468,0.27112
3134.17596,0.26992
3132.24723,0.26895
3130.31851,0.26790
3128.38978,0.26666
3126.46106,0.26547
3124.53234,0.26449
3122.60361,0.26362
3120.67489,0.26272
3118.74617,0.26182
3116.81744,0.26088
3114.88872,0.25981
3112.96000,0.25863
3111.03127,0.25748
3109.10255,0.25647
3107.17382,0.25562
3105.24510,0.25462
3103.31638,0.25335
3101.38765,0.25203
3099.45893,0.25091
3097.53021,0.24985
3095.60148,0.24863
3093.67276,0.24736
3091.74404,0.24624
3089.81531,0.24525
3087.88659,0.24429
3085.95786,0.24330
3084.02914,0.24230
3082.10042,0.24130
3080.17169,0.24013
3078.24297,0.23879
3076.31425,0.23740
3074.38552,0.23601
3072.45680,0.23480
3070.52807,0.23378
3068.59935,0.23274
3066.67063,0.23152
3064.74190,0.23015
3062.81318,0.22879
3060.88446,0.22765
3058.95573,0.22670
3057.02701,0.22564
3055.09829,0.22442
3053.16956,0.22324
3051.24084,0.22206
3049.31211,0.22080
3047.38339,0.21954
3045.45467,0.21835
3043.52594,0.21714
3041.59722,0.21585
3039.66850,0.21454
3037.73977,0.21330
3035.81105,0.21221
3033.88233,0.21118
3031.95360,0.21012
3030.02488,0.20897
3028.09615,0.20774
3026.16743,0.20654
3024.23871,0.20544
3022.30998,0.20436
3020.38126,0.20328
3018.45254,0.20229
3016.52381,0.20138
3014.59509,0.20039
3012.66636,0.19929
3010.73764,0.19827
3008.80892,0.19745
3006.88019,0.19670
3004.95147,0.19590
3003.02275,0.19504
3001.09402,0.19418
2999.16530,0.19340
2997.23658,0.19281
2995.30785,0.19237
2993.37913,0.19186
2991.45040,0.19126
2989.52168,0.19062
2987.59296,0.18999
2985.66423,0.18948
2983.73551,0.18915
2981.80679,0.18896
2979.87806,0.18878
2977.94934,0.18858
2976.02062,0.18846
2974.09189,0.18842
2972.16317,0.18836
2970.23444,0.18823
2968.30572,0.18818
2966.37700,0.18830
2964.44827,0.18844
2962.51955,0.18843
2960.59083,0.18832
2958.66210,0.18817
2956.73338,0.18790
2954.80466,0.18744
2952.87593,0.18676
2950.94721,0.18617
2949.01848,0.18593
2947.08976,0.18592
2945.16104,0.18607
2943.23231,0.18640
2941.30359,0.18686
2939.37487,0.18745
2937.44614,0.18820
2935.51742,0.18902
2933.58869,0.18977
2931.65997,0.19034
2929.73125,0.19067
2927.80252,0.19070
2925.87380,0.19033
2923.94508,0.18945
2922.01635,0.18793
2920.08763,0.18572
2918.15891,0.18310
2916.23018,0.18026
2914.30146,0.17726
2912.37273,0.17434
2910.44401,0.17165
2908.51529,0.16918
2906.58656,0.16698
2904.65784,0.16503
2902.72912,0.16328
2900.80039,0.16166
2898.87167,0.16000
2896.94295,0.15825
2895.01422,0.15652
2893.08550,0.15491
2891.15677,0.15346
2889.22805,0.15208
2887.29933,0.15072
2885.37060,0.14941
2883.44188,0.14812
2881.51316,0.14692
2879.58443,0.14595
2877.65571,0.14511
2875.72698,0.14433
2873.79826,0.14362
2871.86954,0.14287
2869.94081,0.14197
2868.01209,0.14101
2866.08337,0.14020
2864.15464,0.13972
2862.22592,0.13961
2860.29720,0.13984
2858.36847,0.14027
2856.43975,0.14081
2854.51102,0.14111
2852.58230,0.14056
2850.65358,0.13872
2848.72485,0.13575
2846.79613,0.13216
2844.86741,0.12852
2842.93868,0.12520
2841.00996,0.12237
2839.08124,0.11998
2837.15251,0.11783
2835.22379,0.11582
2833.29506,0.11406
2831.36634,0.11265
2829.43762,0.11137
2827.50889,0.11002
2825.58017,0.10869
2823.65145,0.10742
2821.72272,0.10619
2819.79400,0.10501
2817.86527,0.10392
2815.93655,0.10291
2814.00783,0.10193
2812.07910,0.10093
2810.15038,0.09992
2808.22166,0.09887
2806.29293,0.09782
2804.36421,0.09687
2802.43549,0.09606
2800.50676,0.09528
2798.57804,0.09442
2796.64931,0.09351
2794.72059,0.09255
2792.79187,0.09159
2790.86314,0.09065
2788.93442,0.08973
2787.00570,0.08881
2785.07697,0.08793
2783.14825,0.08709
2781.21953,0.08626
2779.29080,0.08547
2777.36208,0.08475
2775.43335,0.08399
2773.50463,0.08308
2771.57591,0.08218
2769.64718,0.08139
2767.71846,0.08068
2765.78974,0.07998
2763.86101,0.07923
2761.93229,0.07842
2760.00356,0.07760
2758.07484,0.07686
2756.14612,0.07615
2754.21739,0.07542
2752.28867,0.07472
2750.35995,0.07406
2748.43122,0.07337
2746.50250,0.07267
2744.57378,0.07198
2742.64505,0.07129
2740.71633,0.07054
2738.78760,0.06976
2736.85888,0.06902
2734.93016,0.06838
2733.00143,0.06778
2731.07271,0.06719
2729.14399,0.06656
2727.21526,0.06586
2725.28654,0.06520
2723.35782,0.06462
2721.42909,0.06395
2719.50037,0.06310
2717.57164,0.06229
2715.64292,0.06170
2713.71420,0.06119
2711.78547,0.06058
2709.85675,0.05986
2707.92803,0.05908
2705.99930,0.05837
2704.07058,0.05776
2702.14185,0.05716
2700.21313,0.05661
2698.28441,0.05608
2696.35568,0.05552
2694.42696,0.05496
2692.49824,0.05443
2690.56951,0.05384
2688.64079,0.05317
2686.71207,0.05250
2684.78334,0.05191
2682.85462,0.05143
2680.92589,0.05097
2678.99717,0.05042
2677.06845,0.04976
2675.13972,0.04906
2673.21100,0.04841
2671.28228,0.04787
2669.35355,0.04732
2667.42483,0.04670
2665.49611,0.04609
2663.56738,0.04557
2661.63866,0.04508
2659.70993,0.04454
2657.78121,0.04402
2655.85249,0.04354
2653.92376,0.04302
2651.99504,0.04248
2650.06632,0.04196
2648.13759,0.04141
2646.20887,0.04081
2644.28014,0.04021
2642.35142,0.03968
2640.42270,0.03926
2638.49397,0.03892
2636.56525,0.03853
2634.63653,0.03806
2632.70780,0.03756
2630.77908,0.03710
2628.85036,0.03668
2626.92163,0.03623
2624.99291,0.03571
2623.06418,0.03520
2621.13546,0.03474
2619.20674,0.03427
2617.27801,0.03380
2615.34929,0.03341
2613.42057,0.03305
2611.49184,0.03268
2609.56312,0.03225
2607.63440,0.03173
2605.70567,0.03125
2603.77695,0.03085
2601.84822,0.03043
2599.91950,0.02999
2597.99078,0.02959
2596.06205,0.02924
2594.13333,0.02895
2592.20461,0.02864
2590.27588,0.02823
2588.34716,0.02784
2586.41843,0.02749
2584.48971,0.02711
2582.56099,0.02675
2580.63226,0.02651
2578.70354,0.02626
2576.77482,0.02593
2574.84609,0.02558
2572.91737,0.02526
2570.98865,0.02495
2569.05992,0.02466
2567.13120,0.02437
2565.20247,0.02404
2563.27375,0.02368
2561.34503,0.02332
2559.41630,0.02302
2557.48758,0.02282
2555.55886,0.02260
2553.63013,0.02229
2551.70141,0.02198
2549.77269,0.02175
2547.84396,0.02154
2545.91524,0.02131
2543.98651,0.02105
2542.05779,0.02074
2540.12907,0.02046
2538.20034,0.02030
2536.27162,0.02017
2534.34290,0.01995
2532.41417,0.01960
2530.48545,0.01927
2528.55673,0.01905
2526.62800,0.01890
2524.69928,0.01870
2522.77055,0.01843
2520.84183,0.01813
2518.91311,0.01778
2516.98438,0.01748
2515.05566,0.01725
2513.12694,0.01708
2511.19821,0.01693
2509.26949,0.01678
2507.34076,0.01660
2505.41204,0.01634
2503.48332,0.01607
2501.55459,0.01585
2499.62587,0.01570
2497.69715,0.01552
2495.76842,0.01529
2493.83970,0.01505
2491.91098,0.01482
2489.98225,0.01462
2488.05353,0.01439
2486.12480,0.01413
2484.19608,0.01386
2482.26736,0.01360
2480.33863,0.01338
2478.40991,0.01320
2476.48119,0.01304
2474.55246,0.01288
2472.62374,0.01271
2470.69502,0.01249
2468.76629,0.01221
2466.83757,0.01193
2464.90884,0.01171
2462.98012,0.01156
2461.05140,0.01145
2459.12267,0.01129
2457.19395,0.01106
2455.26523,0.01082
2453.33650,0.01059
2451.40778,0.01039
2449.47905,0.01025
2447.55033,0.01009
2445.62161,0.00988
2443.69288,0.00968
2441.76416,0.00946
2439.83544,0.00919
2437.90671,0.00891
2435.97799,0.00868
2434.04927,0.00851
2432.12054,0.00833
2430.19182,0.00812
2428.26309,0.00792
2426.33437,0.00775
2424.40565,0.00761
2422.47692,0.00753
2420.54820,0.00752
2418.61948,0.00739
2416.69075,0.00709
2414.76203,0.00683
2412.83331,0.00670
2410.90458,0.00657
2408.97586,0.00637
2407.04713,0.00616
2405.11841,0.00604
2403.18969,0.00597
2401.26096,0.00584
2399.33224,0.00557
2397.40352,0.00530
2395.47479,0.00517
2393.54607,0.00512
2391.61734,0.00504
2389.68862,0.00494
2387.75990,0.00485
2385.83117,0.00475
2383.90245,0.00464
2381.97373,0.00455
2380.04500,0.00455
2378.11628,0.00460
2376.18756,0.00459
2374.25883,0.00453
2372.33011,0.00452
2370.40138,0.00459
2368.47266,0.00465
2366.54394,0.00464
2364.61521,0.00454
2362.68649,0.00441
2360.75777,0.00438
2358.82904,0.00435
2356.90032,0.00418
2354.97160,0.00393
2353.04287,0.00390
2351.11415,0.00423
2349.18542,0.00441
2347.25670,0.00402
2345.32798,0.00345
2343.39925,0.00320
2341.47053,0.00323
2339.54181,0.00336
2337.61308,0.00345
2335.68436,0.00334
2333.75563,0.00312
2331.82691,0.00298
2329.89819,0.00295
2327.96946,0.00292
2326.04074,0.00278
2324.11202,0.00263
2322.18329,0.00251
2320.25457,0.00239
2318.32585,0.00231
2316.39712,0.00225
2314.46840,0.00217
2312.53967,0.00212
2310.61095,0.00207
2308.68223,0.00194
2306.75350,0.00178
2304.82478,0.00167
2302.89606,0.00161
2300.96733,0.00155
2299.03861,0.00151
2297.10989,0.00145
2295.18116,0.00137
2293.25244,0.00133
2291.32371,0.00133
2289.39499,0.00128
2287.46627,0.00121
2285.53754,0.00118
2283.60882,0.00120
2281.68010,0.00117
2279.75137,0.00104
2277.82265,0.00091
2275.89392,0.00094
2273.96520,0.00106
2272.03648,0.00108
2270.10775,0.00096
2268.17903,0.00085
2266.25031,0.00080
2264.32158,0.00072
2262.39286,0.00064
2260.46414,0.00062
2258.53541,0.00065
2256.60669,0.00064
2254.67796,0.00057
2252.74924,0.00051
2250.82052,0.00047
2248.89179,0.00041
2246.96307,0.00042
2245.03435,0.00049
2243.10562,0.00056
2241.17690,0.00059
2239.24818,0.00053
2237.31945,0.00041
2235.39073,0.00032
2233.46200,0.00029
2231.53328,0.00031
2229.60456,0.00031
2227.67583,0.00025
2225.74711,0.00013
2223.81839,0.00002
2221.88966,-0.00004
2219.96094,0.00002
2218.03221,0.00017
2216.10349,0.00029
2214.17477,0.00024
2212.24604,0.00009
2210.31732,0.00003
2208.38860,0.00003
2206.45987,0.00000
2204.53115,-0.00002
2202.60243,0.00005
2200.67370,0.00009
2198.74498,0.00004
2196.81625,-0.00005
2194.88753,-0.00009
2192.95881,-0.00013
2191.03008,-0.00013
2189.10136,-0.00001
2187.17264,0.00011
2185.24391,0.00010
2183.31519,0.00002
2181.38647,-0.00001
2179.45774,0.00003
2177.52902,0.00008
2175.60029,0.00010
2173.67157,0.00012
2171.74285,0.00014
2169.81412,0.00015
2167.88540,0.00011
2165.95668,0.00005
2164.02795,0.00009
2162.09923,0.00019
2160.17050,0.00021
2158.24178,0.00018
2156.31306,0.00015
2154.38433,0.00013
2152.45561,0.00012
2150.52689,0.00012
2148.59816,0.00012
2146.66944,0.00010
2144.74072,0.00009
2142.81199,0.00010
2140.88327,0.00012
2138.95454,0.00011
2137.02582,0.00005
2135.09710,-0.00001
2133.16837,0.00002
2131.23965,0.00010
2129.31093,0.00013
2127.38220,0.00016
2125.45348,0.00020
2123.52476,0.00020
2121.59603,0.00020
2119.66731,0.00020
2117.73858,0.00011
2115.80986,-0.00001
2113.88114,-0.00004
2111.95241,-0.00006
2110.02369,-0.00013
2108.09497,-0.00013
2106.16624,-0.00002
2104.23752,0.00003
2102.30880,-0.00002
2100.38007,-0.00007
2098.45135,-0.00008
2096.52262,-0.00004
2094.59390,0.00000
2092.66518,-0.00008
2090.73645,-0.00022
2088.80773,-0.00040
2086.87901,-0.00054
2084.95028,-0.00057
2083.02156,-0.00050
2081.09283,-0.00048
2079.16411,-0.00057
2077.23539,-0.00069
2075.30666,-0.00074
2073.37794,-0.00074
2071.44922,-0.00075
2069.52049,-0.00074
2067.59177,-0.00069
2065.66305,-0.00064
2063.73432,-0.00064
2061.80560,-0.00064
2059.87687,-0.00059
2057.94815,-0.00051
2056.01943,-0.00046
2054.09070,-0.00041
2052.16198,-0.00029
2050.23326,-0.00015
2048.30453,-0.00007
2046.37581,0.00001
2044.44709,0.00016
2042.51836,0.00033
2040.58964,0.00048
2038.66091,0.00066
2036.73219,0.00087
2034.80347,0.00107
2032.87474,0.00120
2030.94602,0.00131
2029.01730,0.00148
2027.08857,0.00170
2025.15985,0.00195
2023.23112,0.00216
2021.30240,0.00232
2019.37368,0.00245
2017.44495,0.00258
2015.51623,0.00273
2013.58751,0.00287
2011.65878,0.00297
2009.73006,0.00309
2007.80134,0.00323
2005.87261,0.00333
2003.94389,0.00341
2002.01516,0.00345
2000.08644,0.00341
1998.15772,0.00339
1996.22899,0.00344
1994.30027,0.00349
1992.37155,0.00355
1990.44282,0.00359
1988.51410,0.00355
1986.58538,0.00347
1984.65665,0.00336
1982.72793,0.00325
1980.79920,0.00315
1978.87048,0.00310
1976.94176,0.00309
1975.01303,0.00306
1973.08431,0.00294
1971.15559,0.00278
1969.22686,0.00267
1967.29814,0.00257
1965.36941,0.00238
1963.44069,0.00218
1961.51197,0.00207
1959.58324,0.00196
1957.65452,0.00176
1955.72580,0.00154
1953.79707,0.00140
1951.86835,0.00131
1949.93963,0.00121
1948.01090,0.00104
1946.08218,0.00090
1944.15345,0.00083
1942.22473,0.00073
1940.29601,0.00049
1938.36728,0.00024
1936.43856,0.00011
1934.50984,0.00010
1932.58111,0.00012
1930.65239,0.00007
1928.72367,-0.00000
1926.79494,0.00000
1924.86622,0.00011
1922.93749,0.00029
1921.00877,0.00049
1919.08005,0.00068
1917.15132,0.00086
1915.22260,0.00104
1913.29388,0.00126
1911.36515,0.00153
1909.43643,0.00189
1907.50770,0.00231
1905.57898,0.00273
1903.65026,0.00317
1901.72153,0.00362
1899.79281,0.00408
1897.86409,0.00460
1895.93536,0.00518
1894.00664,0.00572
1892.07792,0.00618
1890.14919,0.00656
1888.22047,0.00688
1886.29174,0.00717
1884.36302,0.00747
1882.43430,0.00777
1880.50557,0.00804
1878.57685,0.00821
1876.64813,0.00832
1874.71940,0.00843
1872.79068,0.00856
1870.86196,0.00860
1868.93323,0.00848
1867.00451,0.00819
1865.07578,0.00781
1863.14706,0.00746
1861.21834,0.00713
1859.28961,0.00672
1857.36089,0.00621
1855.43217,0.00565
1853.50344,0.00511
1851.57472,0.00464
1849.64599,0.00421
1847.71727,0.00381
1845.78855,0.00341
1843.85982,0.00300
1841.93110,0.00258
1840.00238,0.00220
1838.07365,0.00187
1836.14493,0.00159
1834.21621,0.00132
1832.28748,0.00104
1830.35876,0.00079
1828.43003,0.00061
1826.50131,0.00049
1824.57259,0.00039
1822.64386,0.00030
1820.71514,0.00019
1818.78642,0.00004
1816.85769,-0.00004
1814.92897,0.00000
1813.00025,-0.00010
1811.07152,-0.00015
1809.14280,-0.00021
1807.21407,-0.00028
1805.28535,-0.00024
1803.35663,-0.00011
1801.42790,0.00002
1799.49918,0.00018
1797.57046,0.00043
1795.64173,0.00077
1793.71301,0.00120
1791.78428,0.00172
1789.85556,0.00222
1787.92684,0.00260
1785.99811,0.00297
1784.06939,0.00350
1782.14067,0.00423
1780.21194,0.00510
1778.28322,0.00595
1776.35450,0.00672
1774.42577,0.00754
1772.49705,0.00851
1770.56832,0.00943
1768.63960,0.01017
1766.71088,0.01082
1764.78215,0.01147
1762.85343,0.01220
1760.92471,0.01303
1758.99598,0.01387
1757.06726,0.01473
1755.13854,0.01563
1753.20981,0.01654
1751.28109,0.01773
1749.35236,0.01925
1747.42364,0.02077
1745.49492,0.02215
1743.56619,0.02359
1741.63747,0.02527
1739.70875,0.02713
1737.78002,0.02891
1735.85130,0.03075
1733.92257,0.03317
1731.99385,0.03576
1730.06513,0.03785
1728.13640,0.03964
1726.20768,0.04142
1724.27896,0.04332
1722.35023,0.04523
1720.42151,0.04712
1718.49279,0.04944
1716.56406,0.05227
1714.63534,0.05482
1712.70661,0.05686
1710.77789,0.05885
1708.84917,0.06117
1706.92044,0.06399
1704.99172,0.06709
1703.06300,0.07015
1701.13427,0.07370
1699.20555,0.07806
1697.27683,0.08245
1695.34810,0.08667
1693.41938,0.09048
1691.49065,0.09391
1689.56193,0.09744
1687.63321,0.10103
1685.70448,0.10521
1683.77576,0.11069
1681.84704,0.11584
1679.91831,0.11960
1677.98959,0.12285
1676.06087,0.12650
1674.13214,0.13045
1672.20342,0.13413
1670.27469,0.13786
1668.34597,0.14176
1666.41725,0.14502
1664.48852,0.14790
1662.55980,0.15103
1660.63108,0.15399
1658.70235,0.15615
1656.77363,0.15780
1654.84490,0.15977
1652.91618,0.16238
1650.98746,0.16437
1649.05873,0.16545
1647.13001,0.16654
1645.20129,0.16769
1643.27256,0.16840
1641.34384,0.16876
1639.41512,0.16899
1637.48639,0.16921
1635.55767,0.16935
1633.62894,0.16909
1631.70022,0.16837
1629.77150,0.16728
1627.84277,0.16586
1625.91405,0.16409
1623.98533,0.16181
1622.05660,0.15914
1620.12788,0.15647
1618.19916,0.15355
1616.27043,0.15005
1614.34171,0.14662
1612.41298,0.14358
1610.48426,0.14045
1608.55554,0.13701
1606.62681,0.13351
1604.69809,0.13018
1602.76937,0.12704
1600.84064,0.12406
1598.91192,0.12125
1596.98319,0.11856
1595.05447,0.11592
1593.12575,0.11334
1591.19702,0.11089
1589.26830,0.10853
1587.33958,0.10623
1585.41085,0.10396
1583.48213,0.10181
1581.55341,0.09985
1579.62468,0.09800
1577.69596,0.09607
1575.76723,0.09407
1573.83851,0.09240
1571.90979,0.09108
1569.98106,0.08982
1568.05234,0.08855
1566.12362,0.08735
1564.19489,0.08618
1562.26617,0.08504
1560.33745,0.08386
1558.40872,0.08261
1556.48000,0.08145
1554.55127,0.08032
1552.62255,0.07915
1550.69383,0.07795
1548.76510,0.07672
1546.83638,0.07541
1544.90766,0.07393
1542.97893,0.07217
1541.05021,0.06994
1539.12148,0.06741
1537.19276,0.06540
1535.26404,0.06364
1533.33531,0.06144
1531.40659,0.05906
1529.47787,0.05690
1527.54914,0.05470
1525.62042,0.05230
1523.69170,0.04977
1521.76297,0.04704
1519.83425,0.04433
1517.90552,0.04183
1515.97680,0.03933
1514.04808,0.03689
1512.11935,0.03461
1510.19063,0.03225
1508.26191,0.02916
1506.33318,0.02513
1504.40446,0.02155
1502.47574,0.01893
1500.54701,0.01656
1498.61829,0.01409
1496.68956,0.01161
1494.76084,0.00949
1492.83212,0.00789
1490.90339,0.00662
1488.97467,0.00550
1487.04595,0.00466
1485.11722,0.00424
1483.18850,0.00429
1481.25977,0.00476
1479.33105,0.00554
1477.40233,0.00662
1475.47360,0.00833
1473.54488,0.01116
1471.61616,0.01470
1469.68743,0.01759
1467.75871,0.01959
1465.82999,0.02124
1463.90126,0.02262
1461.97254,0.02349
1460.04381,0.02406
1458.11509,0.02488
1456.18637,0.02595
1454.25764,0.02664
1452.32892,0.02686
1450.40020,0.02695
1448.47147,0.02714
1446.54275,0.02741
1444.61403,0.02767
1442.68530,0.02791
1440.75658,0.02816
1438.82785,0.02841
1436.89913,0.02873
1434.97041,0.02905
1433.04168,0.02939
1431.11296,0.02991
1429.18424,0.03063
1427.25551,0.03127
1425.32679,0.03171
1423.39806,0.03207
1421.46934,0.03250
1419.54062,0.03316
1417.61189,0.03392
1415.68317,0.03441
1413.75445,0.03467
1411.82572,0.03497
1409.89700,0.03536
1407.96828,0.03571
1406.03955,0.03590
1404.11083,0.03591
1402.18210,0.03564
1400.25338,0.03503
1398.32466,0.03406
1396.39593,0.03267
1394.46721,0.03091
1392.53849,0.02911
1390.60976,0.02754
1388.68104,0.02598
1386.75232,0.02434
1384.82359,0.02297
1382.89487,0.02214
1380.96614,0.02158
1379.03742,0.02084
1377.10870,0.01977
1375.17997,0.01846
1373.25125,0.01703
1371.32253,0.01559
1369.39380,0.01419
1367.46508,0.01285
1365.53635,0.01152
1363.60763,0.01012
1361.67891,0.00875
1359.75018,0.00763
1357.82146,0.00671
1355.89274,0.00582
1353.96401,0.00494
1352.03529,0.00420
1350.10657,0.00358
1348.17784,0.00298
1346.24912,0.00242
1344.32039,0.00195
1342.39167,0.00152
1340.46295,0.00107
1338.53422,0.00061
1336.60550,0.00019
1334.67678,-0.00015
1332.74805,-0.00037
1330.81933,-0.00049
1328.89061,-0.00061
1326.96188,-0.00076
1325.03316,-0.00093
1323.10443,-0.00104
1321.17571,-0.00104
1319.24699,-0.00094
1317.31826,-0.00080
1315.38954,-0.00067
1313.46082,-0.00041
1311.53209,0.00000
1309.60337,0.00042
1307.67464,0.00085
1305.74592,0.00136
1303.81720,0.00192
1301.88847,0.00258
1299.95975,0.00351
1298.03103,0.00478
1296.10230,0.00631
1294.17358,0.00804
1292.24486,0.00995
1290.31613,0.01202
1288.38741,0.01425
1286.45868,0.01676
1284.52996,0.01975
1282.60124,0.02313
1280.67251,0.02667
1278.74379,0.03036
1276.81507,0.03432
1274.88634,0.03872
1272.95762,0.04382
1271.02890,0.04963
1269.10017,0.05587
1267.17145,0.06264
1265.24272,0.07030
1263.31400,0.07904
1261.38528,0.08896
1259.45655,0.10006
1257.52783,0.11208
1255.59911,0.12476
1253.67038,0.13793
1251.74166,0.15134
1249.81294,0.16457
1247.88421,0.17713
1245.95549,0.18869
1244.02676,0.19934
1242.09804,0.20925
1240.16932,0.21847
1238.24059,0.22703
1236.31187,0.23490
1234.38315,0.24208
1232.45442,0.24852
1230.52570,0.25416
1228.59697,0.25910
1226.66825,0.26364
1224.73953,0.26803
1222.81080,0.27212
1220.88208,0.27586
1218.95336,0.27950
1217.02463,0.28297
1215.09591,0.28614
1213.16719,0.28915
1211.23846,0.29225
1209.30974,0.29545
1207.38101,0.29842
1205.45229,0.30084
1203.52357,0.30292
1201.59484,0.30519
1199.66612,0.30782
1197.73740,0.31055
1195.80867,0.31313
1193.87995,0.31557
1191.95123,0.31799
1190.02250,0.32045
1188.09378,0.32288
1186.16505,0.32528
1184.23633,0.32757
1182.30761,0.32961
1180.37888,0.33178
1178.45016,0.33437
1176.52144,0.33706
1174.59271,0.33971
1172.66399,0.34240
1170.73526,0.34492
1168.80654,0.34704
1166.87782,0.34896
1164.94909,0.35110
1163.02037,0.35368
1161.09165,0.35633
1159.16292,0.35857
1157.23420,0.36046
1155.30548,0.36201
1153.37675,0.36325
1151.44803,0.36475
1149.51930,0.36679
1147.59058,0.36898
1145.66186,0.37119
1143.73313,0.37372
1141.80441,0.37633
1139.87569,0.37861
1137.94696,0.38071
1136.01824,0.38309
1134.08952,0.38592
1132.16079,0.38878
1130.23207,0.39161
1128.30334,0.39474
1126.37462,0.39798
1124.44590,0.40136
1122.51717,0.40519
1120.58845,0.40920
1118.65973,0.41348
1116.73100,0.41890
1114.80228,0.42549
1112.87355,0.43276
1110.94483,0.44036
1109.01611,0.44776
1107.08738,0.45472
1105.15866,0.46132
1103.22994,0.46766
1101.30121,0.47343
1099.37249,0.47801
1097.44377,0.48128
1095.51504,0.48331
1093.58632,0.48431
1091.65759,0.48502
1089.72887,0.48586
1087.80015,0.48592
1085.87142,0.48441
1083.94270,0.48201
1082.01398,0.48008
1080.08525,0.47902
1078.15653,0.47738
1076.22781,0.47406
1074.29908,0.46973
1072.37036,0.46520
1070.44163,0.46032
1068.51291,0.45504
1066.58419,0.44977
1064.65546,0.44438
1062.72674,0.43878
1060.79802,0.43269
1058.86929,0.42590
1056.94057,0.41912
1055.01184,0.41240
1053.08312,0.40506
1051.15440,0.39720
1049.22567,0.38937
1047.29695,0.38137
1045.36823,0.37322
1043.43950,0.36505
1041.51078,0.35659
1039.58206,0.34819
1037.65333,0.34002
1035.72461,0.33152
1033.79588,0.32265
1031.86716,0.31414
1029.93844,0.30642
1028.00971,0.29906
1026.08099,0.29157
1024.15227,0.28418
1022.22354,0.27737
1020.29482,0.27133
1018.36610,0.26602
1016.43737,0.26104
1014.50865,0.25595
1012.57992,0.25094
1010.65120,0.24617
1008.72248,0.24157
1006.79375,0.23727
1004.86503,0.23350
1002.93631,0.23019
1001.00758,0.22690
999.07886,0.22350
997.15013,0.22026
995.22141,0.21709
993.29269,0.21380
991.36396,0.21073
989.43524,0.20808
987.50652,0.20560
985.57779,0.20336
983.64907,0.20176
981.72035,0.20052
979.79162,0.19920
977.86290,0.19807
975.93417,0.19749
974.00545,0.19712
972.07673,0.19646
970.14800,0.19563
968.21928,0.19510
966.29056,0.19483
964.36183,0.19438
962.43311,0.19374
960.50439,0.19318
958.57566,0.19258
956.64694,0.19161
954.71821,0.19035
952.78949,0.18907
950.86077,0.18774
948.93204,0.18602
947.00332,0.18368
945.07460,0.18123
943.14587,0.17901
941.21715,0.17656
939.28842,0.17375
937.35970,0.17063
935.43098,0.16699
933.50225,0.16313
931.57353,0.15947
929.64481,0.15578
927.71608,0.15183
925.78736,0.14812
923.85864,0.14464
921.92991,0.14056
920.00119,0.13588
918.07246,0.13113
916.14374,0.12617
914.21502,0.12110
912.28629,0.11640
910.35757,0.11191
908.42885,0.10728
906.50012,0.10266
904.57140,0.09811
902.64268,0.09336
900.71395,0.08850
898.78523,0.08387
896.85650,0.07946
894.92778,0.07506
892.99906,0.07085
891.07033,0.06708
889.14161,0.06344
887.21289,0.05952
885.28416,0.05554
883.35544,0.05193
881.42671,0.04861
879.49799,0.04526
877.56927,0.04181
875.64054,0.03840
873.71182,0.03543
871.78310,0.03312
869.85437,0.03082
867.92565,0.02803
865.99693,0.02535
864.06820,0.02339
862.13948,0.02175
860.21075,0.01998
858.28203,0.01833
856.35331,0.01687
854.42458,0.01517
852.49586,0.01339
850.56714,0.01244
848.63841,0.01258
846.70969,0.01328
844.78097,0.01425
842.85224,0.01545
840.92352,0.01710
838.99479,0.01967
837.06607,0.02317
835.13735,0.02671
833.20862,0.02993
831.27990,0.03341
829.35118,0.03708
827.42245,0.04049
825.49373,0.04388
823.56501,0.04755
821.63628,0.05112
819.70756,0.05421
817.77883,0.05720
815.85011,0.06066
813.92139,0.06431
811.99266,0.06757
810.06394,0.07070
808.13522,0.07399
806.20649,0.07704
804.27777,0.07925
802.34904,0.08045
800.42032,0.08116
798.49160,0.08183
796.56287,0.08196
794.63415,0.08109
792.70543,0.07967
790.77670,0.07815
788.84798,0.07645
786.91926,0.07434
784.99053,0.07149
783.06181,0.06797
781.13308,0.06425
779.20436,0.06049
777.27564,0.05646
775.34691,0.05201
773.41819,0.04756
771.48947,0.04369
769.56074,0.04050
767.63202,0.03821
765.70330,0.03683
763.77457,0.03585
761.84585,0.03501
759.91712,0.03442
757.98840,0.03417
756.05968,0.03403
754.13095,0.03348
752.20223,0.03244
750.27351,0.03163
748.34478,0.03148
746.41606,0.03149
744.48733,0.03108
742.55861,0.03041
740.62989,0.03005
738.70116,0.02987
736.77244,0.02979
734.84372,0.03033
732.91499,0.03103
730.98627,0.03109
729.05755,0.03077
727.12882,0.03063
725.20010,0.03095
723.27137,0.03159
721.34265,0.03231
719.41393,0.03287
717.48520,0.03293
715.55648,0.03235
713.62776,0.03203
711.69903,0.03299
709.77031,0.03472
707.84159,0.03586
705.91286,0.03627
703.98414,0.03688
702.05541,0.03778
700.12669,0.03834
698.19797,0.03883
696.26924,0.03971
694.34052,0.04080
692.41180,0.04191
690.48307,0.04277
688.55435,0.04304
686.62562,0.04305
684.69690,0.04323
682.76818,0.04340
680.83945,0.04326
678.91073,0.04288
676.98201,0.04245
675.05328,0.04207
673.12456,0.04155
671.19584,0.04048
669.26711,0.03939
667.33839,0.04013
665.40966,0.04214
663.48094,0.04331
661.55222,0.04383
659.62349,0.04428
657.69477,0.04448
655.76605,0.04464
653.83732,0.04521
651.90860,0.04630
649.97988,0.04801
648.05115,0.05029
646.12243,0.05245
644.19370,0.05386
642.26498,0.05493
640.33626,0.05625
638.40753,0.05762
636.47881,0.05890
634.55009,0.06039
632.62136,0.06225
630.69264,0.06435
628.76391,0.06650
626.83519,0.06835
624.90647,0.06930
622.97774,0.06931
621.04902,0.06909
619.12030,0.06966
617.19157,0.07119
615.26285,0.07253
613.33413,0.07300
611.40540,0.07342
609.47668,0.07464
607.54795,0.07636
605.61923,0.07820
603.69051,0.08022
601.76178,0.08229
599.83306,0.08415
597.90434,0.08562
595.97561,0.08664
594.04689,0.08751
592.11817,0.08870
590.18944,0.09012
588.26072,0.09138
586.33199,0.09265
584.40327,0.09383
582.47455,0.09451
580.54582,0.09536
578.61710,0.09650
576.68838,0.09710
574.75965,0.09771
572.83093,0.09884
570.90220,0.09967
568.97348,0.09981
567.04476,0.09902
565.11603,0.09756
563.18731,0.09679
561.25859,0.09736
559.32986,0.09794
557.40114,0.09707
555.47242,0.09581
553.54369,0.09614
551.61497,0.09809
549.68624,0.10018
547.75752,0.10102
545.82880,0.10061
543.90007,0.10021
541.97135,0.10020
540.04263,0.09922
538.11390,0.09711
536.18518,0.09617
534.25646,0.09747
532.32773,0.09913
530.39901,0.09899
528.47028,0.09694
526.54156,0.09460
524.61284,0.09357
522.68411,0.09424
520.75539,0.09596
518.82667,0.09817
516.89794,0.10075
514.96922,0.10285
513.04049,0.10391
511.11177,0.10512
509.18305,0.10735
507.25432,0.11088
505.32560,0.11600
503.39688,0.12209
501.46815,0.12807
499.53943,0.13363
497.61071,0.13957
495.68198,0.14640
493.75326,0.15306
491.82453,0.15913
489.89581,0.16686
487.96709,0.17818
486.03836,0.19122
484.10964,0.20208
482.18092,0.20888
480.25219,0.21371
478.32347,0.21996
476.39475,0.22825
474.46602,0.23664
472.53730,0.24272
470.60857,0.24548
468.67985,0.24759
466.75113,0.25152
464.82240,0.25408
462.89368,0.25060
460.96496,0.24203
459.03623,0.23295
457.10751,0.22606
455.17878,0.22047
453.25006,0.21459
451.32134,0.20826
449.39261,0.20036
447.46389,0.19057
445.53517,0.18388
443.60644,0.18489
441.67772,0.18831
439.74900,0.18618
437.82027,0.17978
435.89155,0.17348
433.96282,0.16768
432.03410,0.15971
430.10538,0.14782
428.17665,0.13606
426.24793,0.12813
424.31921,0.12003
422.39048,0.10859
420.46176,0.09699
418.53304,0.08704
416.60431,0.07827
414.67559,0.07122
412.74686,0.06746
410.81814,0.06823
408.88942,0.06918
406.96069,0.06420
405.03197,0.05599
403.10325,0.05205
401.17452,0.05156
399.24580,0.04890
397.31708,0.04611
395.38835,0.04368
393.45963,0.03500
391.53090,0.02631
389.60218,0.02730
387.67346,0.03699
385.74473,0.04920
383.81601,0.05789
381.88729,0.06040
379.95856,0.06005
378.02984,0.05446
376.10111,0.03201
374.17239,0.00211
372.24367,0.00000
370.31494,0.00756
368.38622,0.00000
