3996.31543,0.00000
3994.38671,0.00004
3992.45799,0.00004
3990.52926,0.00002
3988.60054,0.00002
3986.67182,0.00013
3984.74309,0.00031
3982.81437,0.00048
3980.88564,0.00062
3978.95692,0.00070
3977.02820,0.00066
3975.09947,0.00058
3973.17075,0.00057
3971.24203,0.00066
3969.31330,0.00077
3967.38458,0.00085
3965.45586,0.00098
3963.52713,0.00108
3961.59841,0.00104
3959.66968,0.00096
3957.74096,0.00096
3955.81224,0.00108
3953.88351,0.00128
3951.95479,0.00142
3950.02607,0.00133
3948.09734,0.00113
3946.16862,0.00111
3944.23990,0.00119
3942.31117,0.00107
3940.38245,0.00088
3938.45372,0.00090
3936.52500,0.00115
3934.59628,0.00139
3932.66755,0.00130
3930.73883,0.00103
3928.81011,0.00106
3926.88138,0.00135
3924.95266,0.00144
3923.02393,0.00133
3921.09521,0.00141
3919.16649,0.00154
3917.23776,0.00136
3915.30904,0.00100
3913.38032,0.00090
3911.45159,0.00116
3909.52287,0.00170
3907.59415,0.00236
3905.66542,0.00270
3903.73670,0.00237
3901.80797,0.00163
3899.87925,0.00100
3897.95053,0.00076
3896.02180,0.00109
3894.09308,0.00159
3892.16436,0.00155
3890.23563,0.00116
3888.30691,0.00115
3886.37819,0.00133
3884.44946,0.00135
3882.52074,0.00139
3880.59201,0.00120
3878.66329,0.00103
3876.73457,0.00141
3874.80584,0.00195
3872.87712,0.00215
3870.94840,0.00186
3869.01967,0.00132
3867.09095,0.00119
3865.16222,0.00129
3863.23350,0.00113
3861.30478,0.00105
3859.37605,0.00161
3857.44733,0.00276
3855.51861,0.00353
3853.58988,0.00254
3851.66116,0.00064
3849.73244,0.00000
3847.80371,0.00053
3845.87499,0.00129
3843.94626,0.00178
3842.01754,0.00202
3840.08882,0.00201
3838.16009,0.00158
3836.23137,0.00114
3834.30265,0.00113
3832.37392,0.00117
3830.44520,0.00107
3828.51648,0.00115
3826.58775,0.00158
3824.65903,0.00225
3822.73030,0.00263
3820.80158,0.00231
3818.87286,0.00192
3816.94413,0.00164
3815.01541,0.00116
3813.08669,0.00112
3811.15796,0.00183
3809.22924,0.00266
3807.30052,0.00299
3805.37179,0.00304
3803.44307,0.00307
3801.51434,0.00264
3799.58562,0.00216
3797.65690,0.00224
3795.72817,0.00249
3793.79945,0.00271
3791.87073,0.00304
3789.94200,0.00345
3788.01328,0.00389
3786.08455,0.00426
3784.15583,0.00451
3782.22711,0.00476
3780.29838,0.00484
3778.36966,0.00472
3776.44094,0.00491
3774.51221,0.00555
3772.58349,0.00615
3770.65477,0.00626
3768.72604,0.00615
3766.79732,0.00635
3764.86859,0.00687
3762.93987,0.00762
3761.01115,0.00830
3759.08242,0.00851
3757.15370,0.00863
3755.22498,0.00937
3753.29625,0.01047
3751.36753,0.01103
3749.43881,0.01126
3747.51008,0.01213
3745.58136,0.01318
3743.65263,0.01363
3741.72391,0.01422
3739.79519,0.01557
3737.86646,0.01709
3735.93774,0.01801
3734.00902,0.01851
3732.08029,0.01952
3730.15157,0.02133
3728.22284,0.02343
3726.29412,0.02534
3724.36540,0.02711
3722.43667,0.02909
3720.50795,0.03136
3718.57923,0.03385
3716.65050,0.03671
3714.72178,0.04007
3712.79306,0.04366
3710.86433,0.04692
3708.93561,0.04993
3707.00688,0.05330
3705.07816,0.05721
3703.14944,0.06130
3701.22071,0.06528
3699.29199,0.06912
3697.36327,0.07302
3695.43454,0.07703
3693.50582,0.08101
3691.57710,0.08493
3689.64837,0.08894
3687.71965,0.09322
3685.79092,0.09774
3683.86220,0.10242
3681.93348,0.10732
3680.00475,0.11243
3678.07603,0.11771
3676.14731,0.12327
3674.21858,0.12890
3672.28986,0.13430
3670.36113,0.13990
3668.43241,0.14562
3666.50369,0.15083
3664.57496,0.15560
3662.64624,0.16024
3660.71752,0.16491
3658.78879,0.16966
3656.86007,0.17442
3654.93135,0.17891
3653.00262,0.18294
3651.07390,0.18676
3649.14517,0.19076
3647.21645,0.19497
3645.28773,0.19910
3643.35900,0.20305
3641.43028,0.20687
3639.50156,0.21048
3637.57283,0.21382
3635.64411,0.21697
3633.71539,0.22001
3631.78666,0.22304
3629.85794,0.22609
3627.92921,0.22911
3626.00049,0.23215
3624.07177,0.23517
3622.14304,0.23786
3620.21432,0.23990
3618.28560,0.24159
3616.35687,0.24350
3614.42815,0.24568
3612.49942,0.24779
3610.57070,0.24969
3608.64198,0.25145
3606.71325,0.25340
3604.78453,0.25576
3602.85581,0.25814
3600.92708,0.26005
3598.99836,0.26142
3597.06964,0.26267
3595.14091,0.26414
3593.21219,0.26589
3591.28346,0.26777
3589.35474,0.26967
3587.42602,0.27156
3585.49729,0.27338
3583.56857,0.27496
3581.63985,0.27633
3579.71112,0.27774
3577.78240,0.27927
3575.85368,0.28091
3573.92495,0.28263
3571.99623,0.28434
3570.06750,0.28591
3568.13878,0.28726
3566.21006,0.28858
3564.28133,0.29002
3562.35261,0.29151
3560.42389,0.29300
3558.49516,0.29445
3556.56644,0.29584
3554.63771,0.29716
3552.70899,0.29848
3550.78027,0.29995
3548.85154,0.30153
3546.92282,0.30295
3544.99410,0.30407
3543.06537,0.30505
3541.13665,0.30613
3539.20793,0.30739
3537.27920,0.30872
3535.35048,0.30999
3533.42175,0.31123
3531.49303,0.31248
3529.56431,0.31362
3527.63558,0.31467
3525.70686,0.31577
3523.77814,0.31683
3521.84941,0.31776
3519.92069,0.31873
3517.99197,0.31991
3516.06324,0.32124
3514.13452,0.32251
3512.20579,0.32359
3510.27707,0.32455
3508.34835,0.32566
3506.41962,0.32689
3504.49090,0.32800
3502.56218,0.32889
3500.63345,0.32974
3498.70473,0.33063
3496.77600,0.33143
3494.84728,0.33230
3492.91856,0.33332
3490.98983,0.33440
3489.06111,0.33554
3487.13239,0.33669
3485.20366,0.33766
3483.27494,0.33844
3481.34622,0.33921
3479.41749,0.34001
3477.48877,0.34080
3475.56004,0.34152
3473.63132,0.34214
3471.70260,0.34275
3469.77387,0.34349
3467.84515,0.34446
3465.91643,0.34548
3463.98770,0.34619
3462.05898,0.34663
3460.13026,0.34714
3458.20153,0.34778
3456.27281,0.34833
3454.34408,0.34885
3452.41536,0.34941
3450.48664,0.35000
3448.55791,0.35068
3446.62919,0.35149
3444.70047,0.35222
3442.77174,0.35277
3440.84302,0.35327
3438.91429,0.35365
3436.98557,0.35388
3435.05685,0.35404
3433.12812,0.35420
3431.19940,0.35446
3429.27068,0.35474
3427.34195,0.35509
3425.41323,0.35555
3423.48451,0.35601
3421.55578,0.35628
3419.62706,0.35646
3417.69833,0.35674
3415.76961,0.35707
3413.84089,0.35718
3411.91216,0.35712
3409.98344,0.35714
3408.05472,0.35731
3406.12599,0.35754
3404.19727,0.35781
3402.26855,0.35792
3400.33982,0.35777
3398.41110,0.35746
3396.48237,0.35719
3394.55365,0.35702
3392.62493,0.35686
3390.69620,0.35666
3388.76748,0.35651
3386.83876,0.35635
3384.91003,0.35618
3382.98131,0.35605
3381.05259,0.35584
3379.12386,0.35554
3377.19514,0.35518
3375.26641,0.35469
3373.33769,0.35418
3371.40897,0.35369
3369.48024,0.35319
3367.55152,0.35284
3365.62280,0.35267
3363.69407,0.35235
3361.76535,0.35186
3359.83662,0.35143
3357.90790,0.35105
3355.97918,0.35064
3354.05045,0.35023
3352.12173,0.34976
3350.19301,0.34911
3348.26428,0.34839
3346.33556,0.34784
3344.40684,0.34763
3342.47811,0.34751
3340.54939,0.34718
3338.62066,0.34674
3336.69194,0.34620
3334.76322,0.34546
3332.83449,0.34473
3330.90577,0.34409
3328.97705,0.34334
3327.04832,0.34256
3325.11960,0.34199
3323.19088,0.34154
3321.26215,0.34106
3319.33343,0.34061
3317.40470,0.34019
3315.47598,0.33970
3313.54726,0.33907
3311.61853,0.33836
3309.68981,0.33770
3307.76109,0.33715
3305.83236,0.33671
3303.90364,0.33629
3301.97491,0.33583
3300.04619,0.33537
3298.11747,0.33478
3296.18874,0.33401
3294.26002,0.33339
3292.33130,0.33309
3290.40257,0.33288
3288.47385,0.33245
3286.54513,0.33193
3284.61640,0.33151
3282.68768,0.33114
3280.75895,0.33070
3278.83023,0.33014
3276.90151,0.32958
3274.97278,0.32903
3273.04406,0.32823
3271.11534,0.32729
3269.18661,0.32660
3267.25789,0.32628
3265.32917,0.32607
3263.40044,0.32562
3261.47172,0.32478
3259.54299,0.32385
3257.61427,0.32307
3255.68555,0.32253
3253.75682,0.32219
3251.82810,0.32176
3249.89938,0.32109
3247.97065,0.32037
3246.04193,0.31970
3244.11320,0.31896
3242.18448,0.31819
3240.25576,0.31760
3238.32703,0.31710
3236.39831,0.31648
3234.46959,0.31574
3232.54086,0.31509
3230.61214,0.31449
3228.68342,0.31377
3226.75469,0.31298
3224.82597,0.31227
3222.89724,0.31152
3220.96852,0.31066
3219.03980,0.30979
3217.11107,0.30888
3215.18235,0.30787
3213.25363,0.30684
3211.32490,0.30591
3209.39618,0.30499
3207.46746,0.30401
3205.53873,0.30302
3203.61001,0.30210
3201.68128,0.30125
3199.75256,0.30035
3197.82384,0.29929
3195.89511,0.29817
3193.96639,0.29717
3192.03767,0.29637
3190.10894,0.29560
3188.18022,0.29461
3186.25149,0.29346
3184.32277,0.29235
3182.39405,0.29124
3180.46532,0.29007
3178.53660,0.28886
3176.60788,0.28768
3174.67915,0.28656
3172.75043,0.28553
3170.82171,0.28457
3168.89298,0.28354
3166.96426,0.28234
3165.03553,0.28107
3163.10681,0.27988
3161.17809,0.27875
3159.24936,0.27765
3157.32064,0.27652
3155.39192,0.27543
3153.46319,0.27440
3151.53447,0.27328
3149.60575,0.27197
3147.67702,0.27061
3145.74830,0.26940
3143.81957,0.26826
3141.89085,0.26712
3139.96213,0.26612
3138.03340,0.26528
3136.10468,0.26443
3134.17596,0.26336
3132.24723,0.26213
3130.31851,0.26096
3128.38978,0.25980
3126.46106,0.25850
3124.53234,0.25713
3122.60361,0.25588
3120.67489,0.25477
3118.74617,0.25363
3116.81744,0.25250
3114.88872,0.25143
3112.96000,0.25025
3111.03127,0.24894
3109.10255,0.24768
3107.17382,0.24640
3105.24510,0.24499
3103.31638,0.24353
3101.38765,0.24214
3099.45893,0.24082
3097.53021,0.23948
3095.60148,0.23807
3093.67276,0.23664
3091.74404,0.23524
3089.81531,0.23392
3087.88659,0.23259
3085.95786,0.23120
3084.02914,0.22973
3082.10042,0.22829
3080.17169,0.22694
3078.24297,0.22559
3076.31425,0.22415
3074.38552,0.22271
3072.45680,0.22133
3070.52807,0.21995
3068.59935,0.21851
3066.67063,0.21710
3064.74190,0.21574
3062.81318,0.21439
3060.88446,0.21294
3058.95573,0.21134
3057.02701,0.20987
3055.09829,0.20868
3053.16956,0.20757
3051.24084,0.20633
3049.31211,0.20502
3047.38339,0.20377
3045.45467,0.20262
3043.52594,0.20153
3041.59722,0.20044
3039.66850,0.19924
3037.73977,0.19798
3035.81105,0.19684
3033.88233,0.19577
3031.95360,0.19466
3030.02488,0.19351
3028.09615,0.19244
3026.16743,0.19144
3024.23871,0.19039
3022.30998,0.18926
3020.38126,0.18816
3018.45254,0.18715
3016.52381,0.18616
3014.59509,0.18517
3012.66636,0.18421
3010.73764,0.18332
3008.80892,0.18245
3006.88019,0.18151
3004.95147,0.18051
3003.02275,0.17956
3001.09402,0.17873
2999.16530,0.17799
2997.23658,0.17727
2995.30785,0.17658
2993.37913,0.17591
2991.45040,0.17523
2989.52168,0.17457
2987.59296,0.17405
2985.66423,0.17365
2983.73551,0.17323
2981.80679,0.17277
2979.87806,0.17234
2977.94934,0.17190
2976.02062,0.17148
2974.09189,0.17114
2972.16317,0.17087
2970.23444,0.17065
2968.30572,0.17059
2966.37700,0.17057
2964.44827,0.17041
2962.51955,0.17016
2960.59083,0.16990
2958.66210,0.16952
2956.73338,0.16902
2954.80466,0.16849
2952.87593,0.16800
2950.94721,0.16765
2949.01848,0.16748
2947.08976,0.16742
2945.16104,0.16756
2943.23231,0.16791
2941.30359,0.16838
2939.37487,0.16888
2937.44614,0.16942
2935.51742,0.16990
2933.58869,0.17021
2931.65997,0.17044
2929.73125,0.17051
2927.80252,0.17007
2925.87380,0.16906
2923.94508,0.16756
2922.01635,0.16545
2920.08763,0.16277
2918.15891,0.15993
2916.23018,0.15735
2914.30146,0.15500
2912.37273,0.15281
2910.44401,0.15086
2908.51529,0.14903
2906.58656,0.14718
2904.65784,0.14544
2902.72912,0.14387
2900.80039,0.14224
2898.87167,0.14053
2896.94295,0.13895
2895.01422,0.13752
2893.08550,0.13608
2891.15677,0.13467
2889.22805,0.13333
2887.29933,0.13204
2885.37060,0.13086
2883.44188,0.12982
2881.51316,0.12888
2879.58443,0.12798
2877.65571,0.12715
2875.72698,0.12644
2873.79826,0.12575
2871.86954,0.12491
2869.94081,0.12396
2868.01209,0.12308
2866.08337,0.12241
2864.15464,0.12203
2862.22592,0.12200
2860.29720,0.12215
2858.36847,0.12229
2856.43975,0.12224
2854.51102,0.12173
2852.58230,0.12044
2850.65358,0.11835
2848.72485,0.11569
2846.79613,0.11284
2844.86741,0.11006
2842.93868,0.10745
2841.00996,0.10508
2839.08124,0.10305
2837.15251,0.10130
2835.22379,0.09974
2833.29506,0.09829
2831.36634,0.09689
2829.43762,0.09555
2827.50889,0.09437
2825.58017,0.09332
2823.65145,0.09228
2821.72272,0.09123
2819.79400,0.09026
2817.86527,0.08937
2815.93655,0.08849
2814.00783,0.08757
2812.07910,0.08666
2810.15038,0.08579
2808.22166,0.08490
2806.29293,0.08397
2804.36421,0.08305
2802.43549,0.08223
2800.50676,0.08149
2798.57804,0.08077
2796.64931,0.08005
2794.72059,0.07929
2792.79187,0.07848
2790.86314,0.07768
2788.93442,0.07693
2787.00570,0.07620
2785.07697,0.07541
2783.14825,0.07460
2781.21953,0.07381
2779.29080,0.07310
2777.36208,0.07246
2775.43335,0.07184
2773.50463,0.07114
2771.57591,0.07036
2769.64718,0.06958
2767.71846,0.06883
2765.78974,0.06815
2763.86101,0.06752
2761.93229,0.06689
2760.00356,0.06623
2758.07484,0.06557
2756.14612,0.06493
2754.21739,0.06433
2752.28867,0.06374
2750.35995,0.06307
2748.43122,0.06233
2746.50250,0.06165
2744.57378,0.06104
2742.64505,0.06041
2740.71633,0.05978
2738.78760,0.05918
2736.85888,0.05862
2734.93016,0.05805
2733.00143,0.05743
2731.07271,0.05681
2729.14399,0.05622
2727.21526,0.05566
2725.28654,0.05514
2723.35782,0.05457
2721.42909,0.05395
2719.50037,0.05331
2717.57164,0.05265
2715.64292,0.05203
2713.71420,0.05149
2711.78547,0.05096
2709.85675,0.05044
2707.92803,0.04992
2705.99930,0.04937
2704.07058,0.04875
2702.14185,0.04815
2700.21313,0.04763
2698.28441,0.04712
2696.35568,0.04649
2694.42696,0.04583
2692.49824,0.04526
2690.56951,0.04476
2688.64079,0.04431
2686.71207,0.04395
2684.78334,0.04359
2682.85462,0.04314
2680.92589,0.04261
2678.99717,0.04207
2677.06845,0.04161
2675.13972,0.04120
2673.21100,0.04076
2671.28228,0.04024
2669.35355,0.03972
2667.42483,0.03924
2665.49611,0.03880
2663.56738,0.03836
2661.63866,0.03790
2659.70993,0.03740
2657.78121,0.03693
2655.85249,0.03653
2653.92376,0.03616
2651.99504,0.03573
2650.06632,0.03525
2648.13759,0.03477
2646.20887,0.03432
2644.28014,0.03392
2642.35142,0.03352
2640.42270,0.03304
2638.49397,0.03256
2636.56525,0.03216
2634.63653,0.03179
2632.70780,0.03139
2630.77908,0.03095
2628.85036,0.03050
2626.92163,0.03013
2624.99291,0.02978
2623.06418,0.02941
2621.13546,0.02907
2619.20674,0.02879
2617.27801,0.02846
2615.34929,0.02807
2613.42057,0.02766
2611.49184,0.02724
2609.56312,0.02684
2607.63440,0.02649
2605.70567,0.02611
2603.77695,0.02575
2601.84822,0.02548
2599.91950,0.02522
2597.99078,0.02488
2596.06205,0.02451
2594.13333,0.02415
2592.20461,0.02373
2590.27588,0.02337
2588.34716,0.02315
2586.41843,0.02295
2584.48971,0.02271
2582.56099,0.02244
2580.63226,0.02209
2578.70354,0.02178
2576.77482,0.02159
2574.84609,0.02133
2572.91737,0.02096
2570.98865,0.02059
2569.05992,0.02031
2567.13120,0.02006
2565.20247,0.01981
2563.27375,0.01957
2561.34503,0.01937
2559.41630,0.01915
2557.48758,0.01887
2555.55886,0.01861
2553.63013,0.01839
2551.70141,0.01816
2549.77269,0.01792
2547.84396,0.01768
2545.91524,0.01746
2543.98651,0.01719
2542.05779,0.01689
2540.12907,0.01668
2538.20034,0.01659
2536.27162,0.01646
2534.34290,0.01623
2532.41417,0.01596
2530.48545,0.01575
2528.55673,0.01556
2526.62800,0.01535
2524.69928,0.01518
2522.77055,0.01505
2520.84183,0.01488
2518.91311,0.01469
2516.98438,0.01451
2515.05566,0.01431
2513.12694,0.01409
2511.19821,0.01388
2509.26949,0.01366
2507.34076,0.01342
2505.41204,0.01318
2503.48332,0.01297
2501.55459,0.01281
2499.62587,0.01267
2497.69715,0.01250
2495.76842,0.01229
2493.83970,0.01212
2491.91098,0.01196
2489.98225,0.01175
2488.05353,0.01153
2486.12480,0.01132
2484.19608,0.01111
2482.26736,0.01095
2480.33863,0.01081
2478.40991,0.01062
2476.48119,0.01040
2474.55246,0.01021
2472.62374,0.01006
2470.69502,0.00989
2468.76629,0.00967
2466.83757,0.00944
2464.90884,0.00924
2462.98012,0.00906
2461.05140,0.00889
2459.12267,0.00870
2457.19395,0.00850
2455.26523,0.00832
2453.33650,0.00815
2451.40778,0.00796
2449.47905,0.00780
2447.55033,0.00768
2445.62161,0.00756
2443.69288,0.00743
2441.76416,0.00730
2439.83544,0.00716
2437.90671,0.00699
2435.97799,0.00681
2434.04927,0.00667
2432.12054,0.00654
2430.19182,0.00639
2428.26309,0.00626
2426.33437,0.00618
2424.40565,0.00606
2422.47692,0.00589
2420.54820,0.00570
2418.61948,0.00547
2416.69075,0.00526
2414.76203,0.00511
2412.83331,0.00494
2410.90458,0.00478
2408.97586,0.00470
2407.04713,0.00464
2405.11841,0.00453
2403.18969,0.00439
2401.26096,0.00424
2399.33224,0.00410
2397.40352,0.00399
2395.47479,0.00388
2393.54607,0.00373
2391.61734,0.00359
2389.68862,0.00346
2387.75990,0.00335
2385.83117,0.00329
2383.90245,0.00334
2381.97373,0.00345
2380.04500,0.00357
2378.11628,0.00369
2376.18756,0.00382
2374.25883,0.00396
2372.33011,0.00407
2370.40138,0.00413
2368.47266,0.00416
2366.54394,0.00422
2364.61521,0.00427
2362.68649,0.00425
2360.75777,0.00414
2358.82904,0.00395
2356.90032,0.00366
2354.97160,0.00323
2353.04287,0.00271
2351.11415,0.00245
2349.18542,0.00268
2347.25670,0.00311
2345.32798,0.00331
2343.39925,0.00325
2341.47053,0.00311
2339.54181,0.00294
2337.61308,0.00272
2335.68436,0.00252
2333.75563,0.00240
2331.82691,0.00229
2329.89819,0.00210
2327.96946,0.00186
2326.04074,0.00173
2324.11202,0.00176
2322.18329,0.00178
2320.25457,0.00168
2318.32585,0.00149
2316.39712,0.00132
2314.46840,0.00125
2312.53967,0.00122
2310.61095,0.00116
2308.68223,0.00105
2306.75350,0.00096
2304.82478,0.00088
2302.89606,0.00079
2300.96733,0.00076
2299.03861,0.00077
2297.10989,0.00074
2295.18116,0.00062
2293.25244,0.00052
2291.32371,0.00048
2289.39499,0.00048
2287.46627,0.00048
2285.53754,0.00048
2283.60882,0.00048
2281.68010,0.00052
2279.75137,0.00056
2277.82265,0.00060
2275.89392,0.00067
2273.96520,0.00076
2272.03648,0.00079
2270.10775,0.00073
2268.17903,0.00068
2266.25031,0.00066
2264.32158,0.00064
2262.39286,0.00063
2260.46414,0.00065
2258.53541,0.00069
2256.60669,0.00069
2254.67796,0.00070
2252.74924,0.00076
2250.82052,0.00085
2248.89179,0.00087
2246.96307,0.00085
2245.03435,0.00083
2243.10562,0.00088
2241.17690,0.00091
2239.24818,0.00089
2237.31945,0.00087
2235.39073,0.00084
2233.46200,0.00080
2231.53328,0.00075
2229.60456,0.00072
2227.67583,0.00071
2225.74711,0.00070
2223.81839,0.00066
2221.88966,0.00060
2219.96094,0.00052
2218.03221,0.00045
2216.10349,0.00034
2214.17477,0.00021
2212.24604,0.00014
2210.31732,0.00018
2208.38860,0.00025
2206.45987,0.00027
2204.53115,0.00018
2202.60243,0.00007
2200.67370,0.00000
2198.74498,-0.00005
2196.81625,-0.00008
2194.88753,-0.00012
2192.95881,-0.00011
2191.03008,-0.00009
2189.10136,-0.00010
2187.17264,-0.00015
2185.24391,-0.00023
2183.31519,-0.00028
2181.38647,-0.00029
2179.45774,-0.00033
2177.52902,-0.00040
2175.60029,-0.00044
2173.67157,-0.00043
2171.74285,-0.00039
2169.81412,-0.00037
2167.88540,-0.00031
2165.95668,-0.00021
2164.02795,-0.00014
2162.09923,-0.00009
2160.17050,-0.00006
2158.24178,-0.00005
2156.31306,-0.00004
2154.38433,0.00002
2152.45561,0.00008
2150.52689,0.00014
2148.59816,0.00019
2146.66944,0.00023
2144.74072,0.00027
2142.81199,0.00032
2140.88327,0.00037
2138.95454,0.00042
2137.02582,0.00048
2135.09710,0.00051
2133.16837,0.00047
2131.23965,0.00039
2129.31093,0.00031
2127.38220,0.00026
2125.45348,0.00022
2123.52476,0.00015
2121.59603,0.00006
2119.66731,-0.00005
2117.73858,-0.00009
2115.80986,-0.00007
2113.88114,-0.00005
2111.95241,-0.00005
2110.02369,-0.00004
2108.09497,-0.00004
2106.16624,-0.00005
2104.23752,-0.00010
2102.30880,-0.00015
2100.38007,-0.00014
2098.45135,-0.00010
2096.52262,-0.00007
2094.59390,0.00000
2092.66518,-0.00003
2090.73645,-0.00013
2088.80773,-0.00024
2086.87901,-0.00027
2084.95028,-0.00028
2083.02156,-0.00035
2081.09283,-0.00045
2079.16411,-0.00053
2077.23539,-0.00055
2075.30666,-0.00057
2073.37794,-0.00058
2071.44922,-0.00053
2069.52049,-0.00045
2067.59177,-0.00042
2065.66305,-0.00042
2063.73432,-0.00042
2061.80560,-0.00041
2059.87687,-0.00034
2057.94815,-0.00018
2056.01943,0.00003
2054.09070,0.00023
2052.16198,0.00039
2050.23326,0.00055
2048.30453,0.00081
2046.37581,0.00117
2044.44709,0.00156
2042.51836,0.00201
2040.58964,0.00249
2038.66091,0.00298
2036.73219,0.00347
2034.80347,0.00393
2032.87474,0.00434
2030.94602,0.00469
2029.01730,0.00496
2027.08857,0.00521
2025.15985,0.00549
2023.23112,0.00579
2021.30240,0.00606
2019.37368,0.00629
2017.44495,0.00647
2015.51623,0.00669
2013.58751,0.00699
2011.65878,0.00729
2009.73006,0.00760
2007.80134,0.00791
2005.87261,0.00814
2003.94389,0.00826
2002.01516,0.00831
2000.08644,0.00838
1998.15772,0.00846
1996.22899,0.00849
1994.30027,0.00842
1992.37155,0.00827
1990.44282,0.00812
1988.51410,0.00798
1986.58538,0.00781
1984.65665,0.00761
1982.72793,0.00743
1980.79920,0.00726
1978.87048,0.00707
1976.94176,0.00688
1975.01303,0.00672
1973.08431,0.00656
1971.15559,0.00635
1969.22686,0.00604
1967.29814,0.00556
1965.36941,0.00505
1963.44069,0.00464
1961.51197,0.00431
1959.58324,0.00401
1957.65452,0.00375
1955.72580,0.00354
1953.79707,0.00335
1951.86835,0.00315
1949.93963,0.00289
1948.01090,0.00261
1946.08218,0.00236
1944.15345,0.00210
1942.22473,0.00179
1940.29601,0.00158
1938.36728,0.00150
1936.43856,0.00139
1934.50984,0.00119
1932.58111,0.00097
1930.65239,0.00083
1928.72367,0.00075
1926.79494,0.00074
1924.86622,0.00078
1922.93749,0.00085
1921.00877,0.00100
1919.08005,0.00124
1917.15132,0.00155
1915.22260,0.00205
1913.29388,0.00273
1911.36515,0.00344
1909.43643,0.00412
1907.50770,0.00479
1905.57898,0.00551
1903.65026,0.00623
1901.72153,0.00692
1899.79281,0.00761
1897.86409,0.00834
1895.93536,0.00907
1894.00664,0.00976
1892.07792,0.01039
1890.14919,0.01090
1888.22047,0.01133
1886.29174,0.01176
1884.36302,0.01217
1882.43430,0.01252
1880.50557,0.01278
1878.57685,0.01298
1876.64813,0.01311
1874.71940,0.01322
1872.79068,0.01328
1870.86196,0.01321
1868.93323,0.01290
1867.00451,0.01247
1865.07578,0.01211
1863.14706,0.01170
1861.21834,0.01110
1859.28961,0.01032
1857.36089,0.00947
1855.43217,0.00860
1853.50344,0.00771
1851.57472,0.00682
1849.64599,0.00595
1847.71727,0.00509
1845.78855,0.00416
1843.85982,0.00312
1841.93110,0.00230
1840.00238,0.00183
1838.07365,0.00142
1836.14493,0.00100
1834.21621,0.00072
1832.28748,0.00056
1830.35876,0.00030
1828.43003,0.00000
1826.50131,-0.00024
1824.57259,-0.00032
1822.64386,-0.00032
1820.71514,-0.00026
1818.78642,-0.00021
1816.85769,-0.00016
1814.92897,0.00000
1813.00025,0.00006
1811.07152,0.00008
1809.14280,0.00016
1807.21407,0.00041
1805.28535,0.00081
1803.35663,0.00121
1801.42790,0.00157
1799.49918,0.00196
1797.57046,0.00246
1795.64173,0.00302
1793.71301,0.00357
1791.78428,0.00415
1789.85556,0.00487
1787.92684,0.00571
1785.99811,0.00658
1784.06939,0.00742
1782.14067,0.00822
1780.21194,0.00896
1778.28322,0.00973
1776.35450,0.01062
1774.42577,0.01153
1772.49705,0.01224
1770.56832,0.01279
1768.63960,0.01340
1766.71088,0.01414
1764.78215,0.01496
1762.85343,0.01577
1760.92471,0.01656
1758.99598,0.01743
1757.06726,0.01843
1755.13854,0.01952
1753.20981,0.02063
1751.28109,0.02175
1749.35236,0.02298
1747.42364,0.02447
1745.49492,0.02619
1743.56619,0.02802
1741.63747,0.02997
1739.70875,0.03208
1737.78002,0.03429
1735.85130,0.03663
1733.92257,0.03937
1731.99385,0.04234
1730.06513,0.04521
1728.13640,0.04803
1726.20768,0.05084
1724.27896,0.05365
1722.35023,0.05637
1720.42151,0.05888
1718.49279,0.06128
1716.56406,0.06375
1714.63534,0.06628
1712.70661,0.06887
1710.77789,0.07156
1708.84917,0.07431
1706.92044,0.07713
1704.99172,0.07997
1703.06300,0.08273
1701.13427,0.08568
1699.20555,0.08901
1697.27683,0.09254
1695.34810,0.09631
1693.41938,0.09993
1691.49065,0.10323
1689.56193,0.10657
1687.63321,0.10995
1685.70448,0.11368
1683.77576,0.11804
1681.84704,0.12199
1679.91831,0.12504
1677.98959,0.12785
1676.06087,0.13098
1674.13214,0.13433
1672.20342,0.13748
1670.27469,0.14060
1668.34597,0.14377
1666.41725,0.14653
1664.48852,0.14899
1662.55980,0.15157
1660.63108,0.15412
1658.70235,0.15631
1656.77363,0.15812
1654.84490,0.15986
1652.91618,0.16175
1650.98746,0.16341
1649.05873,0.16469
1647.13001,0.16597
1645.20129,0.16732
1643.27256,0.16852
1641.34384,0.16956
1639.41512,0.17045
1637.48639,0.17099
1635.55767,0.17104
1633.62894,0.17089
1631.70022,0.17081
1629.77150,0.17049
1627.84277,0.16960
1625.91405,0.16811
1623.98533,0.16600
1622.05660,0.16359
1620.12788,0.16121
1618.19916,0.15822
1616.27043,0.15411
1614.34171,0.15010
1612.41298,0.14678
1610.48426,0.14337
1608.55554,0.13949
1606.62681,0.13545
1604.69809,0.13146
1602.76937,0.12754
1600.84064,0.12381
1598.91192,0.12034
1596.98319,0.11699
1595.05447,0.11365
1593.12575,0.11042
1591.19702,0.10734
1589.26830,0.10431
1587.33958,0.10135
1585.41085,0.09849
1583.48213,0.09574
1581.55341,0.09321
1579.62468,0.09095
1577.69596,0.08855
1575.76723,0.08587
1573.83851,0.08377
1571.90979,0.08233
1569.98106,0.08075
1568.05234,0.07906
1566.12362,0.07776
1564.19489,0.07689
1562.26617,0.07624
1560.33745,0.07500
1558.40872,0.07271
1556.48000,0.07089
1554.55127,0.07001
1552.62255,0.06925
1550.69383,0.06824
1548.76510,0.06714
1546.83638,0.06606
1544.90766,0.06481
1542.97893,0.06311
1541.05021,0.06080
1539.12148,0.05839
1537.19276,0.05694
1535.26404,0.05597
1533.33531,0.05448
1531.40659,0.05266
1529.47787,0.05103
1527.54914,0.04925
1525.62042,0.04714
1523.69170,0.04490
1521.76297,0.04240
1519.83425,0.03987
1517.90552,0.03759
1515.97680,0.03535
1514.04808,0.03324
1512.11935,0.03142
1510.19063,0.02956
1508.26191,0.02671
1506.33318,0.02259
1504.40446,0.01927
1502.47574,0.01741
1500.54701,0.01591
1498.61829,0.01406
1496.68956,0.01203
1494.76084,0.01046
1492.83212,0.00949
1490.90339,0.00862
1488.97467,0.00770
1487.04595,0.00723
1485.11722,0.00732
1483.18850,0.00772
1481.25977,0.00832
1479.33105,0.00917
1477.40233,0.01032
1475.47360,0.01188
1473.54488,0.01405
1471.61616,0.01670
1469.68743,0.01923
1467.75871,0.02141
1465.82999,0.02336
1463.90126,0.02496
1461.97254,0.02609
1460.04381,0.02688
1458.11509,0.02756
1456.18637,0.02833
1454.25764,0.02914
1452.32892,0.02974
1450.40020,0.03005
1448.47147,0.03015
1446.54275,0.03031
1444.61403,0.03072
1442.68530,0.03132
1440.75658,0.03196
1438.82785,0.03254
1436.89913,0.03307
1434.97041,0.03365
1433.04168,0.03435
1431.11296,0.03523
1429.18424,0.03621
1427.25551,0.03708
1425.32679,0.03778
1423.39806,0.03845
1421.46934,0.03927
1419.54062,0.04033
1417.61189,0.04161
1415.68317,0.04301
1413.75445,0.04455
1411.82572,0.04629
1409.89700,0.04823
1407.96828,0.05027
1406.03955,0.05228
1404.11083,0.05400
1402.18210,0.05501
1400.25338,0.05489
1398.32466,0.05343
1396.39593,0.05074
1394.46721,0.04732
1392.53849,0.04407
1390.60976,0.04159
1388.68104,0.03989
1386.75232,0.03879
1384.82359,0.03757
1382.89487,0.03541
1380.96614,0.03252
1379.03742,0.02981
1377.10870,0.02761
1375.17997,0.02556
1373.25125,0.02355
1371.32253,0.02181
1369.39380,0.02031
1367.46508,0.01888
1365.53635,0.01750
1363.60763,0.01609
1361.67891,0.01468
1359.75018,0.01353
1357.82146,0.01264
1355.89274,0.01184
1353.96401,0.01101
1352.03529,0.01018
1350.10657,0.00948
1348.17784,0.00891
1346.24912,0.00843
1344.32039,0.00799
1342.39167,0.00753
1340.46295,0.00699
1338.53422,0.00646
1336.60550,0.00608
1334.67678,0.00591
1332.74805,0.00587
1330.81933,0.00585
1328.89061,0.00584
1326.96188,0.00589
1325.03316,0.00608
1323.10443,0.00641
1321.17571,0.00685
1319.24699,0.00743
1317.31826,0.00823
1315.38954,0.00922
1313.46082,0.01034
1311.53209,0.01158
1309.60337,0.01298
1307.67464,0.01479
1305.74592,0.01740
1303.81720,0.02074
1301.88847,0.02378
1299.95975,0.02554
1298.03103,0.02661
1296.10230,0.02807
1294.17358,0.02975
1292.24486,0.03095
1290.31613,0.03168
1288.38741,0.03235
1286.45868,0.03318
1284.52996,0.03425
1282.60124,0.03566
1280.67251,0.03749
1278.74379,0.03986
1276.81507,0.04286
1274.88634,0.04650
1272.95762,0.05083
1271.02890,0.05601
1269.10017,0.06198
1267.17145,0.06866
1265.24272,0.07619
1263.31400,0.08473
1261.38528,0.09445
1259.45655,0.10544
1257.52783,0.11747
1255.59911,0.13018
1253.67038,0.14337
1251.74166,0.15672
1249.81294,0.16984
1247.88421,0.18246
1245.95549,0.19442
1244.02676,0.20556
1242.09804,0.21563
1240.16932,0.22472
1238.24059,0.23315
1236.31187,0.24087
1234.38315,0.24771
1232.45442,0.25380
1230.52570,0.25949
1228.59697,0.26476
1226.66825,0.26953
1224.73953,0.27406
1222.81080,0.27838
1220.88208,0.28231
1218.95336,0.28600
1217.02463,0.28974
1215.09591,0.29356
1213.16719,0.29728
1211.23846,0.30055
1209.30974,0.30326
1207.38101,0.30584
1205.45229,0.30889
1203.52357,0.31248
1201.59484,0.31629
1199.66612,0.32021
1197.73740,0.32465
1195.80867,0.32993
1193.87995,0.33521
1191.95123,0.33901
1190.02250,0.34109
1188.09378,0.34294
1186.16505,0.34566
1184.23633,0.34838
1182.30761,0.34983
1180.37888,0.35033
1178.45016,0.35071
1176.52144,0.35116
1174.59271,0.35166
1172.66399,0.35218
1170.73526,0.35270
1168.80654,0.35332
1166.87782,0.35433
1164.94909,0.35587
1163.02037,0.35767
1161.09165,0.35949
1159.16292,0.36126
1157.23420,0.36291
1155.30548,0.36422
1153.37675,0.36545
1151.44803,0.36706
1149.51930,0.36903
1147.59058,0.37113
1145.66186,0.37335
1143.73313,0.37573
1141.80441,0.37795
1139.87569,0.37989
1137.94696,0.38194
1136.01824,0.38424
1134.08952,0.38672
1132.16079,0.38930
1130.23207,0.39234
1128.30334,0.39600
1126.37462,0.39968
1124.44590,0.40301
1122.51717,0.40662
1120.58845,0.41120
1118.65973,0.41642
1116.73100,0.42185
1114.80228,0.42782
1112.87355,0.43447
1110.94483,0.44109
1109.01611,0.44742
1107.08738,0.45389
1105.15866,0.46028
1103.22994,0.46599
1101.30121,0.47088
1099.37249,0.47529
1097.44377,0.47902
1095.51504,0.48126
1093.58632,0.48215
1091.65759,0.48270
1089.72887,0.48342
1087.80015,0.48365
1085.87142,0.48298
1083.94270,0.48167
1082.01398,0.48010
1080.08525,0.47867
1078.15653,0.47704
1076.22781,0.47470
1074.29908,0.47157
1072.37036,0.46818
1070.44163,0.46531
1068.51291,0.46228
1066.58419,0.45828
1064.65546,0.45410
1062.72674,0.45002
1060.79802,0.44510
1058.86929,0.43956
1056.94057,0.43394
1055.01184,0.42791
1053.08312,0.42137
1051.15440,0.41465
1049.22567,0.40806
1047.29695,0.40135
1045.36823,0.39398
1043.43950,0.38619
1041.51078,0.37846
1039.58206,0.37074
1037.65333,0.36301
1035.72461,0.35552
1033.79588,0.34797
1031.86716,0.34012
1029.93844,0.33217
1028.00971,0.32415
1026.08099,0.31618
1024.15227,0.30848
1022.22354,0.30084
1020.29482,0.29294
1018.36610,0.28490
1016.43737,0.27730
1014.50865,0.27044
1012.57992,0.26398
1010.65120,0.25760
1008.72248,0.25117
1006.79375,0.24447
1004.86503,0.23765
1002.93631,0.23136
1001.00758,0.22558
999.07886,0.21966
997.15013,0.21335
995.22141,0.20713
993.29269,0.20140
991.36396,0.19610
989.43524,0.19110
987.50652,0.18657
985.57779,0.18246
983.64907,0.17844
981.72035,0.17460
979.79162,0.17125
977.86290,0.16850
975.93417,0.16613
974.00545,0.16391
972.07673,0.16194
970.14800,0.16043
968.21928,0.15918
966.29056,0.15777
964.36183,0.15633
962.43311,0.15505
960.50439,0.15370
958.57566,0.15233
956.64694,0.15115
954.71821,0.15015
952.78949,0.14927
950.86077,0.14830
948.93204,0.14693
947.00332,0.14519
945.07460,0.14339
943.14587,0.14156
941.21715,0.13938
939.28842,0.13679
937.35970,0.13408
935.43098,0.13151
933.50225,0.12895
931.57353,0.12619
929.64481,0.12344
927.71608,0.12081
925.78736,0.11791
923.85864,0.11468
921.92991,0.11138
920.00119,0.10798
918.07246,0.10453
916.14374,0.10121
914.21502,0.09781
912.28629,0.09406
910.35757,0.09000
908.42885,0.08596
906.50012,0.08209
904.57140,0.07833
902.64268,0.07471
900.71395,0.07114
898.78523,0.06741
896.85650,0.06351
894.92778,0.05961
892.99906,0.05563
891.07033,0.05165
889.14161,0.04786
887.21289,0.04422
885.28416,0.04068
883.35544,0.03733
881.42671,0.03411
879.49799,0.03097
877.56927,0.02805
875.64054,0.02539
873.71182,0.02269
871.78310,0.01982
869.85437,0.01699
867.92565,0.01451
865.99693,0.01224
864.06820,0.00990
862.13948,0.00759
860.21075,0.00570
858.28203,0.00431
856.35331,0.00309
854.42458,0.00180
852.49586,0.00065
850.56714,0.00000
848.63841,-0.00010
846.70969,0.00022
844.78097,0.00118
842.85224,0.00306
840.92352,0.00576
838.99479,0.00902
837.06607,0.01267
835.13735,0.01642
833.20862,0.02008
831.27990,0.02384
829.35118,0.02770
827.42245,0.03155
825.49373,0.03548
823.56501,0.03961
821.63628,0.04400
819.70756,0.04840
817.77883,0.05244
815.85011,0.05621
813.92139,0.05982
811.99266,0.06321
810.06394,0.06666
808.13522,0.07003
806.20649,0.07275
804.27777,0.07492
802.34904,0.07691
800.42032,0.07845
798.49160,0.07930
796.56287,0.07951
794.63415,0.07900
792.70543,0.07766
790.77670,0.07555
788.84798,0.07285
786.91926,0.06988
784.99053,0.06682
783.06181,0.06352
781.13308,0.05996
779.20436,0.05606
777.27564,0.05176
775.34691,0.04760
773.41819,0.04369
771.48947,0.03968
769.56074,0.03624
767.63202,0.03401
765.70330,0.03244
763.77457,0.03104
761.84585,0.02995
759.91712,0.02935
757.98840,0.02899
756.05968,0.02848
754.13095,0.02782
752.20223,0.02726
750.27351,0.02692
748.34478,0.02680
746.41606,0.02661
744.48733,0.02610
742.55861,0.02541
740.62989,0.02469
738.70116,0.02399
736.77244,0.02343
734.84372,0.02314
732.91499,0.02322
730.98627,0.02342
729.05755,0.02351
727.12882,0.02368
725.20010,0.02387
723.27137,0.02388
721.34265,0.02386
719.41393,0.02376
717.48520,0.02364
715.55648,0.02375
713.62776,0.02407
711.69903,0.02454
709.77031,0.02518
707.84159,0.02584
705.91286,0.02651
703.98414,0.02746
702.05541,0.02862
700.12669,0.02978
698.19797,0.03093
696.26924,0.03182
694.34052,0.03183
692.41180,0.03095
690.48307,0.03003
688.55435,0.02961
686.62562,0.02973
684.69690,0.03034
682.76818,0.03117
680.83945,0.03185
678.91073,0.03250
676.98201,0.03325
675.05328,0.03388
673.12456,0.03402
671.19584,0.03373
669.26711,0.03379
667.33839,0.03454
665.40966,0.03519
663.48094,0.03550
661.55222,0.03601
659.62349,0.03693
657.69477,0.03806
655.76605,0.03903
653.83732,0.03962
651.90860,0.04011
649.97988,0.04094
648.05115,0.04205
646.12243,0.04317
644.19370,0.04431
642.26498,0.04548
640.33626,0.04658
638.40753,0.04763
636.47881,0.04885
634.55009,0.05022
632.62136,0.05144
630.69264,0.05218
628.76391,0.05272
626.83519,0.05373
624.90647,0.05515
622.97774,0.05662
621.04902,0.05829
619.12030,0.06012
617.19157,0.06180
615.26285,0.06308
613.33413,0.06379
611.40540,0.06419
609.47668,0.06507
607.54795,0.06676
605.61923,0.06900
603.69051,0.07137
601.76178,0.07353
599.83306,0.07538
597.90434,0.07675
595.97561,0.07774
594.04689,0.07890
592.11817,0.08043
590.18944,0.08201
588.26072,0.08334
586.33199,0.08460
584.40327,0.08618
582.47455,0.08796
580.54582,0.08907
578.61710,0.08922
576.68838,0.08962
574.75965,0.09056
572.83093,0.09075
570.90220,0.09013
568.97348,0.09010
567.04476,0.09117
565.11603,0.09260
563.18731,0.09371
561.25859,0.09431
559.32986,0.09456
557.40114,0.09525
555.47242,0.09657
553.54369,0.09749
551.61497,0.09790
549.68624,0.09895
547.75752,0.10084
545.82880,0.10211
543.90007,0.10182
541.97135,0.10101
540.04263,0.10120
538.11390,0.10198
536.18518,0.10157
534.25646,0.10033
532.32773,0.09992
530.39901,0.09968
528.47028,0.09891
526.54156,0.09930
524.61284,0.10091
522.68411,0.10130
520.75539,0.10065
518.82667,0.10153
516.89794,0.10428
514.96922,0.10667
513.04049,0.10814
511.11177,0.11055
509.18305,0.11442
507.25432,0.11857
505.32560,0.12400
503.39688,0.13211
501.46815,0.13993
499.53943,0.14510
497.61071,0.15112
495.68198,0.15939
493.75326,0.16694
491.82453,0.17429
489.89581,0.18370
487.96709,0.19327
486.03836,0.20113
484.10964,0.20913
482.18092,0.21890
480.25219,0.22908
478.32347,0.23746
476.39475,0.24294
474.46602,0.24692
472.53730,0.25217
470.60857,0.25794
468.67985,0.26071
466.75113,0.26132
464.82240,0.26374
462.89368,0.26629
460.96496,0.26333
459.03623,0.25540
457.10751,0.24899
455.17878,0.24669
453.25006,0.24528
451.32134,0.24221
449.39261,0.23654
447.46389,0.22767
445.53517,0.21605
443.60644,0.20334
441.67772,0.19384
439.74900,0.19026
437.82027,0.18816
435.89155,0.18256
433.96282,0.17376
432.03410,0.16440
430.10538,0.15642
428.17665,0.15072
426.24793,0.14670
424.31921,0.14157
422.39048,0.13461
420.46176,0.13079
418.53304,0.13222
416.60431,0.12987
414.67559,0.11693
412.74686,0.10014
410.81814,0.09007
408.88942,0.08854
406.96069,0.09041
405.03197,0.08993
403.10325,0.08252
401.17452,0.07387
399.24580,0.07727
397.31708,0.08460
395.38835,0.07206
393.45963,0.04925
391.53090,0.03358
389.60218,0.02749
387.67346,0.03316
385.74473,0.04449
383.81601,0.04155
381.88729,0.02648
379.95856,0.02283
378.02984,0.03015
376.10111,0.03432
374.17239,0.03756
372.24367,0.04152
370.31494,0.02991
368.38622,0.00000
