3996.31543,0.00018
3994.38671,0.00037
3992.45799,0.00048
3990.52926,0.00035
3988.60054,0.00011
3986.67182,0.00000
3984.74309,0.00002
3982.81437,0.00010
3980.88564,0.00029
3978.95692,0.00057
3977.02820,0.00077
3975.09947,0.00072
3973.17075,0.00059
3971.24203,0.00053
3969.31330,0.00049
3967.38458,0.00049
3965.45586,0.00060
3963.52713,0.00071
3961.59841,0.00065
3959.66968,0.00043
3957.74096,0.00027
3955.81224,0.00038
3953.88351,0.00067
3951.95479,0.00088
3950.02607,0.00094
3948.09734,0.00095
3946.16862,0.00094
3944.23990,0.00093
3942.31117,0.00097
3940.38245,0.00105
3938.45372,0.00112
3936.52500,0.00115
3934.59628,0.00119
3932.66755,0.00126
3930.73883,0.00129
3928.81011,0.00129
3926.88138,0.00133
3924.95266,0.00137
3923.02393,0.00132
3921.09521,0.00131
3919.16649,0.00146
3917.23776,0.00164
3915.30904,0.00162
3913.38032,0.00143
3911.45159,0.00124
3909.52287,0.00114
3907.59415,0.00115
3905.66542,0.00132
3903.73670,0.00169
3901.80797,0.00210
3899.87925,0.00230
3897.95053,0.00219
3896.02180,0.00190
3894.09308,0.00167
3892.16436,0.00167
3890.23563,0.00174
3888.30691,0.00166
3886.37819,0.00160
3884.44946,0.00180
3882.52074,0.00217
3880.59201,0.00237
3878.66329,0.00221
3876.73457,0.00191
3874.80584,0.00187
3872.87712,0.00219
3870.94840,0.00264
3869.01967,0.00284
3867.09095,0.00263
3865.16222,0.00238
3863.23350,0.00241
3861.30478,0.00254
3859.37605,0.00246
3857.44733,0.00231
3855.51861,0.00242
3853.58988,0.00272
3851.66116,0.00278
3849.73244,0.00253
3847.80371,0.00221
3845.87499,0.00200
3843.94626,0.00204
3842.01754,0.00232
3840.08882,0.00271
3838.16009,0.00299
3836.23137,0.00303
3834.30265,0.00291
3832.37392,0.00280
3830.44520,0.00283
3828.51648,0.00300
3826.58775,0.00323
3824.65903,0.00346
3822.73030,0.00368
3820.80158,0.00377
3818.87286,0.00364
3816.94413,0.00352
3815.01541,0.00353
3813.08669,0.00348
3811.15796,0.00338
3809.22924,0.00340
3807.30052,0.00352
3805.37179,0.00361
3803.44307,0.00376
3801.51434,0.00405
3799.58562,0.00432
3797.65690,0.00443
3795.72817,0.00445
3793.79945,0.00449
3791.87073,0.00462
3789.94200,0.00480
3788.01328,0.00500
3786.08455,0.00529
3784.15583,0.00562
3782.22711,0.00588
3780.29838,0.00608
3778.36966,0.00621
3776.44094,0.00629
3774.51221,0.00650
3772.58349,0.00690
3770.65477,0.00741
3768.72604,0.00788
3766.79732,0.00824
3764.86859,0.00841
3762.93987,0.00845
3761.01115,0.00867
3759.08242,0.00916
3757.15370,0.00963
3755.22498,0.01008
3753.29625,0.01092
3751.36753,0.01209
3749.43881,0.01289
3747.51008,0.01312
3745.58136,0.01338
3743.65263,0.01385
3741.72391,0.01424
3739.79519,0.01472
3737.86646,0.01572
3735.93774,0.01721
3734.00902,0.01855
3732.08029,0.01932
3730.15157,0.01980
3728.22284,0.02052
3726.29412,0.02174
3724.36540,0.02326
3722.43667,0.02479
3720.50795,0.02632
3718.57923,0.02801
3716.65050,0.02978
3714.72178,0.03160
3712.79306,0.03379
3710.86433,0.03655
3708.93561,0.03929
3707.00688,0.04159
3705.07816,0.04374
3703.14944,0.04632
3701.22071,0.04945
3699.29199,0.05268
3697.36327,0.05569
3695.43454,0.05849
3693.50582,0.06113
3691.57710,0.06405
3689.64837,0.06786
3687.71965,0.07200
3685.79092,0.07546
3683.86220,0.07845
3681.93348,0.08166
3680.00475,0.08522
3678.07603,0.08909
3676.14731,0.09366
3674.21858,0.09835
3672.28986,0.10218
3670.36113,0.10612
3668.43241,0.11057
3666.50369,0.11438
3664.57496,0.11752
3662.64624,0.12055
3660.71752,0.12353
3658.78879,0.12653
3656.86007,0.12991
3654.93135,0.13329
3653.00262,0.13593
3651.07390,0.13849
3649.14517,0.14199
3647.21645,0.14574
3645.28773,0.14858
3643.35900,0.15062
3641.43028,0.15257
3639.50156,0.15476
3637.57283,0.15708
3635.64411,0.15932
3633.71539,0.16128
3631.78666,0.16300
3629.85794,0.16514
3627.92921,0.16793
3626.00049,0.17022
3624.07177,0.17176
3622.14304,0.17325
3620.21432,0.17508
3618.28560,0.17695
3616.35687,0.17831
3614.42815,0.17924
3612.49942,0.18022
3610.57070,0.18149
3608.64198,0.18305
3606.71325,0.18460
3604.78453,0.18584
3602.85581,0.18698
3600.92708,0.18836
3598.99836,0.18977
3597.06964,0.19098
3595.14091,0.19207
3593.21219,0.19307
3591.28346,0.19393
3589.35474,0.19507
3587.42602,0.19681
3585.49729,0.19855
3583.56857,0.19975
3581.63985,0.20063
3579.71112,0.20152
3577.78240,0.20253
3575.85368,0.20359
3573.92495,0.20453
3571.99623,0.20534
3570.06750,0.20634
3568.13878,0.20782
3566.21006,0.20952
3564.28133,0.21076
3562.35261,0.21147
3560.42389,0.21207
3558.49516,0.21275
3556.56644,0.21343
3554.63771,0.21418
3552.70899,0.21524
3550.78027,0.21648
3548.85154,0.21762
3546.92282,0.21869
3544.99410,0.21978
3543.06537,0.22070
3541.13665,0.22141
3539.20793,0.22217
3537.27920,0.22320
3535.35048,0.22432
3533.42175,0.22529
3531.49303,0.22607
3529.56431,0.22677
3527.63558,0.22754
3525.70686,0.22847
3523.77814,0.22941
3521.84941,0.23023
3519.92069,0.23105
3517.99197,0.23194
3516.06324,0.23283
3514.13452,0.23366
3512.20579,0.23441
3510.27707,0.23515
3508.34835,0.23588
3506.41962,0.23651
3504.49090,0.23709
3502.56218,0.23779
3500.63345,0.23847
3498.70473,0.23909
3496.77600,0.23997
3494.84728,0.24118
3492.91856,0.24227
3490.98983,0.24295
3489.06111,0.24345
3487.13239,0.24402
3485.20366,0.24467
3483.27494,0.24533
3481.34622,0.24599
3479.41749,0.24658
3477.48877,0.24698
3475.56004,0.24738
3473.63132,0.24800
3471.70260,0.24876
3469.77387,0.24947
3467.84515,0.25006
3465.91643,0.25060
3463.98770,0.25113
3462.05898,0.25162
3460.13026,0.25193
3458.20153,0.25198
3456.27281,0.25208
3454.34408,0.25259
3452.41536,0.25343
3450.48664,0.25417
3448.55791,0.25454
3446.62919,0.25476
3444.70047,0.25505
3442.77174,0.25529
3440.84302,0.25538
3438.91429,0.25555
3436.98557,0.25606
3435.05685,0.25673
3433.12812,0.25717
3431.19940,0.25732
3429.27068,0.25748
3427.34195,0.25779
3425.41323,0.25809
3423.48451,0.25828
3421.55578,0.25837
3419.62706,0.25839
3417.69833,0.25842
3415.76961,0.25862
3413.84089,0.25895
3411.91216,0.25918
3409.98344,0.25922
3408.05472,0.25916
3406.12599,0.25921
3404.19727,0.25939
3402.26855,0.25957
3400.33982,0.25977
3398.41110,0.25994
3396.48237,0.25987
3394.55365,0.25969
3392.62493,0.25951
3390.69620,0.25929
3388.76748,0.25913
3386.83876,0.25917
3384.91003,0.25921
3382.98131,0.25895
3381.05259,0.25850
3379.12386,0.25823
3377.19514,0.25830
3375.26641,0.25849
3373.33769,0.25853
3371.40897,0.25833
3369.48024,0.25804
3367.55152,0.25784
3365.62280,0.25772
3363.69407,0.25754
3361.76535,0.25737
3359.83662,0.25710
3357.90790,0.25657
3355.97918,0.25607
3354.05045,0.25588
3352.12173,0.25592
3350.19301,0.25594
3348.26428,0.25569
3346.33556,0.25522
3344.40684,0.25472
3342.47811,0.25419
3340.54939,0.25368
3338.62066,0.25336
3336.69194,0.25325
3334.76322,0.25311
3332.83449,0.25279
3330.90577,0.25238
3328.97705,0.25207
3327.04832,0.25188
3325.11960,0.25166
3323.19088,0.25131
3321.26215,0.25105
3319.33343,0.25089
3317.40470,0.25059
3315.47598,0.25008
3313.54726,0.24967
3311.61853,0.24954
3309.68981,0.24937
3307.76109,0.24899
3305.83236,0.24867
3303.90364,0.24846
3301.97491,0.24813
3300.04619,0.24771
3298.11747,0.24739
3296.18874,0.24724
3294.26002,0.24714
3292.33130,0.24692
3290.40257,0.24656
3288.47385,0.24613
3286.54513,0.24573
3284.61640,0.24545
3282.68768,0.24521
3280.75895,0.24492
3278.83023,0.24466
3276.90151,0.24450
3274.97278,0.24439
3273.04406,0.24420
3271.11534,0.24387
3269.18661,0.24349
3267.25789,0.24312
3265.32917,0.24275
3263.40044,0.24240
3261.47172,0.24208
3259.54299,0.24174
3257.61427,0.24138
3255.68555,0.24108
3253.75682,0.24082
3251.82810,0.24052
3249.89938,0.24019
3247.97065,0.23985
3246.04193,0.23944
3244.11320,0.23893
3242.18448,0.23848
3240.25576,0.23815
3238.32703,0.23786
3236.39831,0.23747
3234.46959,0.23698
3232.54086,0.23648
3230.61214,0.23610
3228.68342,0.23579
3226.75469,0.23539
3224.82597,0.23477
3222.89724,0.23404
3220.96852,0.23345
3219.03980,0.23300
3217.11107,0.23245
3215.18235,0.23177
3213.25363,0.23121
3211.32490,0.23083
3209.39618,0.23047
3207.46746,0.23001
3205.53873,0.22939
3203.61001,0.22867
3201.68128,0.22798
3199.75256,0.22736
3197.82384,0.22672
3195.89511,0.22602
3193.96639,0.22529
3192.03767,0.22459
3190.10894,0.22387
3188.18022,0.22315
3186.25149,0.22249
3184.32277,0.22188
3182.39405,0.22122
3180.46532,0.22058
3178.53660,0.21992
3176.60788,0.21914
3174.67915,0.21842
3172.75043,0.21791
3170.82171,0.21739
3168.89298,0.21657
3166.96426,0.21551
3165.03553,0.21455
3163.10681,0.21385
3161.17809,0.21330
3159.24936,0.21273
3157.32064,0.21206
3155.39192,0.21119
3153.46319,0.21024
3151.53447,0.20938
3149.60575,0.20872
3147.67702,0.20813
3145.74830,0.20750
3143.81957,0.20683
3141.89085,0.20615
3139.96213,0.20540
3138.03340,0.20461
3136.10468,0.20385
3134.17596,0.20318
3132.24723,0.20254
3130.31851,0.20176
3128.38978,0.20075
3126.46106,0.19974
3124.53234,0.19895
3122.60361,0.19828
3120.67489,0.19758
3118.74617,0.19686
3116.81744,0.19615
3114.88872,0.19537
3112.96000,0.19447
3111.03127,0.19354
3109.10255,0.19256
3107.17382,0.19154
3105.24510,0.19057
3103.31638,0.18959
3101.38765,0.18857
3099.45893,0.18765
3097.53021,0.18682
3095.60148,0.18598
3093.67276,0.18506
3091.74404,0.18407
3089.81531,0.18305
3087.88659,0.18205
3085.95786,0.18106
3084.02914,0.18009
3082.10042,0.17914
3080.17169,0.17817
3078.24297,0.17722
3076.31425,0.17633
3074.38552,0.17546
3072.45680,0.17457
3070.52807,0.17361
3068.59935,0.17252
3066.67063,0.17136
3064.74190,0.17029
3062.81318,0.16944
3060.88446,0.16869
3058.95573,0.16777
3057.02701,0.16673
3055.09829,0.16580
3053.16956,0.16497
3051.24084,0.16411
3049.31211,0.16325
3047.38339,0.16236
3045.45467,0.16146
3043.52594,0.16062
3041.59722,0.15978
3039.66850,0.15887
3037.73977,0.15790
3035.81105,0.15692
3033.88233,0.15588
3031.95360,0.15473
3030.02488,0.15355
3028.09615,0.15236
3026.16743,0.15117
3024.23871,0.15011
3022.30998,0.14920
3020.38126,0.14828
3018.45254,0.14720
3016.52381,0.14599
3014.59509,0.14470
3012.66636,0.14368
3010.73764,0.14329
3008.80892,0.14319
3006.88019,0.14284
3004.95147,0.14221
3003.02275,0.14146
3001.09402,0.14061
2999.16530,0.13966
2997.23658,0.13869
2995.30785,0.13780
2993.37913,0.13710
2991.45040,0.13664
2989.52168,0.13618
2987.59296,0.13533
2985.66423,0.13420
2983.73551,0.13363
2981.80679,0.13411
2979.87806,0.13494
2977.94934,0.13538
2976.02062,0.13537
2974.09189,0.13536
2972.16317,0.13567
2970.23444,0.13619
2968.30572,0.13665
2966.37700,0.13703
2964.44827,0.13736
2962.51955,0.13755
2960.59083,0.13748
2958.66210,0.13714
2956.73338,0.13664
2954.80466,0.13614
2952.87593,0.13575
2950.94721,0.13555
2949.01848,0.13543
2947.08976,0.13527
2945.16104,0.13515
2943.23231,0.13518
2941.30359,0.13533
2939.37487,0.13553
2937.44614,0.13573
2935.51742,0.13591
2933.58869,0.13603
2931.65997,0.13608
2929.73125,0.13587
2927.80252,0.13529
2925.87380,0.13434
2923.94508,0.13309
2922.01635,0.13153
2920.08763,0.12979
2918.15891,0.12809
2916.23018,0.12656
2914.30146,0.12518
2912.37273,0.12389
2910.44401,0.12266
2908.51529,0.12149
2906.58656,0.12038
2904.65784,0.11938
2902.72912,0.11842
2900.80039,0.11744
2898.87167,0.11647
2896.94295,0.11553
2895.01422,0.11458
2893.08550,0.11361
2891.15677,0.11266
2889.22805,0.11184
2887.29933,0.11114
2885.37060,0.11045
2883.44188,0.10976
2881.51316,0.10907
2879.58443,0.10836
2877.65571,0.10776
2875.72698,0.10737
2873.79826,0.10702
2871.86954,0.10655
2869.94081,0.10594
2868.01209,0.10530
2866.08337,0.10477
2864.15464,0.10440
2862.22592,0.10418
2860.29720,0.10412
2858.36847,0.10414
2856.43975,0.10406
2854.51102,0.10369
2852.58230,0.10290
2850.65358,0.10164
2848.72485,0.09998
2846.79613,0.09813
2844.86741,0.09634
2842.93868,0.09478
2841.00996,0.09346
2839.08124,0.09231
2837.15251,0.09120
2835.22379,0.09003
2833.29506,0.08893
2831.36634,0.08807
2829.43762,0.08739
2827.50889,0.08674
2825.58017,0.08603
2823.65145,0.08528
2821.72272,0.08458
2819.79400,0.08396
2817.86527,0.08338
2815.93655,0.08284
2814.00783,0.08233
2812.07910,0.08183
2810.15038,0.08128
2808.22166,0.08062
2806.29293,0.07992
2804.36421,0.07928
2802.43549,0.07872
2800.50676,0.07828
2798.57804,0.07788
2796.64931,0.07740
2794.72059,0.07684
2792.79187,0.07636
2790.86314,0.07594
2788.93442,0.07543
2787.00570,0.07478
2785.07697,0.07416
2783.14825,0.07366
2781.21953,0.07322
2779.29080,0.07281
2777.36208,0.07242
2775.43335,0.07205
2773.50463,0.07166
2771.57591,0.07113
2769.64718,0.07051
2767.71846,0.06993
2765.78974,0.06950
2763.86101,0.06913
2761.93229,0.06868
2760.00356,0.06813
2758.07484,0.06760
2756.14612,0.06715
2754.21739,0.06674
2752.28867,0.06638
2750.35995,0.06607
2748.43122,0.06572
2746.50250,0.06528
2744.57378,0.06480
2742.64505,0.06437
2740.71633,0.06402
2738.78760,0.06373
2736.85888,0.06344
2734.93016,0.06308
2733.00143,0.06266
2731.07271,0.06228
2729.14399,0.06194
2727.21526,0.06157
2725.28654,0.06121
2723.35782,0.06085
2721.42909,0.06040
2719.50037,0.05983
2717.57164,0.05928
2715.64292,0.05890
2713.71420,0.05864
2711.78547,0.05839
2709.85675,0.05813
2707.92803,0.05787
2705.99930,0.05751
2704.07058,0.05706
2702.14185,0.05665
2700.21313,0.05637
2698.28441,0.05610
2696.35568,0.05572
2694.42696,0.05530
2692.49824,0.05496
2690.56951,0.05469
2688.64079,0.05442
2686.71207,0.05415
2684.78334,0.05389
2682.85462,0.05363
2680.92589,0.05330
2678.99717,0.05292
2677.06845,0.05263
2675.13972,0.05238
2673.21100,0.05203
2671.28228,0.05163
2669.35355,0.05132
2667.42483,0.05105
2665.49611,0.05078
2663.56738,0.05050
2661.63866,0.05020
2659.70993,0.04988
2657.78121,0.04963
2655.85249,0.04947
2653.92376,0.04924
2651.99504,0.04887
2650.06632,0.04849
2648.13759,0.04818
2646.20887,0.04793
2644.28014,0.04771
2642.35142,0.04752
2640.42270,0.04736
2638.49397,0.04722
2636.56525,0.04702
2634.63653,0.04671
2632.70780,0.04636
2630.77908,0.04603
2628.85036,0.04577
2626.92163,0.04556
2624.99291,0.04533
2623.06418,0.04512
2621.13546,0.04497
2619.20674,0.04478
2617.27801,0.04452
2615.34929,0.04423
2613.42057,0.04399
2611.49184,0.04380
2609.56312,0.04357
2607.63440,0.04335
2605.70567,0.04322
2603.77695,0.04310
2601.84822,0.04289
2599.91950,0.04262
2597.99078,0.04236
2596.06205,0.04209
2594.13333,0.04188
2592.20461,0.04182
2590.27588,0.04182
2588.34716,0.04167
2586.41843,0.04137
2584.48971,0.04111
2582.56099,0.04093
2580.63226,0.04071
2578.70354,0.04042
2576.77482,0.04022
2574.84609,0.04015
2572.91737,0.04005
2570.98865,0.03988
2569.05992,0.03972
2567.13120,0.03964
2565.20247,0.03960
2563.27375,0.03949
2561.34503,0.03930
2559.41630,0.03914
2557.48758,0.03904
2555.55886,0.03899
2553.63013,0.03897
2551.70141,0.03886
2549.77269,0.03860
2547.84396,0.03833
2545.91524,0.03820
2543.98651,0.03817
2542.05779,0.03808
2540.12907,0.03795
2538.20034,0.03783
2536.27162,0.03776
2534.34290,0.03768
2532.41417,0.03750
2530.48545,0.03728
2528.55673,0.03718
2526.62800,0.03715
2524.69928,0.03706
2522.77055,0.03687
2520.84183,0.03668
2518.91311,0.03657
2516.98438,0.03656
2515.05566,0.03659
2513.12694,0.03655
2511.19821,0.03647
2509.26949,0.03639
2507.34076,0.03626
2505.41204,0.03606
2503.48332,0.03589
2501.55459,0.03582
2499.62587,0.03581
2497.69715,0.03576
2495.76842,0.03567
2493.83970,0.03555
2491.91098,0.03541
2489.98225,0.03529
2488.05353,0.03522
2486.12480,0.03515
2484.19608,0.03506
2482.26736,0.03497
2480.33863,0.03487
2478.40991,0.03479
2476.48119,0.03474
2474.55246,0.03468
2472.62374,0.03456
2470.69502,0.03445
2468.76629,0.03443
2466.83757,0.03447
2464.90884,0.03452
2462.98012,0.03453
2461.05140,0.03444
2459.12267,0.03426
2457.19395,0.03414
2455.26523,0.03418
2453.33650,0.03426
2451.40778,0.03429
2449.47905,0.03427
2447.55033,0.03417
2445.62161,0.03400
2443.69288,0.03380
2441.76416,0.03368
2439.83544,0.03368
2437.90671,0.03371
2435.97799,0.03371
2434.04927,0.03373
2432.12054,0.03379
2430.19182,0.03382
2428.26309,0.03377
2426.33437,0.03365
2424.40565,0.03355
2422.47692,0.03353
2420.54820,0.03353
2418.61948,0.03346
2416.69075,0.03334
2414.76203,0.03327
2412.83331,0.03321
2410.90458,0.03317
2408.97586,0.03322
2407.04713,0.03324
2405.11841,0.03315
2403.18969,0.03310
2401.26096,0.03312
2399.33224,0.03308
2397.40352,0.03299
2395.47479,0.03298
2393.54607,0.03308
2391.61734,0.03316
2389.68862,0.03312
2387.75990,0.03307
2385.83117,0.03312
2383.90245,0.03326
2381.97373,0.03339
2380.04500,0.03347
2378.11628,0.03353
2376.18756,0.03359
2374.25883,0.03365
2372.33011,0.03368
2370.40138,0.03360
2368.47266,0.03347
2366.54394,0.03343
2364.61521,0.03344
2362.68649,0.03340
2360.75777,0.03346
2358.82904,0.03353
2356.90032,0.03349
2354.97160,0.03345
2353.04287,0.03372
2351.11415,0.03431
2349.18542,0.03465
2347.25670,0.03433
2345.32798,0.03385
2343.39925,0.03384
2341.47053,0.03416
2339.54181,0.03452
2337.61308,0.03469
2335.68436,0.03461
2333.75563,0.03445
2331.82691,0.03435
2329.89819,0.03428
2327.96946,0.03428
2326.04074,0.03440
2324.11202,0.03453
2322.18329,0.03451
2320.25457,0.03440
2318.32585,0.03435
2316.39712,0.03436
2314.46840,0.03439
2312.53967,0.03446
2310.61095,0.03455
2308.68223,0.03459
2306.75350,0.03452
2304.82478,0.03441
2302.89606,0.03434
2300.96733,0.03436
2299.03861,0.03448
2297.10989,0.03463
2295.18116,0.03469
2293.25244,0.03470
2291.32371,0.03478
2289.39499,0.03488
2287.46627,0.03491
2285.53754,0.03490
2283.60882,0.03492
2281.68010,0.03498
2279.75137,0.03503
2277.82265,0.03508
2275.89392,0.03509
2273.96520,0.03510
2272.03648,0.03511
2270.10775,0.03511
2268.17903,0.03509
2266.25031,0.03515
2264.32158,0.03531
2262.39286,0.03546
2260.46414,0.03553
2258.53541,0.03556
2256.60669,0.03560
2254.67796,0.03569
2252.74924,0.03577
2250.82052,0.03580
2248.89179,0.03588
2246.96307,0.03600
2245.03435,0.03614
2243.10562,0.03623
2241.17690,0.03630
2239.24818,0.03642
2237.31945,0.03651
2235.39073,0.03652
2233.46200,0.03656
2231.53328,0.03671
2229.60456,0.03688
2227.67583,0.03694
2225.74711,0.03693
2223.81839,0.03697
2221.88966,0.03707
2219.96094,0.03715
2218.03221,0.03723
2216.10349,0.03730
2214.17477,0.03735
2212.24604,0.03735
2210.31732,0.03733
2208.38860,0.03734
2206.45987,0.03743
2204.53115,0.03748
2202.60243,0.03744
2200.67370,0.03744
2198.74498,0.03753
2196.81625,0.03761
2194.88753,0.03765
2192.95881,0.03775
2191.03008,0.03793
2189.10136,0.03811
2187.17264,0.03817
2185.24391,0.03819
2183.31519,0.03826
2181.38647,0.03840
2179.45774,0.03850
2177.52902,0.03858
2175.60029,0.03865
2173.67157,0.03873
2171.74285,0.03888
2169.81412,0.03910
2167.88540,0.03924
2165.95668,0.03933
2164.02795,0.03947
2162.09923,0.03965
2160.17050,0.03981
2158.24178,0.03992
2156.31306,0.04001
2154.38433,0.04010
2152.45561,0.04016
2150.52689,0.04024
2148.59816,0.04038
2146.66944,0.04050
2144.74072,0.04058
2142.81199,0.04059
2140.88327,0.04057
2138.95454,0.04060
2137.02582,0.04069
2135.09710,0.04073
2133.16837,0.04075
2131.23965,0.04084
2129.31093,0.04101
2127.38220,0.04117
2125.45348,0.04130
2123.52476,0.04147
2121.59603,0.04163
2119.66731,0.04172
2117.73858,0.04181
2115.80986,0.04193
2113.88114,0.04199
2111.95241,0.04200
2110.02369,0.04206
2108.09497,0.04222
2106.16624,0.04234
2104.23752,0.04240
2102.30880,0.04253
2100.38007,0.04279
2098.45135,0.04297
2096.52262,0.04299
2094.59390,0.04298
2092.66518,0.04304
2090.73645,0.04316
2088.80773,0.04331
2086.87901,0.04342
2084.95028,0.04350
2083.02156,0.04355
2081.09283,0.04366
2079.16411,0.04385
2077.23539,0.04407
2075.30666,0.04424
2073.37794,0.04436
2071.44922,0.04452
2069.52049,0.04478
2067.59177,0.04507
2065.66305,0.04528
2063.73432,0.04544
2061.80560,0.04562
2059.87687,0.04584
2057.94815,0.04604
2056.01943,0.04623
2054.09070,0.04648
2052.16198,0.04681
2050.23326,0.04719
2048.30453,0.04756
2046.37581,0.04790
2044.44709,0.04825
2042.51836,0.04859
2040.58964,0.04894
2038.66091,0.04927
2036.73219,0.04960
2034.80347,0.04998
2032.87474,0.05040
2030.94602,0.05084
2029.01730,0.05129
2027.08857,0.05174
2025.15985,0.05222
2023.23112,0.05271
2021.30240,0.05317
2019.37368,0.05359
2017.44495,0.05396
2015.51623,0.05427
2013.58751,0.05457
2011.65878,0.05487
2009.73006,0.05517
2007.80134,0.05547
2005.87261,0.05573
2003.94389,0.05597
2002.01516,0.05620
2000.08644,0.05641
1998.15772,0.05663
1996.22899,0.05685
1994.30027,0.05708
1992.37155,0.05730
1990.44282,0.05744
1988.51410,0.05749
1986.58538,0.05750
1984.65665,0.05750
1982.72793,0.05761
1980.79920,0.05780
1978.87048,0.05794
1976.94176,0.05801
1975.01303,0.05801
1973.08431,0.05790
1971.15559,0.05780
1969.22686,0.05779
1967.29814,0.05786
1965.36941,0.05791
1963.44069,0.05787
1961.51197,0.05772
1959.58324,0.05759
1957.65452,0.05758
1955.72580,0.05766
1953.79707,0.05772
1951.86835,0.05770
1949.93963,0.05763
1948.01090,0.05762
1946.08218,0.05770
1944.15345,0.05780
1942.22473,0.05789
1940.29601,0.05799
1938.36728,0.05810
1936.43856,0.05823
1934.50984,0.05837
1932.58111,0.05849
1930.65239,0.05862
1928.72367,0.05877
1926.79494,0.05897
1924.86622,0.05926
1922.93749,0.05966
1921.00877,0.06006
1919.08005,0.06045
1917.15132,0.06091
1915.22260,0.06140
1913.29388,0.06190
1911.36515,0.06250
1909.43643,0.06317
1907.50770,0.06386
1905.57898,0.06452
1903.65026,0.06524
1901.72153,0.06605
1899.79281,0.06687
1897.86409,0.06763
1895.93536,0.06833
1894.00664,0.06896
1892.07792,0.06951
1890.14919,0.07008
1888.22047,0.07070
1886.29174,0.07132
1884.36302,0.07188
1882.43430,0.07237
1880.50557,0.07278
1878.57685,0.07312
1876.64813,0.07340
1874.71940,0.07357
1872.79068,0.07362
1870.86196,0.07364
1868.93323,0.07365
1867.00451,0.07356
1865.07578,0.07329
1863.14706,0.07290
1861.21834,0.07251
1859.28961,0.07215
1857.36089,0.07173
1855.43217,0.07119
1853.50344,0.07062
1851.57472,0.07007
1849.64599,0.06958
1847.71727,0.06920
1845.78855,0.06898
1843.85982,0.06888
1841.93110,0.06876
1840.00238,0.06856
1838.07365,0.06835
1836.14493,0.06820
1834.21621,0.06807
1832.28748,0.06797
1830.35876,0.06795
1828.43003,0.06801
1826.50131,0.06811
1824.57259,0.06822
1822.64386,0.06832
1820.71514,0.06838
1818.78642,0.06844
1816.85769,0.06854
1814.92897,0.06868
1813.00025,0.06889
1811.07152,0.06922
1809.14280,0.06965
1807.21407,0.07008
1805.28535,0.07048
1803.35663,0.07094
1801.42790,0.07151
1799.49918,0.07216
1797.57046,0.07279
1795.64173,0.07338
1793.71301,0.07404
1791.78428,0.07480
1789.85556,0.07551
1787.92684,0.07620
1785.99811,0.07702
1784.06939,0.07791
1782.14067,0.07877
1780.21194,0.07960
1778.28322,0.08041
1776.35450,0.08122
1774.42577,0.08215
1772.49705,0.08328
1770.56832,0.08442
1768.63960,0.08531
1766.71088,0.08598
1764.78215,0.08658
1762.85343,0.08731
1760.92471,0.08823
1758.99598,0.08913
1757.06726,0.08995
1755.13854,0.09072
1753.20981,0.09151
1751.28109,0.09256
1749.35236,0.09386
1747.42364,0.09503
1745.49492,0.09599
1743.56619,0.09698
1741.63747,0.09823
1739.70875,0.09974
1737.78002,0.10123
1735.85130,0.10281
1733.92257,0.10491
1731.99385,0.10710
1730.06513,0.10892
1728.13640,0.11070
1726.20768,0.11266
1724.27896,0.11473
1722.35023,0.11662
1720.42151,0.11823
1718.49279,0.12011
1716.56406,0.12257
1714.63534,0.12489
1712.70661,0.12674
1710.77789,0.12848
1708.84917,0.13041
1706.92044,0.13260
1704.99172,0.13475
1703.06300,0.13658
1701.13427,0.13863
1699.20555,0.14132
1697.27683,0.14421
1695.34810,0.14709
1693.41938,0.14962
1691.49065,0.15181
1689.56193,0.15408
1687.63321,0.15642
1685.70448,0.15917
1683.77576,0.16281
1681.84704,0.16625
1679.91831,0.16872
1677.98959,0.17086
1676.06087,0.17327
1674.13214,0.17587
1672.20342,0.17833
1670.27469,0.18107
1668.34597,0.18401
1666.41725,0.18628
1664.48852,0.18812
1662.55980,0.19035
1660.63108,0.19273
1658.70235,0.19455
1656.77363,0.19579
1654.84490,0.19733
1652.91618,0.19974
1650.98746,0.20168
1649.05873,0.20267
1647.13001,0.20379
1645.20129,0.20532
1643.27256,0.20658
1641.34384,0.20746
1639.41512,0.20816
1637.48639,0.20890
1635.55767,0.20977
1633.62894,0.21037
1631.70022,0.21045
1629.77150,0.21011
1627.84277,0.20947
1625.91405,0.20866
1623.98533,0.20768
1622.05660,0.20646
1620.12788,0.20498
1618.19916,0.20299
1616.27043,0.20033
1614.34171,0.19766
1612.41298,0.19533
1610.48426,0.19298
1608.55554,0.19037
1606.62681,0.18764
1604.69809,0.18501
1602.76937,0.18250
1600.84064,0.18005
1598.91192,0.17773
1596.98319,0.17562
1595.05447,0.17364
1593.12575,0.17172
1591.19702,0.16986
1589.26830,0.16810
1587.33958,0.16645
1585.41085,0.16489
1583.48213,0.16339
1581.55341,0.16195
1579.62468,0.16056
1577.69596,0.15919
1575.76723,0.15791
1573.83851,0.15694
1571.90979,0.15624
1569.98106,0.15564
1568.05234,0.15506
1566.12362,0.15440
1564.19489,0.15368
1562.26617,0.15305
1560.33745,0.15256
1558.40872,0.15212
1556.48000,0.15153
1554.55127,0.15084
1552.62255,0.15026
1550.69383,0.14975
1548.76510,0.14910
1546.83638,0.14828
1544.90766,0.14737
1542.97893,0.14639
1541.05021,0.14529
1539.12148,0.14422
1537.19276,0.14342
1535.26404,0.14268
1533.33531,0.14175
1531.40659,0.14077
1529.47787,0.13983
1527.54914,0.13885
1525.62042,0.13778
1523.69170,0.13665
1521.76297,0.13545
1519.83425,0.13438
1517.90552,0.13347
1515.97680,0.13256
1514.04808,0.13163
1512.11935,0.13075
1510.19063,0.12985
1508.26191,0.12864
1506.33318,0.12701
1504.40446,0.12551
1502.47574,0.12436
1500.54701,0.12332
1498.61829,0.12226
1496.68956,0.12128
1494.76084,0.12051
1492.83212,0.11997
1490.90339,0.11964
1488.97467,0.11950
1487.04595,0.11944
1485.11722,0.11937
1483.18850,0.11937
1481.25977,0.11944
1479.33105,0.11950
1477.40233,0.11959
1475.47360,0.12001
1473.54488,0.12123
1471.61616,0.12324
1469.68743,0.12513
1467.75871,0.12618
1465.82999,0.12660
1463.90126,0.12733
1461.97254,0.12882
1460.04381,0.13044
1458.11509,0.13191
1456.18637,0.13329
1454.25764,0.13430
1452.32892,0.13508
1450.40020,0.13595
1448.47147,0.13690
1446.54275,0.13761
1444.61403,0.13773
1442.68530,0.13715
1440.75658,0.13612
1438.82785,0.13518
1436.89913,0.13494
1434.97041,0.13539
1433.04168,0.13560
1431.11296,0.13480
1429.18424,0.13383
1427.25551,0.13442
1425.32679,0.13652
1423.39806,0.13852
1421.46934,0.13972
1419.54062,0.14094
1417.61189,0.14282
1415.68317,0.14493
1413.75445,0.14714
1411.82572,0.14962
1409.89700,0.15227
1407.96828,0.15477
1406.03955,0.15696
1404.11083,0.15874
1402.18210,0.15979
1400.25338,0.16003
1398.32466,0.15952
1396.39593,0.15827
1394.46721,0.15647
1392.53849,0.15470
1390.60976,0.15362
1388.68104,0.15374
1386.75232,0.15492
1384.82359,0.15559
1382.89487,0.15421
1380.96614,0.15118
1379.03742,0.14814
1377.10870,0.14607
1375.17997,0.14480
1373.25125,0.14386
1371.32253,0.14301
1369.39380,0.14223
1367.46508,0.14163
1365.53635,0.14121
1363.60763,0.14088
1361.67891,0.14061
1359.75018,0.14038
1357.82146,0.14019
1355.89274,0.14009
1353.96401,0.14010
1352.03529,0.14011
1350.10657,0.14008
1348.17784,0.14006
1346.24912,0.14011
1344.32039,0.14018
1342.39167,0.14028
1340.46295,0.14049
1338.53422,0.14079
1336.60550,0.14098
1334.67678,0.14102
1332.74805,0.14100
1330.81933,0.14093
1328.89061,0.14074
1326.96188,0.14034
1325.03316,0.13959
1323.10443,0.13826
1321.17571,0.13597
1319.24699,0.13220
1317.31826,0.12660
1315.38954,0.11926
1313.46082,0.11056
1311.53209,0.10106
1309.60337,0.09095
1307.67464,0.07850
1305.74592,0.05967
1303.81720,0.03327
1301.88847,0.00907
1299.95975,0.00000
1298.03103,0.00224
1296.10230,0.00407
1294.17358,0.00511
1292.24486,0.01182
1290.31613,0.02529
1288.38741,0.04293
1286.45868,0.06272
1284.52996,0.08303
1282.60124,0.10236
1280.67251,0.11972
1278.74379,0.13461
1276.81507,0.14708
1274.88634,0.15767
1272.95762,0.16701
1271.02890,0.17554
1269.10017,0.18347
1267.17145,0.19108
1265.24272,0.19883
1263.31400,0.20709
1261.38528,0.21601
1259.45655,0.22561
1257.52783,0.23568
1255.59911,0.24595
1253.67038,0.25623
1251.74166,0.26634
1249.81294,0.27614
1247.88421,0.28555
1245.95549,0.29443
1244.02676,0.30266
1242.09804,0.31019
1240.16932,0.31692
1238.24059,0.32267
1236.31187,0.32759
1234.38315,0.33191
1232.45442,0.33551
1230.52570,0.33822
1228.59697,0.34015
1226.66825,0.34155
1224.73953,0.34263
1222.81080,0.34355
1220.88208,0.34437
1218.95336,0.34469
1217.02463,0.34405
1215.09591,0.34303
1213.16719,0.34236
1211.23846,0.34179
1209.30974,0.34078
1207.38101,0.33912
1205.45229,0.33632
1203.52357,0.33150
1201.59484,0.32326
1199.66612,0.30929
1197.73740,0.28704
1195.80867,0.25742
1193.87995,0.22756
1191.95123,0.21000
1190.02250,0.20948
1188.09378,0.21423
1186.16505,0.21426
1184.23633,0.21600
1182.30761,0.22843
1180.37888,0.24890
1178.45016,0.27114
1176.52144,0.29253
1174.59271,0.31238
1172.66399,0.33055
1170.73526,0.34707
1168.80654,0.36203
1166.87782,0.37551
1164.94909,0.38728
1163.02037,0.39693
1161.09165,0.40444
1159.16292,0.41037
1157.23420,0.41534
1155.30548,0.41929
1153.37675,0.42241
1151.44803,0.42513
1149.51930,0.42756
1147.59058,0.42973
1145.66186,0.43172
1143.73313,0.43350
1141.80441,0.43501
1139.87569,0.43653
1137.94696,0.43849
1136.01824,0.44063
1134.08952,0.44250
1132.16079,0.44436
1130.23207,0.44635
1128.30334,0.44823
1126.37462,0.44978
1124.44590,0.45066
1122.51717,0.45059
1120.58845,0.44934
1118.65973,0.44672
1116.73100,0.44385
1114.80228,0.44285
1112.87355,0.44529
1110.94483,0.45042
1109.01611,0.45371
1107.08738,0.45192
1105.15866,0.45131
1103.22994,0.45869
1101.30121,0.46810
1099.37249,0.47304
1097.44377,0.47593
1095.51504,0.48008
1093.58632,0.48574
1091.65759,0.49184
1089.72887,0.49732
1087.80015,0.50150
1085.87142,0.50404
1083.94270,0.50501
1082.01398,0.50513
1080.08525,0.50521
1078.15653,0.50508
1076.22781,0.50434
1074.29908,0.50320
1072.37036,0.50191
1070.44163,0.50031
1068.51291,0.49794
1066.58419,0.49477
1064.65546,0.49124
1062.72674,0.48794
1060.79802,0.48493
1058.86929,0.48156
1056.94057,0.47768
1055.01184,0.47395
1053.08312,0.47007
1051.15440,0.46526
1049.22567,0.45995
1047.29695,0.45470
1045.36823,0.44947
1043.43950,0.44401
1041.51078,0.43820
1039.58206,0.43227
1037.65333,0.42621
1035.72461,0.41996
1033.79588,0.41343
1031.86716,0.40680
1029.93844,0.40046
1028.00971,0.39420
1026.08099,0.38782
1024.15227,0.38170
1022.22354,0.37613
1020.29482,0.37075
1018.36610,0.36521
1016.43737,0.35970
1014.50865,0.35443
1012.57992,0.34929
1010.65120,0.34406
1008.72248,0.33882
1006.79375,0.33397
1004.86503,0.32945
1002.93631,0.32467
1001.00758,0.31947
999.07886,0.31401
997.15013,0.30830
995.22141,0.30230
993.29269,0.29607
991.36396,0.28975
989.43524,0.28327
987.50652,0.27678
985.57779,0.27114
983.64907,0.26680
981.72035,0.26318
979.79162,0.25934
977.86290,0.25461
975.93417,0.24929
974.00545,0.24505
972.07673,0.24379
970.14800,0.24533
968.21928,0.24781
966.29056,0.24987
964.36183,0.25126
962.43311,0.25244
960.50439,0.25398
958.57566,0.25575
956.64694,0.25731
954.71821,0.25866
952.78949,0.25978
950.86077,0.26031
948.93204,0.26026
947.00332,0.26000
945.07460,0.25939
943.14587,0.25818
941.21715,0.25657
939.28842,0.25468
937.35970,0.25264
935.43098,0.25089
933.50225,0.24928
931.57353,0.24717
929.64481,0.24458
927.71608,0.24209
925.78736,0.23994
923.85864,0.23782
921.92991,0.23541
920.00119,0.23273
918.07246,0.22991
916.14374,0.22706
914.21502,0.22417
912.28629,0.22106
910.35757,0.21788
908.42885,0.21493
906.50012,0.21187
904.57140,0.20857
902.64268,0.20536
900.71395,0.20222
898.78523,0.19911
896.85650,0.19601
894.92778,0.19273
892.99906,0.18935
891.07033,0.18609
889.14161,0.18291
887.21289,0.17983
885.28416,0.17705
883.35544,0.17470
881.42671,0.17247
879.49799,0.16990
877.56927,0.16713
875.64054,0.16466
873.71182,0.16253
871.78310,0.16043
869.85437,0.15835
867.92565,0.15647
865.99693,0.15465
864.06820,0.15244
862.13948,0.14978
860.21075,0.14723
858.28203,0.14516
856.35331,0.14327
854.42458,0.14133
852.49586,0.13957
850.56714,0.13838
848.63841,0.13785
846.70969,0.13750
844.78097,0.13722
842.85224,0.13778
840.92352,0.13973
838.99479,0.14249
837.06607,0.14556
835.13735,0.14896
833.20862,0.15248
831.27990,0.15616
829.35118,0.16024
827.42245,0.16443
825.49373,0.16858
823.56501,0.17263
821.63628,0.17632
819.70756,0.17984
817.77883,0.18327
815.85011,0.18649
813.92139,0.18969
811.99266,0.19289
810.06394,0.19607
808.13522,0.19963
806.20649,0.20341
804.27777,0.20620
802.34904,0.20766
800.42032,0.20873
798.49160,0.20960
796.56287,0.20997
794.63415,0.20984
792.70543,0.20917
790.77670,0.20787
788.84798,0.20593
786.91926,0.20368
784.99053,0.20136
783.06181,0.19883
781.13308,0.19595
779.20436,0.19275
777.27564,0.18933
775.34691,0.18583
773.41819,0.18228
771.48947,0.17877
769.56074,0.17561
767.63202,0.17320
765.70330,0.17179
763.77457,0.17127
761.84585,0.17111
759.91712,0.17065
757.98840,0.16957
756.05968,0.16825
754.13095,0.16722
752.20223,0.16655
750.27351,0.16618
748.34478,0.16611
746.41606,0.16610
744.48733,0.16585
742.55861,0.16538
740.62989,0.16480
738.70116,0.16404
736.77244,0.16326
734.84372,0.16262
732.91499,0.16204
730.98627,0.16174
729.05755,0.16190
727.12882,0.16225
725.20010,0.16268
723.27137,0.16320
721.34265,0.16305
719.41393,0.16224
717.48520,0.16144
715.55648,0.16107
713.62776,0.16083
711.69903,0.16040
709.77031,0.15998
707.84159,0.15994
705.91286,0.16032
703.98414,0.16074
702.05541,0.16112
700.12669,0.16184
698.19797,0.16251
696.26924,0.16235
694.34052,0.16147
692.41180,0.16027
690.48307,0.15900
688.55435,0.15799
686.62562,0.15716
684.69690,0.15597
682.76818,0.15399
680.83945,0.15131
678.91073,0.14849
676.98201,0.14594
675.05328,0.14439
673.12456,0.14455
671.19584,0.14447
669.26711,0.14160
667.33839,0.13899
665.40966,0.14065
663.48094,0.14375
661.55222,0.14525
659.62349,0.14560
657.69477,0.14642
655.76605,0.14859
653.83732,0.15157
651.90860,0.15449
649.97988,0.15743
648.05115,0.16063
646.12243,0.16350
644.19370,0.16558
642.26498,0.16744
640.33626,0.16953
638.40753,0.17139
636.47881,0.17257
634.55009,0.17328
632.62136,0.17370
630.69264,0.17381
628.76391,0.17405
626.83519,0.17498
624.90647,0.17603
622.97774,0.17686
621.04902,0.17791
619.12030,0.17927
617.19157,0.18055
615.26285,0.18146
613.33413,0.18210
611.40540,0.18295
609.47668,0.18442
607.54795,0.18611
605.61923,0.18736
603.69051,0.18847
601.76178,0.19023
599.83306,0.19267
597.90434,0.19451
595.97561,0.19482
594.04689,0.19480
592.11817,0.19590
590.18944,0.19734
588.26072,0.19800
586.33199,0.19859
584.40327,0.19952
582.47455,0.19997
580.54582,0.20004
578.61710,0.20086
576.68838,0.20227
574.75965,0.20291
572.83093,0.20215
570.90220,0.20062
568.97348,0.19924
567.04476,0.19812
565.11603,0.19702
563.18731,0.19621
561.25859,0.19584
559.32986,0.19571
557.40114,0.19591
555.47242,0.19668
553.54369,0.19787
551.61497,0.19837
549.68624,0.19801
547.75752,0.19891
545.82880,0.20172
543.90007,0.20391
541.97135,0.20399
540.04263,0.20296
538.11390,0.20220
536.18518,0.20211
534.25646,0.20216
532.32773,0.20186
530.39901,0.20164
528.47028,0.20188
526.54156,0.20222
524.61284,0.20279
522.68411,0.20377
520.75539,0.20497
518.82667,0.20658
516.89794,0.20809
514.96922,0.20932
513.04049,0.21136
511.11177,0.21457
509.18305,0.21778
507.25432,0.21965
505.32560,0.22131
503.39688,0.22535
501.46815,0.23154
499.53943,0.23766
497.61071,0.24320
495.68198,0.24875
493.75326,0.25482
491.82453,0.26113
489.89581,0.26672
487.96709,0.27232
486.03836,0.28002
484.10964,0.28884
482.18092,0.29477
480.25219,0.29796
478.32347,0.30329
476.39475,0.31200
474.46602,0.32007
472.53730,0.32490
470.60857,0.32776
468.67985,0.32986
466.75113,0.33089
464.82240,0.33138
462.89368,0.33267
460.96496,0.33441
459.03623,0.33370
457.10751,0.32892
455.17878,0.32316
453.25006,0.31862
451.32134,0.31424
449.39261,0.30956
447.46389,0.30407
445.53517,0.29712
443.60644,0.29078
441.67772,0.28733
439.74900,0.28518
437.82027,0.28146
435.89155,0.27509
433.96282,0.26813
432.03410,0.26483
430.10538,0.26426
428.17665,0.25972
426.24793,0.24823
424.31921,0.23637
422.39048,0.23451
420.46176,0.23999
418.53304,0.23750
416.60431,0.22745
414.67559,0.22394
412.74686,0.22734
410.81814,0.22802
408.88942,0.21950
406.96069,0.20412
405.03197,0.19042
403.10325,0.18648
401.17452,0.19315
399.24580,0.20295
397.31708,0.20533
395.38835,0.19744
393.45963,0.18165
391.53090,0.16521
389.60218,0.16084
387.67346,0.17346
385.74473,0.18982
383.81601,0.18108
381.88729,0.14346
379.95856,0.11899
378.02984,0.13706
376.10111,0.17231
374.17239,0.16109
372.24367,0.09373
370.31494,0.03042
368.38622,0.00000
