3996.31543,0.00014
3994.38671,0.00025
3992.45799,0.00030
3990.52926,0.00023
3988.60054,0.00008
3986.67182,0.00000
3984.74309,0.00009
3982.81437,0.00030
3980.88564,0.00053
3978.95692,0.00066
3977.02820,0.00059
3975.09947,0.00040
3973.17075,0.00030
3971.24203,0.00036
3969.31330,0.00039
3967.38458,0.00030
3965.45586,0.00023
3963.52713,0.00024
3961.59841,0.00026
3959.66968,0.00032
3957.74096,0.00042
3955.81224,0.00047
3953.88351,0.00044
3951.95479,0.00045
3950.02607,0.00055
3948.09734,0.00059
3946.16862,0.00055
3944.23990,0.00049
3942.31117,0.00035
3940.38245,0.00022
3938.45372,0.00031
3936.52500,0.00055
3934.59628,0.00069
3932.66755,0.00062
3930.73883,0.00049
3928.81011,0.00051
3926.88138,0.00059
3924.95266,0.00050
3923.02393,0.00037
3921.09521,0.00041
3919.16649,0.00052
3917.23776,0.00049
3915.30904,0.00035
3913.38032,0.00025
3911.45159,0.00022
3909.52287,0.00035
3907.59415,0.00070
3905.66542,0.00105
3903.73670,0.00112
3901.80797,0.00093
3899.87925,0.00062
3897.95053,0.00035
3896.02180,0.00039
3894.09308,0.00061
3892.16436,0.00044
3890.23563,-0.00002
3888.30691,-0.00008
3886.37819,0.00021
3884.44946,0.00045
3882.52074,0.00061
3880.59201,0.00051
3878.66329,0.00023
3876.73457,0.00019
3874.80584,0.00037
3872.87712,0.00046
3870.94840,0.00031
3869.01967,0.00000
3867.09095,0.00000
3865.16222,0.00033
3863.23350,0.00037
3861.30478,0.00015
3859.37605,0.00023
3857.44733,0.00090
3855.51861,0.00169
3853.58988,0.00150
3851.66116,0.00034
3849.73244,-0.00029
3847.80371,-0.00007
3845.87499,0.00045
3843.94626,0.00089
3842.01754,0.00107
3840.08882,0.00087
3838.16009,0.00032
3836.23137,-0.00012
3834.30265,-0.00006
3832.37392,0.00026
3830.44520,0.00061
3828.51648,0.00084
3826.58775,0.00090
3824.65903,0.00100
3822.73030,0.00110
3820.80158,0.00082
3818.87286,0.00051
3816.94413,0.00053
3815.01541,0.00045
3813.08669,0.00037
3811.15796,0.00067
3809.22924,0.00119
3807.30052,0.00149
3805.37179,0.00163
3803.44307,0.00189
3801.51434,0.00201
3799.58562,0.00193
3797.65690,0.00192
3795.72817,0.00184
3793.79945,0.00169
3791.87073,0.00173
3789.94200,0.00204
3788.01328,0.00249
3786.08455,0.00292
3784.15583,0.00327
3782.22711,0.00354
3780.29838,0.00363
3778.36966,0.00357
3776.44094,0.00373
3774.51221,0.00418
3772.58349,0.00468
3770.65477,0.00502
3768.72604,0.00535
3766.79732,0.00576
3764.86859,0.00613
3762.93987,0.00651
3761.01115,0.00697
3759.08242,0.00744
3757.15370,0.00803
3755.22498,0.00902
3753.29625,0.01023
3751.36753,0.01105
3749.43881,0.01132
3747.51008,0.01176
3745.58136,0.01235
3743.65263,0.01262
3741.72391,0.01302
3739.79519,0.01403
3737.86646,0.01534
3735.93774,0.01643
3734.00902,0.01728
3732.08029,0.01829
3730.15157,0.01962
3728.22284,0.02128
3726.29412,0.02319
3724.36540,0.02517
3722.43667,0.02723
3720.50795,0.02956
3718.57923,0.03213
3716.65050,0.03478
3714.72178,0.03763
3712.79306,0.04088
3710.86433,0.04445
3708.93561,0.04798
3707.00688,0.05136
3705.07816,0.05489
3703.14944,0.05898
3701.22071,0.06358
3699.29199,0.06809
3697.36327,0.07228
3695.43454,0.07632
3693.50582,0.08050
3691.57710,0.08514
3689.64837,0.09021
3687.71965,0.09509
3685.79092,0.09963
3683.86220,0.10431
3681.93348,0.10930
3680.00475,0.11446
3678.07603,0.11991
3676.14731,0.12599
3674.21858,0.13188
3672.28986,0.13675
3670.36113,0.14162
3668.43241,0.14685
3666.50369,0.15159
3664.57496,0.15599
3662.64624,0.16037
3660.71752,0.16451
3658.78879,0.16837
3656.86007,0.17240
3654.93135,0.17664
3653.00262,0.18064
3651.07390,0.18465
3649.14517,0.18885
3647.21645,0.19256
3645.28773,0.19561
3643.35900,0.19856
3641.43028,0.20160
3639.50156,0.20456
3637.57283,0.20741
3635.64411,0.21029
3633.71539,0.21317
3631.78666,0.21600
3629.85794,0.21885
3627.92921,0.22156
3626.00049,0.22377
3624.07177,0.22568
3622.14304,0.22766
3620.21432,0.22980
3618.28560,0.23181
3616.35687,0.23343
3614.42815,0.23491
3612.49942,0.23653
3610.57070,0.23828
3608.64198,0.24006
3606.71325,0.24168
3604.78453,0.24300
3602.85581,0.24426
3600.92708,0.24586
3598.99836,0.24768
3597.06964,0.24932
3595.14091,0.25073
3593.21219,0.25217
3591.28346,0.25366
3589.35474,0.25514
3587.42602,0.25672
3585.49729,0.25842
3583.56857,0.26009
3581.63985,0.26164
3579.71112,0.26298
3577.78240,0.26413
3575.85368,0.26538
3573.92495,0.26693
3571.99623,0.26859
3570.06750,0.27007
3568.13878,0.27134
3566.21006,0.27260
3564.28133,0.27404
3562.35261,0.27560
3560.42389,0.27708
3558.49516,0.27843
3556.56644,0.27974
3554.63771,0.28096
3552.70899,0.28201
3550.78027,0.28303
3548.85154,0.28418
3546.92282,0.28557
3544.99410,0.28713
3543.06537,0.28847
3541.13665,0.28936
3539.20793,0.29019
3537.27920,0.29132
3535.35048,0.29269
3533.42175,0.29405
3531.49303,0.29530
3529.56431,0.29637
3527.63558,0.29729
3525.70686,0.29819
3523.77814,0.29900
3521.84941,0.29974
3519.92069,0.30064
3517.99197,0.30179
3516.06324,0.30309
3514.13452,0.30443
3512.20579,0.30565
3510.27707,0.30669
3508.34835,0.30768
3506.41962,0.30870
3504.49090,0.30975
3502.56218,0.31079
3500.63345,0.31177
3498.70473,0.31267
3496.77600,0.31354
3494.84728,0.31432
3492.91856,0.31502
3490.98983,0.31571
3489.06111,0.31641
3487.13239,0.31718
3485.20366,0.31809
3483.27494,0.31898
3481.34622,0.31979
3479.41749,0.32065
3477.48877,0.32162
3475.56004,0.32260
3473.63132,0.32334
3471.70260,0.32379
3469.77387,0.32419
3467.84515,0.32478
3465.91643,0.32551
3463.98770,0.32621
3462.05898,0.32683
3460.13026,0.32748
3458.20153,0.32820
3456.27281,0.32895
3454.34408,0.32958
3452.41536,0.33007
3450.48664,0.33054
3448.55791,0.33099
3446.62919,0.33151
3444.70047,0.33221
3442.77174,0.33288
3440.84302,0.33335
3438.91429,0.33381
3436.98557,0.33431
3435.05685,0.33462
3433.12812,0.33487
3431.19940,0.33524
3429.27068,0.33568
3427.34195,0.33607
3425.41323,0.33641
3423.48451,0.33667
3421.55578,0.33680
3419.62706,0.33690
3417.69833,0.33716
3415.76961,0.33758
3413.84089,0.33793
3411.91216,0.33804
3409.98344,0.33793
3408.05472,0.33784
3406.12599,0.33802
3404.19727,0.33834
3402.26855,0.33841
3400.33982,0.33827
3398.41110,0.33823
3396.48237,0.33836
3394.55365,0.33859
3392.62493,0.33876
3390.69620,0.33857
3388.76748,0.33811
3386.83876,0.33768
3384.91003,0.33728
3382.98131,0.33707
3381.05259,0.33713
3379.12386,0.33717
3377.19514,0.33705
3375.26641,0.33686
3373.33769,0.33661
3371.40897,0.33625
3369.48024,0.33586
3367.55152,0.33552
3365.62280,0.33509
3363.69407,0.33461
3361.76535,0.33442
3359.83662,0.33448
3357.90790,0.33438
3355.97918,0.33396
3354.05045,0.33340
3352.12173,0.33288
3350.19301,0.33242
3348.26428,0.33195
3346.33556,0.33135
3344.40684,0.33075
3342.47811,0.33035
3340.54939,0.33009
3338.62066,0.32979
3336.69194,0.32945
3334.76322,0.32917
3332.83449,0.32898
3330.90577,0.32879
3328.97705,0.32853
3327.04832,0.32803
3325.11960,0.32725
3323.19088,0.32653
3321.26215,0.32612
3319.33343,0.32582
3317.40470,0.32542
3315.47598,0.32493
3313.54726,0.32450
3311.61853,0.32418
3309.68981,0.32381
3307.76109,0.32341
3305.83236,0.32304
3303.90364,0.32253
3301.97491,0.32192
3300.04619,0.32137
3298.11747,0.32099
3296.18874,0.32080
3294.26002,0.32065
3292.33130,0.32018
3290.40257,0.31934
3288.47385,0.31861
3286.54513,0.31818
3284.61640,0.31782
3282.68768,0.31745
3280.75895,0.31718
3278.83023,0.31685
3276.90151,0.31639
3274.97278,0.31596
3273.04406,0.31560
3271.11534,0.31526
3269.18661,0.31494
3267.25789,0.31457
3265.32917,0.31407
3263.40044,0.31350
3261.47172,0.31301
3259.54299,0.31268
3257.61427,0.31235
3255.68555,0.31193
3253.75682,0.31145
3251.82810,0.31087
3249.89938,0.31028
3247.97065,0.30983
3246.04193,0.30935
3244.11320,0.30862
3242.18448,0.30789
3240.25576,0.30743
3238.32703,0.30707
3236.39831,0.30661
3234.46959,0.30611
3232.54086,0.30562
3230.61214,0.30497
3228.68342,0.30417
3226.75469,0.30344
3224.82597,0.30276
3222.89724,0.30201
3220.96852,0.30122
3219.03980,0.30050
3217.11107,0.29976
3215.18235,0.29899
3213.25363,0.29830
3211.32490,0.29775
3209.39618,0.29712
3207.46746,0.29626
3205.53873,0.29522
3203.61001,0.29414
3201.68128,0.29319
3199.75256,0.29239
3197.82384,0.29159
3195.89511,0.29076
3193.96639,0.28993
3192.03767,0.28906
3190.10894,0.28810
3188.18022,0.28712
3186.25149,0.28615
3184.32277,0.28507
3182.39405,0.28394
3180.46532,0.28297
3178.53660,0.28208
3176.60788,0.28104
3174.67915,0.28001
3172.75043,0.27917
3170.82171,0.27827
3168.89298,0.27715
3166.96426,0.27599
3165.03553,0.27497
3163.10681,0.27400
3161.17809,0.27294
3159.24936,0.27182
3157.32064,0.27082
3155.39192,0.26993
3153.46319,0.26894
3151.53447,0.26774
3149.60575,0.26638
3147.67702,0.26499
3145.74830,0.26377
3143.81957,0.26282
3141.89085,0.26187
3139.96213,0.26084
3138.03340,0.25993
3136.10468,0.25895
3134.17596,0.25770
3132.24723,0.25642
3130.31851,0.25541
3128.38978,0.25453
3126.46106,0.25355
3124.53234,0.25247
3122.60361,0.25122
3120.67489,0.24986
3118.74617,0.24862
3116.81744,0.24751
3114.88872,0.24640
3112.96000,0.24530
3111.03127,0.24419
3109.10255,0.24296
3107.17382,0.24162
3105.24510,0.24026
3103.31638,0.23892
3101.38765,0.23762
3099.45893,0.23639
3097.53021,0.23524
3095.60148,0.23409
3093.67276,0.23284
3091.74404,0.23145
3089.81531,0.22997
3087.88659,0.22863
3085.95786,0.22753
3084.02914,0.22638
3082.10042,0.22497
3080.17169,0.22348
3078.24297,0.22214
3076.31425,0.22091
3074.38552,0.21967
3072.45680,0.21838
3070.52807,0.21707
3068.59935,0.21574
3066.67063,0.21436
3064.74190,0.21292
3062.81318,0.21149
3060.88446,0.21020
3058.95573,0.20898
3057.02701,0.20779
3055.09829,0.20660
3053.16956,0.20535
3051.24084,0.20401
3049.31211,0.20264
3047.38339,0.20132
3045.45467,0.20010
3043.52594,0.19896
3041.59722,0.19779
3039.66850,0.19652
3037.73977,0.19521
3035.81105,0.19405
3033.88233,0.19305
3031.95360,0.19198
3030.02488,0.19074
3028.09615,0.18946
3026.16743,0.18829
3024.23871,0.18715
3022.30998,0.18597
3020.38126,0.18483
3018.45254,0.18379
3016.52381,0.18281
3014.59509,0.18176
3012.66636,0.18069
3010.73764,0.17963
3008.80892,0.17862
3006.88019,0.17763
3004.95147,0.17658
3003.02275,0.17558
3001.09402,0.17479
2999.16530,0.17407
2997.23658,0.17310
2995.30785,0.17194
2993.37913,0.17088
2991.45040,0.17004
2989.52168,0.16936
2987.59296,0.16876
2985.66423,0.16827
2983.73551,0.16784
2981.80679,0.16744
2979.87806,0.16709
2977.94934,0.16680
2976.02062,0.16654
2974.09189,0.16637
2972.16317,0.16638
2970.23444,0.16652
2968.30572,0.16666
2966.37700,0.16681
2964.44827,0.16687
2962.51955,0.16673
2960.59083,0.16648
2958.66210,0.16604
2956.73338,0.16526
2954.80466,0.16427
2952.87593,0.16325
2950.94721,0.16220
2949.01848,0.16129
2947.08976,0.16081
2945.16104,0.16079
2943.23231,0.16114
2941.30359,0.16173
2939.37487,0.16246
2937.44614,0.16317
2935.51742,0.16388
2933.58869,0.16471
2931.65997,0.16546
2929.73125,0.16591
2927.80252,0.16600
2925.87380,0.16552
2923.94508,0.16419
2922.01635,0.16209
2920.08763,0.15948
2918.15891,0.15657
2916.23018,0.15355
2914.30146,0.15065
2912.37273,0.14801
2910.44401,0.14556
2908.51529,0.14321
2906.58656,0.14110
2904.65784,0.13922
2902.72912,0.13744
2900.80039,0.13569
2898.87167,0.13395
2896.94295,0.13232
2895.01422,0.13083
2893.08550,0.12937
2891.15677,0.12787
2889.22805,0.12635
2887.29933,0.12492
2885.37060,0.12370
2883.44188,0.12280
2881.51316,0.12217
2879.58443,0.12160
2877.65571,0.12092
2875.72698,0.12023
2873.79826,0.11966
2871.86954,0.11906
2869.94081,0.11832
2868.01209,0.11762
2866.08337,0.11714
2864.15464,0.11696
2862.22592,0.11711
2860.29720,0.11751
2858.36847,0.11789
2856.43975,0.11796
2854.51102,0.11750
2852.58230,0.11624
2850.65358,0.11391
2848.72485,0.11079
2846.79613,0.10748
2844.86741,0.10425
2842.93868,0.10129
2841.00996,0.09886
2839.08124,0.09690
2837.15251,0.09511
2835.22379,0.09338
2833.29506,0.09181
2831.36634,0.09045
2829.43762,0.08919
2827.50889,0.08800
2825.58017,0.08697
2823.65145,0.08604
2821.72272,0.08506
2819.79400,0.08408
2817.86527,0.08311
2815.93655,0.08214
2814.00783,0.08122
2812.07910,0.08037
2810.15038,0.07953
2808.22166,0.07870
2806.29293,0.07783
2804.36421,0.07690
2802.43549,0.07604
2800.50676,0.07528
2798.57804,0.07449
2796.64931,0.07366
2794.72059,0.07285
2792.79187,0.07214
2790.86314,0.07145
2788.93442,0.07066
2787.00570,0.06979
2785.07697,0.06898
2783.14825,0.06824
2781.21953,0.06751
2779.29080,0.06676
2777.36208,0.06604
2775.43335,0.06532
2773.50463,0.06454
2771.57591,0.06375
2769.64718,0.06299
2767.71846,0.06229
2765.78974,0.06161
2763.86101,0.06098
2761.93229,0.06034
2760.00356,0.05964
2758.07484,0.05890
2756.14612,0.05823
2754.21739,0.05763
2752.28867,0.05703
2750.35995,0.05635
2748.43122,0.05561
2746.50250,0.05493
2744.57378,0.05435
2742.64505,0.05378
2740.71633,0.05321
2738.78760,0.05265
2736.85888,0.05203
2734.93016,0.05135
2733.00143,0.05069
2731.07271,0.05011
2729.14399,0.04967
2727.21526,0.04925
2725.28654,0.04865
2723.35782,0.04788
2721.42909,0.04714
2719.50037,0.04651
2717.57164,0.04592
2715.64292,0.04532
2713.71420,0.04477
2711.78547,0.04429
2709.85675,0.04375
2707.92803,0.04317
2705.99930,0.04260
2704.07058,0.04199
2702.14185,0.04134
2700.21313,0.04080
2698.28441,0.04037
2696.35568,0.03985
2694.42696,0.03917
2692.49824,0.03853
2690.56951,0.03805
2688.64079,0.03764
2686.71207,0.03722
2684.78334,0.03675
2682.85462,0.03631
2680.92589,0.03595
2678.99717,0.03553
2677.06845,0.03497
2675.13972,0.03439
2673.21100,0.03385
2671.28228,0.03331
2669.35355,0.03274
2667.42483,0.03218
2665.49611,0.03166
2663.56738,0.03116
2661.63866,0.03071
2659.70993,0.03029
2657.78121,0.02984
2655.85249,0.02934
2653.92376,0.02884
2651.99504,0.02839
2650.06632,0.02800
2648.13759,0.02760
2646.20887,0.02716
2644.28014,0.02673
2642.35142,0.02635
2640.42270,0.02594
2638.49397,0.02545
2636.56525,0.02500
2634.63653,0.02465
2632.70780,0.02429
2630.77908,0.02384
2628.85036,0.02343
2626.92163,0.02306
2624.99291,0.02265
2623.06418,0.02220
2621.13546,0.02176
2619.20674,0.02138
2617.27801,0.02105
2615.34929,0.02073
2613.42057,0.02038
2611.49184,0.01996
2609.56312,0.01954
2607.63440,0.01918
2605.70567,0.01884
2603.77695,0.01850
2601.84822,0.01818
2599.91950,0.01787
2597.99078,0.01758
2596.06205,0.01733
2594.13333,0.01699
2592.20461,0.01657
2590.27588,0.01618
2588.34716,0.01586
2586.41843,0.01557
2584.48971,0.01529
2582.56099,0.01498
2580.63226,0.01465
2578.70354,0.01435
2576.77482,0.01404
2574.84609,0.01373
2572.91737,0.01348
2570.98865,0.01327
2569.05992,0.01304
2567.13120,0.01277
2565.20247,0.01246
2563.27375,0.01213
2561.34503,0.01182
2559.41630,0.01161
2557.48758,0.01142
2555.55886,0.01117
2553.63013,0.01088
2551.70141,0.01061
2549.77269,0.01039
2547.84396,0.01023
2545.91524,0.01008
2543.98651,0.00987
2542.05779,0.00961
2540.12907,0.00933
2538.20034,0.00912
2536.27162,0.00896
2534.34290,0.00875
2532.41417,0.00846
2530.48545,0.00822
2528.55673,0.00805
2526.62800,0.00791
2524.69928,0.00778
2522.77055,0.00766
2520.84183,0.00749
2518.91311,0.00723
2516.98438,0.00698
2515.05566,0.00681
2513.12694,0.00670
2511.19821,0.00658
2509.26949,0.00643
2507.34076,0.00625
2505.41204,0.00604
2503.48332,0.00579
2501.55459,0.00555
2499.62587,0.00534
2497.69715,0.00517
2495.76842,0.00505
2493.83970,0.00502
2491.91098,0.00500
2489.98225,0.00487
2488.05353,0.00465
2486.12480,0.00447
2484.19608,0.00435
2482.26736,0.00424
2480.33863,0.00414
2478.40991,0.00409
2476.48119,0.00405
2474.55246,0.00394
2472.62374,0.00376
2470.69502,0.00354
2468.76629,0.00335
2466.83757,0.00321
2464.90884,0.00306
2462.98012,0.00290
2461.05140,0.00284
2459.12267,0.00285
2457.19395,0.00285
2455.26523,0.00280
2453.33650,0.00266
2451.40778,0.00244
2449.47905,0.00229
2447.55033,0.00222
2445.62161,0.00218
2443.69288,0.00214
2441.76416,0.00206
2439.83544,0.00198
2437.90671,0.00196
2435.97799,0.00195
2434.04927,0.00186
2432.12054,0.00173
2430.19182,0.00167
2428.26309,0.00171
2426.33437,0.00170
2424.40565,0.00156
2422.47692,0.00143
2420.54820,0.00132
2418.61948,0.00121
2416.69075,0.00117
2414.76203,0.00115
2412.83331,0.00106
2410.90458,0.00090
2408.97586,0.00075
2407.04713,0.00066
2405.11841,0.00067
2403.18969,0.00073
2401.26096,0.00075
2399.33224,0.00072
2397.40352,0.00062
2395.47479,0.00046
2393.54607,0.00029
2391.61734,0.00024
2389.68862,0.00026
2387.75990,0.00031
2385.83117,0.00037
2383.90245,0.00043
2381.97373,0.00045
2380.04500,0.00047
2378.11628,0.00055
2376.18756,0.00065
2374.25883,0.00067
2372.33011,0.00060
2370.40138,0.00052
2368.47266,0.00049
2366.54394,0.00054
2364.61521,0.00057
2362.68649,0.00049
2360.75777,0.00044
2358.82904,0.00047
2356.90032,0.00046
2354.97160,0.00033
2353.04287,0.00013
2351.11415,0.00000
2349.18542,0.00008
2347.25670,0.00035
2345.32798,0.00059
2343.39925,0.00063
2341.47053,0.00056
2339.54181,0.00048
2337.61308,0.00041
2335.68436,0.00036
2333.75563,0.00037
2331.82691,0.00040
2329.89819,0.00038
2327.96946,0.00033
2326.04074,0.00032
2324.11202,0.00037
2322.18329,0.00040
2320.25457,0.00038
2318.32585,0.00033
2316.39712,0.00024
2314.46840,0.00011
2312.53967,0.00000
2310.61095,-0.00004
2308.68223,-0.00006
2306.75350,-0.00009
2304.82478,-0.00009
2302.89606,-0.00004
2300.96733,0.00003
2299.03861,0.00008
2297.10989,0.00008
2295.18116,0.00001
2293.25244,-0.00005
2291.32371,-0.00004
2289.39499,0.00001
2287.46627,0.00001
2285.53754,-0.00003
2283.60882,-0.00005
2281.68010,-0.00001
2279.75137,0.00006
2277.82265,0.00014
2275.89392,0.00021
2273.96520,0.00025
2272.03648,0.00023
2270.10775,0.00019
2268.17903,0.00019
2266.25031,0.00020
2264.32158,0.00023
2262.39286,0.00026
2260.46414,0.00026
2258.53541,0.00023
2256.60669,0.00022
2254.67796,0.00022
2252.74924,0.00017
2250.82052,0.00013
2248.89179,0.00014
2246.96307,0.00015
2245.03435,0.00010
2243.10562,0.00007
2241.17690,0.00013
2239.24818,0.00022
2237.31945,0.00026
2235.39073,0.00021
2233.46200,0.00010
2231.53328,0.00002
2229.60456,0.00005
2227.67583,0.00013
2225.74711,0.00014
2223.81839,0.00005
2221.88966,0.00003
2219.96094,0.00013
2218.03221,0.00022
2216.10349,0.00023
2214.17477,0.00022
2212.24604,0.00022
2210.31732,0.00019
2208.38860,0.00014
2206.45987,0.00006
2204.53115,0.00000
2202.60243,0.00000
2200.67370,0.00008
2198.74498,0.00013
2196.81625,0.00011
2194.88753,0.00009
2192.95881,0.00009
2191.03008,0.00011
2189.10136,0.00017
2187.17264,0.00021
2185.24391,0.00018
2183.31519,0.00017
2181.38647,0.00025
2179.45774,0.00030
2177.52902,0.00026
2175.60029,0.00026
2173.67157,0.00034
2171.74285,0.00039
2169.81412,0.00034
2167.88540,0.00025
2165.95668,0.00020
2164.02795,0.00020
2162.09923,0.00022
2160.17050,0.00029
2158.24178,0.00037
2156.31306,0.00042
2154.38433,0.00046
2152.45561,0.00049
2150.52689,0.00046
2148.59816,0.00041
2146.66944,0.00038
2144.74072,0.00036
2142.81199,0.00033
2140.88327,0.00032
2138.95454,0.00032
2137.02582,0.00033
2135.09710,0.00039
2133.16837,0.00047
2131.23965,0.00047
2129.31093,0.00042
2127.38220,0.00039
2125.45348,0.00032
2123.52476,0.00024
2121.59603,0.00018
2119.66731,0.00014
2117.73858,0.00012
2115.80986,0.00015
2113.88114,0.00020
2111.95241,0.00018
2110.02369,0.00011
2108.09497,0.00008
2106.16624,0.00008
2104.23752,0.00011
2102.30880,0.00017
2100.38007,0.00022
2098.45135,0.00019
2096.52262,0.00010
2094.59390,0.00000
2092.66518,-0.00014
2090.73645,-0.00024
2088.80773,-0.00032
2086.87901,-0.00036
2084.95028,-0.00038
2083.02156,-0.00043
2081.09283,-0.00054
2079.16411,-0.00061
2077.23539,-0.00061
2075.30666,-0.00061
2073.37794,-0.00066
2071.44922,-0.00072
2069.52049,-0.00071
2067.59177,-0.00064
2065.66305,-0.00058
2063.73432,-0.00056
2061.80560,-0.00051
2059.87687,-0.00039
2057.94815,-0.00023
2056.01943,-0.00009
2054.09070,0.00005
2052.16198,0.00027
2050.23326,0.00052
2048.30453,0.00070
2046.37581,0.00081
2044.44709,0.00099
2042.51836,0.00125
2040.58964,0.00151
2038.66091,0.00176
2036.73219,0.00204
2034.80347,0.00234
2032.87474,0.00267
2030.94602,0.00300
2029.01730,0.00324
2027.08857,0.00339
2025.15985,0.00354
2023.23112,0.00371
2021.30240,0.00392
2019.37368,0.00415
2017.44495,0.00439
2015.51623,0.00461
2013.58751,0.00481
2011.65878,0.00504
2009.73006,0.00526
2007.80134,0.00536
2005.87261,0.00535
2003.94389,0.00539
2002.01516,0.00551
2000.08644,0.00561
1998.15772,0.00563
1996.22899,0.00565
1994.30027,0.00565
1992.37155,0.00559
1990.44282,0.00552
1988.51410,0.00555
1986.58538,0.00565
1984.65665,0.00572
1982.72793,0.00563
1980.79920,0.00542
1978.87048,0.00522
1976.94176,0.00508
1975.01303,0.00491
1973.08431,0.00471
1971.15559,0.00454
1969.22686,0.00435
1967.29814,0.00407
1965.36941,0.00379
1963.44069,0.00361
1961.51197,0.00348
1959.58324,0.00332
1957.65452,0.00308
1955.72580,0.00279
1953.79707,0.00250
1951.86835,0.00228
1949.93963,0.00214
1948.01090,0.00204
1946.08218,0.00193
1944.15345,0.00182
1942.22473,0.00167
1940.29601,0.00145
1938.36728,0.00126
1936.43856,0.00115
1934.50984,0.00109
1932.58111,0.00106
1930.65239,0.00105
1928.72367,0.00107
1926.79494,0.00120
1924.86622,0.00139
1922.93749,0.00156
1921.00877,0.00173
1919.08005,0.00197
1917.15132,0.00223
1915.22260,0.00256
1913.29388,0.00300
1911.36515,0.00352
1909.43643,0.00407
1907.50770,0.00465
1905.57898,0.00524
1903.65026,0.00587
1901.72153,0.00654
1899.79281,0.00721
1897.86409,0.00783
1895.93536,0.00841
1894.00664,0.00898
1892.07792,0.00959
1890.14919,0.01021
1888.22047,0.01079
1886.29174,0.01126
1884.36302,0.01166
1882.43430,0.01201
1880.50557,0.01230
1878.57685,0.01249
1876.64813,0.01258
1874.71940,0.01263
1872.79068,0.01266
1870.86196,0.01263
1868.93323,0.01240
1867.00451,0.01196
1865.07578,0.01152
1863.14706,0.01113
1861.21834,0.01068
1859.28961,0.01010
1857.36089,0.00945
1855.43217,0.00878
1853.50344,0.00810
1851.57472,0.00744
1849.64599,0.00682
1847.71727,0.00622
1845.78855,0.00555
1843.85982,0.00476
1841.93110,0.00402
1840.00238,0.00350
1838.07365,0.00310
1836.14493,0.00271
1834.21621,0.00235
1832.28748,0.00203
1830.35876,0.00161
1828.43003,0.00115
1826.50131,0.00083
1824.57259,0.00062
1822.64386,0.00043
1820.71514,0.00028
1818.78642,0.00019
1816.85769,0.00009
1814.92897,0.00000
1813.00025,-0.00017
1811.07152,-0.00031
1809.14280,-0.00038
1807.21407,-0.00034
1805.28535,-0.00019
1803.35663,-0.00000
1801.42790,0.00015
1799.49918,0.00022
1797.57046,0.00034
1795.64173,0.00063
1793.71301,0.00109
1791.78428,0.00155
1789.85556,0.00198
1787.92684,0.00247
1785.99811,0.00303
1784.06939,0.00363
1782.14067,0.00422
1780.21194,0.00479
1778.28322,0.00543
1776.35450,0.00621
1774.42577,0.00710
1772.49705,0.00792
1770.56832,0.00861
1768.63960,0.00926
1766.71088,0.00993
1764.78215,0.01061
1762.85343,0.01129
1760.92471,0.01199
1758.99598,0.01273
1757.06726,0.01352
1755.13854,0.01434
1753.20981,0.01519
1751.28109,0.01616
1749.35236,0.01731
1747.42364,0.01860
1745.49492,0.01994
1743.56619,0.02128
1741.63747,0.02272
1739.70875,0.02427
1737.78002,0.02582
1735.85130,0.02754
1733.92257,0.02977
1731.99385,0.03218
1730.06513,0.03442
1728.13640,0.03664
1726.20768,0.03893
1724.27896,0.04131
1722.35023,0.04361
1720.42151,0.04579
1718.49279,0.04819
1716.56406,0.05093
1714.63534,0.05353
1712.70661,0.05588
1710.77789,0.05824
1708.84917,0.06079
1706.92044,0.06359
1704.99172,0.06647
1703.06300,0.06917
1701.13427,0.07211
1699.20555,0.07556
1697.27683,0.07905
1695.34810,0.08252
1693.41938,0.08574
1691.49065,0.08875
1689.56193,0.09194
1687.63321,0.09528
1685.70448,0.09910
1683.77576,0.10372
1681.84704,0.10793
1679.91831,0.11127
1677.98959,0.11445
1676.06087,0.11797
1674.13214,0.12163
1672.20342,0.12498
1670.27469,0.12839
1668.34597,0.13198
1666.41725,0.13503
1664.48852,0.13775
1662.55980,0.14070
1660.63108,0.14354
1658.70235,0.14577
1656.77363,0.14752
1654.84490,0.14927
1652.91618,0.15143
1650.98746,0.15345
1649.05873,0.15503
1647.13001,0.15653
1645.20129,0.15785
1643.27256,0.15878
1641.34384,0.15956
1639.41512,0.16036
1637.48639,0.16107
1635.55767,0.16145
1633.62894,0.16144
1631.70022,0.16132
1629.77150,0.16099
1627.84277,0.16019
1625.91405,0.15886
1623.98533,0.15697
1622.05660,0.15477
1620.12788,0.15260
1618.19916,0.14980
1616.27043,0.14578
1614.34171,0.14166
1612.41298,0.13821
1610.48426,0.13481
1608.55554,0.13109
1606.62681,0.12731
1604.69809,0.12371
1602.76937,0.12029
1600.84064,0.11709
1598.91192,0.11416
1596.98319,0.11138
1595.05447,0.10858
1593.12575,0.10580
1591.19702,0.10320
1589.26830,0.10076
1587.33958,0.09837
1585.41085,0.09603
1583.48213,0.09383
1581.55341,0.09183
1579.62468,0.08997
1577.69596,0.08794
1575.76723,0.08561
1573.83851,0.08371
1571.90979,0.08239
1569.98106,0.08097
1568.05234,0.07933
1566.12362,0.07783
1564.19489,0.07666
1562.26617,0.07583
1560.33745,0.07468
1558.40872,0.07252
1556.48000,0.07052
1554.55127,0.06932
1552.62255,0.06826
1550.69383,0.06703
1548.76510,0.06575
1546.83638,0.06457
1544.90766,0.06341
1542.97893,0.06191
1541.05021,0.05963
1539.12148,0.05698
1537.19276,0.05526
1535.26404,0.05408
1533.33531,0.05239
1531.40659,0.05040
1529.47787,0.04870
1527.54914,0.04696
1525.62042,0.04500
1523.69170,0.04311
1521.76297,0.04116
1519.83425,0.03907
1517.90552,0.03701
1515.97680,0.03496
1514.04808,0.03317
1512.11935,0.03180
1510.19063,0.03063
1508.26191,0.02904
1506.33318,0.02664
1504.40446,0.02453
1502.47574,0.02321
1500.54701,0.02207
1498.61829,0.02063
1496.68956,0.01907
1494.76084,0.01795
1492.83212,0.01740
1490.90339,0.01697
1488.97467,0.01637
1487.04595,0.01587
1485.11722,0.01580
1483.18850,0.01616
1481.25977,0.01685
1479.33105,0.01777
1477.40233,0.01890
1475.47360,0.02044
1473.54488,0.02264
1471.61616,0.02533
1469.68743,0.02771
1467.75871,0.02957
1465.82999,0.03111
1463.90126,0.03236
1461.97254,0.03332
1460.04381,0.03413
1458.11509,0.03483
1456.18637,0.03534
1454.25764,0.03574
1452.32892,0.03615
1450.40020,0.03658
1448.47147,0.03697
1446.54275,0.03729
1444.61403,0.03761
1442.68530,0.03800
1440.75658,0.03849
1438.82785,0.03906
1436.89913,0.03963
1434.97041,0.04008
1433.04168,0.04052
1431.11296,0.04116
1429.18424,0.04195
1427.25551,0.04268
1425.32679,0.04337
1423.39806,0.04416
1421.46934,0.04502
1419.54062,0.04594
1417.61189,0.04689
1415.68317,0.04783
1413.75445,0.04886
1411.82572,0.05005
1409.89700,0.05130
1407.96828,0.05248
1406.03955,0.05362
1404.11083,0.05464
1402.18210,0.05521
1400.25338,0.05502
1398.32466,0.05401
1396.39593,0.05240
1394.46721,0.05052
1392.53849,0.04889
1390.60976,0.04815
1388.68104,0.04893
1386.75232,0.05105
1384.82359,0.05230
1382.89487,0.05054
1380.96614,0.04645
1379.03742,0.04244
1377.10870,0.03967
1375.17997,0.03761
1373.25125,0.03571
1371.32253,0.03406
1369.39380,0.03274
1367.46508,0.03164
1365.53635,0.03066
1363.60763,0.02959
1361.67891,0.02845
1359.75018,0.02757
1357.82146,0.02696
1355.89274,0.02640
1353.96401,0.02584
1352.03529,0.02537
1350.10657,0.02497
1348.17784,0.02457
1346.24912,0.02423
1344.32039,0.02403
1342.39167,0.02398
1340.46295,0.02404
1338.53422,0.02417
1336.60550,0.02428
1334.67678,0.02441
1332.74805,0.02467
1330.81933,0.02505
1328.89061,0.02550
1326.96188,0.02604
1325.03316,0.02668
1323.10443,0.02740
1321.17571,0.02819
1319.24699,0.02902
1317.31826,0.02987
1315.38954,0.03069
1313.46082,0.03146
1311.53209,0.03217
1309.60337,0.03283
1307.67464,0.03360
1305.74592,0.03471
1303.81720,0.03618
1301.88847,0.03786
1299.95975,0.03957
1298.03103,0.04132
1296.10230,0.04320
1294.17358,0.04531
1292.24486,0.04768
1290.31613,0.05035
1288.38741,0.05335
1286.45868,0.05661
1284.52996,0.06012
1282.60124,0.06393
1280.67251,0.06814
1278.74379,0.07290
1276.81507,0.07820
1274.88634,0.08401
1272.95762,0.09049
1271.02890,0.09785
1269.10017,0.10600
1267.17145,0.11500
1265.24272,0.12515
1263.31400,0.13644
1261.38528,0.14872
1259.45655,0.16201
1257.52783,0.17622
1255.59911,0.19107
1253.67038,0.20605
1251.74166,0.22058
1249.81294,0.23430
1247.88421,0.24724
1245.95549,0.25936
1244.02676,0.27048
1242.09804,0.28057
1240.16932,0.28965
1238.24059,0.29767
1236.31187,0.30470
1234.38315,0.31108
1232.45442,0.31713
1230.52570,0.32284
1228.59697,0.32822
1226.66825,0.33329
1224.73953,0.33798
1222.81080,0.34217
1220.88208,0.34600
1218.95336,0.34974
1217.02463,0.35342
1215.09591,0.35680
1213.16719,0.35985
1211.23846,0.36276
1209.30974,0.36568
1207.38101,0.36863
1205.45229,0.37152
1203.52357,0.37425
1201.59484,0.37688
1199.66612,0.37963
1197.73740,0.38252
1195.80867,0.38538
1193.87995,0.38796
1191.95123,0.39023
1190.02250,0.39269
1188.09378,0.39554
1186.16505,0.39818
1184.23633,0.40043
1182.30761,0.40261
1180.37888,0.40471
1178.45016,0.40677
1176.52144,0.40893
1174.59271,0.41093
1172.66399,0.41280
1170.73526,0.41519
1168.80654,0.41781
1166.87782,0.41991
1164.94909,0.42192
1163.02037,0.42442
1161.09165,0.42690
1159.16292,0.42880
1157.23420,0.43057
1155.30548,0.43239
1153.37675,0.43417
1151.44803,0.43634
1149.51930,0.43904
1147.59058,0.44169
1145.66186,0.44374
1143.73313,0.44561
1141.80441,0.44791
1139.87569,0.45035
1137.94696,0.45246
1136.01824,0.45466
1134.08952,0.45746
1132.16079,0.46059
1130.23207,0.46367
1128.30334,0.46687
1126.37462,0.47049
1124.44590,0.47423
1122.51717,0.47778
1120.58845,0.48157
1118.65973,0.48597
1116.73100,0.49088
1114.80228,0.49607
1112.87355,0.50184
1110.94483,0.50862
1109.01611,0.51591
1107.08738,0.52264
1105.15866,0.52837
1103.22994,0.53362
1101.30121,0.53868
1099.37249,0.54328
1097.44377,0.54727
1095.51504,0.55035
1093.58632,0.55210
1091.65759,0.55281
1089.72887,0.55340
1087.80015,0.55386
1085.87142,0.55390
1083.94270,0.55362
1082.01398,0.55314
1080.08525,0.55231
1078.15653,0.55056
1076.22781,0.54786
1074.29908,0.54504
1072.37036,0.54278
1070.44163,0.54046
1068.51291,0.53681
1066.58419,0.53202
1064.65546,0.52692
1062.72674,0.52148
1060.79802,0.51558
1058.86929,0.50960
1056.94057,0.50366
1055.01184,0.49736
1053.08312,0.49049
1051.15440,0.48310
1049.22567,0.47540
1047.29695,0.46729
1045.36823,0.45896
1043.43950,0.45110
1041.51078,0.44341
1039.58206,0.43500
1037.65333,0.42604
1035.72461,0.41724
1033.79588,0.40864
1031.86716,0.39992
1029.93844,0.39095
1028.00971,0.38187
1026.08099,0.37312
1024.15227,0.36497
1022.22354,0.35725
1020.29482,0.34979
1018.36610,0.34261
1016.43737,0.33552
1014.50865,0.32861
1012.57992,0.32227
1010.65120,0.31619
1008.72248,0.31002
1006.79375,0.30398
1004.86503,0.29820
1002.93631,0.29262
1001.00758,0.28719
999.07886,0.28174
997.15013,0.27628
995.22141,0.27126
993.29269,0.26694
991.36396,0.26314
989.43524,0.25945
987.50652,0.25568
985.57779,0.25225
983.64907,0.24940
981.72035,0.24697
979.79162,0.24481
977.86290,0.24314
975.93417,0.24216
974.00545,0.24137
972.07673,0.24041
970.14800,0.23966
968.21928,0.23934
966.29056,0.23911
964.36183,0.23872
962.43311,0.23828
960.50439,0.23796
958.57566,0.23772
956.64694,0.23721
954.71821,0.23630
952.78949,0.23522
950.86077,0.23403
948.93204,0.23265
947.00332,0.23109
945.07460,0.22940
943.14587,0.22751
941.21715,0.22534
939.28842,0.22295
937.35970,0.22047
935.43098,0.21788
933.50225,0.21505
931.57353,0.21207
929.64481,0.20917
927.71608,0.20624
925.78736,0.20311
923.85864,0.19994
921.92991,0.19671
920.00119,0.19336
918.07246,0.19001
916.14374,0.18664
914.21502,0.18310
912.28629,0.17945
910.35757,0.17598
908.42885,0.17259
906.50012,0.16885
904.57140,0.16467
902.64268,0.16015
900.71395,0.15569
898.78523,0.15177
896.85650,0.14791
894.92778,0.14360
892.99906,0.13947
891.07033,0.13599
889.14161,0.13248
887.21289,0.12849
885.28416,0.12468
883.35544,0.12148
881.42671,0.11860
879.49799,0.11574
877.56927,0.11270
875.64054,0.10936
873.71182,0.10614
871.78310,0.10347
869.85437,0.10118
867.92565,0.09902
865.99693,0.09707
864.06820,0.09536
862.13948,0.09371
860.21075,0.09216
858.28203,0.09075
856.35331,0.08929
854.42458,0.08800
852.49586,0.08732
850.56714,0.08721
848.63841,0.08773
846.70969,0.08917
844.78097,0.09149
842.85224,0.09460
840.92352,0.09846
838.99479,0.10283
837.06607,0.10736
835.13735,0.11184
833.20862,0.11652
831.27990,0.12172
829.35118,0.12711
827.42245,0.13249
825.49373,0.13785
823.56501,0.14295
821.63628,0.14762
819.70756,0.15187
817.77883,0.15604
815.85011,0.16060
813.92139,0.16536
811.99266,0.16966
810.06394,0.17315
808.13522,0.17595
806.20649,0.17838
804.27777,0.18074
802.34904,0.18288
800.42032,0.18450
798.49160,0.18539
796.56287,0.18540
794.63415,0.18448
792.70543,0.18266
790.77670,0.18030
788.84798,0.17788
786.91926,0.17512
784.99053,0.17142
783.06181,0.16700
781.13308,0.16205
779.20436,0.15630
777.27564,0.15005
775.34691,0.14376
773.41819,0.13765
771.48947,0.13218
769.56074,0.12790
767.63202,0.12480
765.70330,0.12262
763.77457,0.12126
761.84585,0.12059
759.91712,0.12010
757.98840,0.11934
756.05968,0.11868
754.13095,0.11850
752.20223,0.11843
750.27351,0.11812
748.34478,0.11762
746.41606,0.11688
744.48733,0.11619
742.55861,0.11561
740.62989,0.11469
738.70116,0.11377
736.77244,0.11335
734.84372,0.11321
732.91499,0.11309
730.98627,0.11294
729.05755,0.11305
727.12882,0.11363
725.20010,0.11409
723.27137,0.11376
721.34265,0.11305
719.41393,0.11252
717.48520,0.11235
715.55648,0.11241
713.62776,0.11258
711.69903,0.11260
709.77031,0.11241
707.84159,0.11250
705.91286,0.11319
703.98414,0.11428
702.05541,0.11546
700.12669,0.11637
698.19797,0.11694
696.26924,0.11756
694.34052,0.11818
692.41180,0.11846
690.48307,0.11866
688.55435,0.11911
686.62562,0.11957
684.69690,0.11971
682.76818,0.11958
680.83945,0.11955
678.91073,0.11995
676.98201,0.12053
675.05328,0.12084
673.12456,0.12078
671.19584,0.12051
669.26711,0.12056
667.33839,0.12134
665.40966,0.12218
663.48094,0.12254
661.55222,0.12300
659.62349,0.12407
657.69477,0.12529
655.76605,0.12611
653.83732,0.12673
651.90860,0.12782
649.97988,0.12982
648.05115,0.13229
646.12243,0.13433
644.19370,0.13553
642.26498,0.13620
640.33626,0.13704
638.40753,0.13842
636.47881,0.14003
634.55009,0.14149
632.62136,0.14258
630.69264,0.14334
628.76391,0.14403
626.83519,0.14468
624.90647,0.14530
622.97774,0.14648
621.04902,0.14840
619.12030,0.15032
617.19157,0.15170
615.26285,0.15298
613.33413,0.15464
611.40540,0.15666
609.47668,0.15880
607.54795,0.16066
605.61923,0.16216
603.69051,0.16376
601.76178,0.16551
599.83306,0.16705
597.90434,0.16872
595.97561,0.17107
594.04689,0.17351
592.11817,0.17548
590.18944,0.17742
588.26072,0.17947
586.33199,0.18119
584.40327,0.18252
582.47455,0.18403
580.54582,0.18638
578.61710,0.18904
576.68838,0.19074
574.75965,0.19117
572.83093,0.19125
570.90220,0.19204
568.97348,0.19337
567.04476,0.19431
565.11603,0.19511
563.18731,0.19656
561.25859,0.19791
559.32986,0.19810
557.40114,0.19827
555.47242,0.20036
553.54369,0.20389
551.61497,0.20643
549.68624,0.20680
547.75752,0.20603
545.82880,0.20582
543.90007,0.20724
541.97135,0.21011
540.04263,0.21280
538.11390,0.21364
536.18518,0.21245
534.25646,0.21033
532.32773,0.20844
530.39901,0.20740
528.47028,0.20729
526.54156,0.20838
524.61284,0.21077
522.68411,0.21290
520.75539,0.21316
518.82667,0.21246
516.89794,0.21357
514.96922,0.21750
513.04049,0.22212
511.11177,0.22614
509.18305,0.23061
507.25432,0.23551
505.32560,0.23959
503.39688,0.24486
501.46815,0.25376
499.53943,0.26374
497.61071,0.27270
495.68198,0.28272
493.75326,0.29457
491.82453,0.30609
489.89581,0.31580
487.96709,0.32432
486.03836,0.33307
484.10964,0.34194
482.18092,0.34944
480.25219,0.35655
478.32347,0.36591
476.39475,0.37613
474.46602,0.38449
472.53730,0.39262
470.60857,0.40087
468.67985,0.40535
466.75113,0.40607
464.82240,0.40691
462.89368,0.40800
460.96496,0.40561
459.03623,0.39969
457.10751,0.39399
455.17878,0.38882
453.25006,0.38246
451.32134,0.37703
449.39261,0.37464
447.46389,0.37205
445.53517,0.36528
443.60644,0.35530
441.67772,0.34503
439.74900,0.33500
437.82027,0.32473
435.89155,0.31537
433.96282,0.30779
432.03410,0.30014
430.10538,0.29187
428.17665,0.28559
426.24793,0.28308
424.31921,0.28276
422.39048,0.27941
420.46176,0.26532
418.53304,0.24197
416.60431,0.22795
414.67559,0.23039
412.74686,0.23705
410.81814,0.23427
408.88942,0.21896
406.96069,0.20045
405.03197,0.18983
403.10325,0.19012
401.17452,0.19580
399.24580,0.19683
397.31708,0.18891
395.38835,0.18313
393.45963,0.18560
391.53090,0.18337
389.60218,0.16459
387.67346,0.13860
385.74473,0.12291
383.81601,0.11832
381.88729,0.11743
379.95856,0.13025
378.02984,0.16085
376.10111,0.17905
374.17239,0.15233
372.24367,0.09978
370.31494,0.04873
368.38622,0.00000
