3996.31543,0.00000
3994.38671,0.00011
3992.45799,0.00009
3990.52926,0.00009
3988.60054,0.00014
3986.67182,0.00013
3984.74309,0.00006
3982.81437,0.00005
3980.88564,0.00009
3978.95692,0.00010
3977.02820,0.00011
3975.09947,0.00023
3973.17075,0.00041
3971.24203,0.00055
3969.31330,0.00062
3967.38458,0.00065
3965.45586,0.00065
3963.52713,0.00076
3961.59841,0.00096
3959.66968,0.00105
3957.74096,0.00096
3955.81224,0.00082
3953.88351,0.00070
3951.95479,0.00070
3950.02607,0.00089
3948.09734,0.00114
3946.16862,0.00114
3944.23990,0.00104
3942.31117,0.00116
3940.38245,0.00127
3938.45372,0.00104
3936.52500,0.00058
3934.59628,0.00030
3932.66755,0.00051
3930.73883,0.00093
3928.81011,0.00104
3926.88138,0.00089
3924.95266,0.00090
3923.02393,0.00103
3921.09521,0.00102
3919.16649,0.00103
3917.23776,0.00126
3915.30904,0.00139
3913.38032,0.00117
3911.45159,0.00075
3909.52287,0.00032
3907.59415,0.00000
3905.66542,0.00016
3903.73670,0.00092
3901.80797,0.00163
3899.87925,0.00182
3897.95053,0.00154
3896.02180,0.00091
3894.09308,0.00036
3892.16436,0.00043
3890.23563,0.00072
3888.30691,0.00058
3886.37819,0.00049
3884.44946,0.00079
3882.52074,0.00104
3880.59201,0.00119
3878.66329,0.00115
3876.73457,0.00067
3874.80584,0.00030
3872.87712,0.00051
3870.94840,0.00118
3869.01967,0.00171
3867.09095,0.00160
3865.16222,0.00142
3863.23350,0.00163
3861.30478,0.00161
3859.37605,0.00098
3857.44733,0.00014
3855.51861,0.00000
3853.58988,0.00137
3851.66116,0.00286
3849.73244,0.00259
3847.80371,0.00137
3845.87499,0.00045
3843.94626,0.00016
3842.01754,0.00031
3840.08882,0.00076
3838.16009,0.00138
3836.23137,0.00174
3834.30265,0.00170
3832.37392,0.00161
3830.44520,0.00153
3828.51648,0.00136
3826.58775,0.00111
3824.65903,0.00075
3822.73030,0.00080
3820.80158,0.00171
3818.87286,0.00242
3816.94413,0.00257
3815.01541,0.00275
3813.08669,0.00248
3811.15796,0.00162
3809.22924,0.00104
3807.30052,0.00131
3805.37179,0.00174
3803.44307,0.00197
3801.51434,0.00273
3799.58562,0.00354
3797.65690,0.00367
3795.72817,0.00359
3793.79945,0.00341
3791.87073,0.00306
3789.94200,0.00282
3788.01328,0.00293
3786.08455,0.00338
3784.15583,0.00379
3782.22711,0.00388
3780.29838,0.00412
3778.36966,0.00469
3776.44094,0.00499
3774.51221,0.00489
3772.58349,0.00490
3770.65477,0.00542
3768.72604,0.00632
3766.79732,0.00711
3764.86859,0.00753
3762.93987,0.00754
3761.01115,0.00771
3759.08242,0.00859
3757.15370,0.00943
3755.22498,0.00949
3753.29625,0.00973
3751.36753,0.01131
3749.43881,0.01324
3747.51008,0.01398
3745.58136,0.01481
3743.65263,0.01653
3741.72391,0.01744
3739.79519,0.01724
3737.86646,0.01762
3735.93774,0.01977
3734.00902,0.02290
3732.08029,0.02523
3730.15157,0.02628
3728.22284,0.02699
3726.29412,0.02851
3724.36540,0.03102
3722.43667,0.03389
3720.50795,0.03656
3718.57923,0.03879
3716.65050,0.04050
3714.72178,0.04219
3712.79306,0.04532
3710.86433,0.05047
3708.93561,0.05537
3707.00688,0.05842
3705.07816,0.06065
3703.14944,0.06371
3701.22071,0.06794
3699.29199,0.07212
3697.36327,0.07551
3695.43454,0.07835
3693.50582,0.08099
3691.57710,0.08452
3689.64837,0.09013
3687.71965,0.09631
3685.79092,0.10065
3683.86220,0.10348
3681.93348,0.10614
3680.00475,0.10914
3678.07603,0.11309
3676.14731,0.11907
3674.21858,0.12555
3672.28986,0.13017
3670.36113,0.13483
3668.43241,0.14023
3666.50369,0.14429
3664.57496,0.14725
3662.64624,0.15036
3660.71752,0.15368
3658.78879,0.15710
3656.86007,0.16107
3654.93135,0.16485
3653.00262,0.16731
3651.07390,0.17012
3649.14517,0.17528
3647.21645,0.18057
3645.28773,0.18346
3643.35900,0.18509
3641.43028,0.18705
3639.50156,0.18955
3637.57283,0.19220
3635.64411,0.19480
3633.71539,0.19717
3631.78666,0.19933
3629.85794,0.20242
3627.92921,0.20667
3626.00049,0.20963
3624.07177,0.21072
3622.14304,0.21154
3620.21432,0.21345
3618.28560,0.21627
3616.35687,0.21854
3614.42815,0.22006
3612.49942,0.22151
3610.57070,0.22313
3608.64198,0.22515
3606.71325,0.22724
3604.78453,0.22868
3602.85581,0.22987
3600.92708,0.23151
3598.99836,0.23334
3597.06964,0.23510
3595.14091,0.23704
3593.21219,0.23877
3591.28346,0.23973
3589.35474,0.24074
3587.42602,0.24300
3585.49729,0.24567
3583.56857,0.24730
3581.63985,0.24809
3579.71112,0.24885
3577.78240,0.25003
3575.85368,0.25166
3573.92495,0.25323
3571.99623,0.25419
3570.06750,0.25487
3568.13878,0.25644
3566.21006,0.25908
3564.28133,0.26118
3562.35261,0.26209
3560.42389,0.26271
3558.49516,0.26361
3556.56644,0.26471
3554.63771,0.26598
3552.70899,0.26746
3550.78027,0.26878
3548.85154,0.26979
3546.92282,0.27101
3544.99410,0.27254
3543.06537,0.27376
3541.13665,0.27448
3539.20793,0.27518
3537.27920,0.27618
3535.35048,0.27730
3533.42175,0.27830
3531.49303,0.27929
3529.56431,0.28045
3527.63558,0.28160
3525.70686,0.28254
3523.77814,0.28340
3521.84941,0.28436
3519.92069,0.28537
3517.99197,0.28632
3516.06324,0.28709
3514.13452,0.28774
3512.20579,0.28853
3510.27707,0.28960
3508.34835,0.29073
3506.41962,0.29163
3504.49090,0.29240
3502.56218,0.29319
3500.63345,0.29393
3498.70473,0.29464
3496.77600,0.29539
3494.84728,0.29610
3492.91856,0.29669
3490.98983,0.29730
3489.06111,0.29805
3487.13239,0.29892
3485.20366,0.29966
3483.27494,0.30022
3481.34622,0.30079
3479.41749,0.30141
3477.48877,0.30208
3475.56004,0.30283
3473.63132,0.30353
3471.70260,0.30400
3469.77387,0.30433
3467.84515,0.30470
3465.91643,0.30510
3463.98770,0.30560
3462.05898,0.30623
3460.13026,0.30681
3458.20153,0.30729
3456.27281,0.30778
3454.34408,0.30827
3452.41536,0.30870
3450.48664,0.30909
3448.55791,0.30955
3446.62919,0.31011
3444.70047,0.31060
3442.77174,0.31088
3440.84302,0.31100
3438.91429,0.31103
3436.98557,0.31122
3435.05685,0.31166
3433.12812,0.31218
3431.19940,0.31262
3429.27068,0.31288
3427.34195,0.31296
3425.41323,0.31302
3423.48451,0.31326
3421.55578,0.31368
3419.62706,0.31395
3417.69833,0.31388
3415.76961,0.31392
3413.84089,0.31433
3411.91216,0.31461
3409.98344,0.31459
3408.05472,0.31463
3406.12599,0.31473
3404.19727,0.31468
3402.26855,0.31454
3400.33982,0.31446
3398.41110,0.31454
3396.48237,0.31474
3394.55365,0.31495
3392.62493,0.31503
3390.69620,0.31478
3388.76748,0.31424
3386.83876,0.31391
3384.91003,0.31405
3382.98131,0.31433
3381.05259,0.31434
3379.12386,0.31418
3377.19514,0.31403
3375.26641,0.31388
3373.33769,0.31364
3371.40897,0.31326
3369.48024,0.31284
3367.55152,0.31255
3365.62280,0.31244
3363.69407,0.31237
3361.76535,0.31220
3359.83662,0.31208
3357.90790,0.31195
3355.97918,0.31152
3354.05045,0.31096
3352.12173,0.31067
3350.19301,0.31055
3348.26428,0.31034
3346.33556,0.31001
3344.40684,0.30969
3342.47811,0.30944
3340.54939,0.30912
3338.62066,0.30874
3336.69194,0.30842
3334.76322,0.30819
3332.83449,0.30796
3330.90577,0.30761
3328.97705,0.30707
3327.04832,0.30645
3325.11960,0.30596
3323.19088,0.30572
3321.26215,0.30554
3319.33343,0.30528
3317.40470,0.30498
3315.47598,0.30461
3313.54726,0.30414
3311.61853,0.30371
3309.68981,0.30335
3307.76109,0.30307
3305.83236,0.30278
3303.90364,0.30244
3301.97491,0.30222
3300.04619,0.30192
3298.11747,0.30133
3296.18874,0.30076
3294.26002,0.30050
3292.33130,0.30034
3290.40257,0.30003
3288.47385,0.29962
3286.54513,0.29922
3284.61640,0.29888
3282.68768,0.29853
3280.75895,0.29813
3278.83023,0.29770
3276.90151,0.29730
3274.97278,0.29690
3273.04406,0.29647
3271.11534,0.29602
3269.18661,0.29555
3267.25789,0.29508
3265.32917,0.29457
3263.40044,0.29403
3261.47172,0.29358
3259.54299,0.29322
3257.61427,0.29281
3255.68555,0.29233
3253.75682,0.29176
3251.82810,0.29109
3249.89938,0.29040
3247.97065,0.28982
3246.04193,0.28922
3244.11320,0.28857
3242.18448,0.28803
3240.25576,0.28756
3238.32703,0.28701
3236.39831,0.28649
3234.46959,0.28603
3232.54086,0.28541
3230.61214,0.28460
3228.68342,0.28379
3226.75469,0.28311
3224.82597,0.28246
3222.89724,0.28173
3220.96852,0.28102
3219.03980,0.28056
3217.11107,0.28024
3215.18235,0.27971
3213.25363,0.27886
3211.32490,0.27793
3209.39618,0.27722
3207.46746,0.27673
3205.53873,0.27616
3203.61001,0.27532
3201.68128,0.27436
3199.75256,0.27354
3197.82384,0.27287
3195.89511,0.27213
3193.96639,0.27117
3192.03767,0.27015
3190.10894,0.26927
3188.18022,0.26843
3186.25149,0.26750
3184.32277,0.26659
3182.39405,0.26575
3180.46532,0.26496
3178.53660,0.26417
3176.60788,0.26336
3174.67915,0.26254
3172.75043,0.26167
3170.82171,0.26072
3168.89298,0.25968
3166.96426,0.25867
3165.03553,0.25779
3163.10681,0.25697
3161.17809,0.25612
3159.24936,0.25521
3157.32064,0.25429
3155.39192,0.25331
3153.46319,0.25228
3151.53447,0.25135
3149.60575,0.25049
3147.67702,0.24956
3145.74830,0.24858
3143.81957,0.24764
3141.89085,0.24680
3139.96213,0.24603
3138.03340,0.24523
3136.10468,0.24427
3134.17596,0.24321
3132.24723,0.24220
3130.31851,0.24135
3128.38978,0.24062
3126.46106,0.23985
3124.53234,0.23891
3122.60361,0.23783
3120.67489,0.23682
3118.74617,0.23592
3116.81744,0.23505
3114.88872,0.23419
3112.96000,0.23329
3111.03127,0.23221
3109.10255,0.23100
3107.17382,0.22989
3105.24510,0.22894
3103.31638,0.22801
3101.38765,0.22704
3099.45893,0.22603
3097.53021,0.22499
3095.60148,0.22390
3093.67276,0.22274
3091.74404,0.22163
3089.81531,0.22063
3087.88659,0.21959
3085.95786,0.21849
3084.02914,0.21741
3082.10042,0.21637
3080.17169,0.21531
3078.24297,0.21421
3076.31425,0.21305
3074.38552,0.21186
3072.45680,0.21077
3070.52807,0.20977
3068.59935,0.20872
3066.67063,0.20760
3064.74190,0.20653
3062.81318,0.20544
3060.88446,0.20426
3058.95573,0.20311
3057.02701,0.20209
3055.09829,0.20102
3053.16956,0.19985
3051.24084,0.19877
3049.31211,0.19774
3047.38339,0.19671
3045.45467,0.19578
3043.52594,0.19485
3041.59722,0.19377
3039.66850,0.19267
3037.73977,0.19165
3035.81105,0.19066
3033.88233,0.18969
3031.95360,0.18870
3030.02488,0.18760
3028.09615,0.18646
3026.16743,0.18541
3024.23871,0.18444
3022.30998,0.18354
3020.38126,0.18273
3018.45254,0.18199
3016.52381,0.18123
3014.59509,0.18030
3012.66636,0.17926
3010.73764,0.17830
3008.80892,0.17747
3006.88019,0.17675
3004.95147,0.17603
3003.02275,0.17525
3001.09402,0.17447
2999.16530,0.17375
2997.23658,0.17305
2995.30785,0.17235
2993.37913,0.17161
2991.45040,0.17088
2989.52168,0.17033
2987.59296,0.16991
2985.66423,0.16953
2983.73551,0.16916
2981.80679,0.16876
2979.87806,0.16837
2977.94934,0.16819
2976.02062,0.16814
2974.09189,0.16787
2972.16317,0.16740
2970.23444,0.16708
2968.30572,0.16698
2966.37700,0.16700
2964.44827,0.16708
2962.51955,0.16712
2960.59083,0.16707
2958.66210,0.16685
2956.73338,0.16645
2954.80466,0.16606
2952.87593,0.16579
2950.94721,0.16552
2949.01848,0.16530
2947.08976,0.16523
2945.16104,0.16527
2943.23231,0.16542
2941.30359,0.16571
2939.37487,0.16614
2937.44614,0.16671
2935.51742,0.16734
2933.58869,0.16793
2931.65997,0.16849
2929.73125,0.16897
2927.80252,0.16913
2925.87380,0.16879
2923.94508,0.16794
2922.01635,0.16668
2920.08763,0.16503
2918.15891,0.16283
2916.23018,0.16012
2914.30146,0.15724
2912.37273,0.15451
2910.44401,0.15207
2908.51529,0.14988
2906.58656,0.14798
2904.65784,0.14634
2902.72912,0.14487
2900.80039,0.14353
2898.87167,0.14218
2896.94295,0.14074
2895.01422,0.13932
2893.08550,0.13796
2891.15677,0.13665
2889.22805,0.13538
2887.29933,0.13408
2885.37060,0.13275
2883.44188,0.13162
2881.51316,0.13071
2879.58443,0.12986
2877.65571,0.12912
2875.72698,0.12857
2873.79826,0.12799
2871.86954,0.12719
2869.94081,0.12628
2868.01209,0.12550
2866.08337,0.12490
2864.15464,0.12454
2862.22592,0.12446
2860.29720,0.12466
2858.36847,0.12508
2856.43975,0.12559
2854.51102,0.12583
2852.58230,0.12535
2850.65358,0.12375
2848.72485,0.12107
2846.79613,0.11779
2844.86741,0.11453
2842.93868,0.11169
2841.00996,0.10932
2839.08124,0.10727
2837.15251,0.10545
2835.22379,0.10380
2833.29506,0.10229
2831.36634,0.10090
2829.43762,0.09966
2827.50889,0.09856
2825.58017,0.09750
2823.65145,0.09648
2821.72272,0.09551
2819.79400,0.09449
2817.86527,0.09347
2815.93655,0.09259
2814.00783,0.09178
2812.07910,0.09089
2810.15038,0.08991
2808.22166,0.08898
2806.29293,0.08817
2804.36421,0.08741
2802.43549,0.08669
2800.50676,0.08602
2798.57804,0.08525
2796.64931,0.08431
2794.72059,0.08334
2792.79187,0.08255
2790.86314,0.08191
2788.93442,0.08118
2787.00570,0.08027
2785.07697,0.07936
2783.14825,0.07857
2781.21953,0.07785
2779.29080,0.07712
2777.36208,0.07641
2775.43335,0.07574
2773.50463,0.07507
2771.57591,0.07438
2769.64718,0.07366
2767.71846,0.07296
2765.78974,0.07226
2763.86101,0.07155
2761.93229,0.07086
2760.00356,0.07019
2758.07484,0.06955
2756.14612,0.06890
2754.21739,0.06823
2752.28867,0.06762
2750.35995,0.06706
2748.43122,0.06646
2746.50250,0.06578
2744.57378,0.06515
2742.64505,0.06455
2740.71633,0.06388
2738.78760,0.06320
2736.85888,0.06261
2734.93016,0.06204
2733.00143,0.06145
2731.07271,0.06082
2729.14399,0.06020
2727.21526,0.05966
2725.28654,0.05910
2723.35782,0.05847
2721.42909,0.05783
2719.50037,0.05719
2717.57164,0.05652
2715.64292,0.05589
2713.71420,0.05529
2711.78547,0.05467
2709.85675,0.05409
2707.92803,0.05356
2705.99930,0.05300
2704.07058,0.05243
2702.14185,0.05187
2700.21313,0.05130
2698.28441,0.05077
2696.35568,0.05024
2694.42696,0.04970
2692.49824,0.04924
2690.56951,0.04881
2688.64079,0.04830
2686.71207,0.04774
2684.78334,0.04721
2682.85462,0.04674
2680.92589,0.04631
2678.99717,0.04583
2677.06845,0.04529
2675.13972,0.04476
2673.21100,0.04423
2671.28228,0.04370
2669.35355,0.04321
2667.42483,0.04275
2665.49611,0.04225
2663.56738,0.04174
2661.63866,0.04125
2659.70993,0.04079
2657.78121,0.04034
2655.85249,0.03991
2653.92376,0.03951
2651.99504,0.03908
2650.06632,0.03859
2648.13759,0.03809
2646.20887,0.03760
2644.28014,0.03711
2642.35142,0.03667
2640.42270,0.03633
2638.49397,0.03594
2636.56525,0.03548
2634.63653,0.03503
2632.70780,0.03462
2630.77908,0.03421
2628.85036,0.03382
2626.92163,0.03342
2624.99291,0.03297
2623.06418,0.03248
2621.13546,0.03205
2619.20674,0.03168
2617.27801,0.03129
2615.34929,0.03087
2613.42057,0.03046
2611.49184,0.03009
2609.56312,0.02976
2607.63440,0.02945
2605.70567,0.02906
2603.77695,0.02864
2601.84822,0.02830
2599.91950,0.02805
2597.99078,0.02776
2596.06205,0.02731
2594.13333,0.02679
2592.20461,0.02642
2590.27588,0.02619
2588.34716,0.02593
2586.41843,0.02558
2584.48971,0.02519
2582.56099,0.02487
2580.63226,0.02459
2578.70354,0.02427
2576.77482,0.02393
2574.84609,0.02365
2572.91737,0.02341
2570.98865,0.02315
2569.05992,0.02284
2567.13120,0.02256
2565.20247,0.02233
2563.27375,0.02210
2561.34503,0.02183
2559.41630,0.02155
2557.48758,0.02125
2555.55886,0.02091
2553.63013,0.02064
2551.70141,0.02046
2549.77269,0.02029
2547.84396,0.02006
2545.91524,0.01977
2543.98651,0.01949
2542.05779,0.01926
2540.12907,0.01901
2538.20034,0.01876
2536.27162,0.01858
2534.34290,0.01840
2532.41417,0.01817
2530.48545,0.01796
2528.55673,0.01776
2526.62800,0.01750
2524.69928,0.01721
2522.77055,0.01695
2520.84183,0.01672
2518.91311,0.01649
2516.98438,0.01629
2515.05566,0.01614
2513.12694,0.01599
2511.19821,0.01580
2509.26949,0.01558
2507.34076,0.01529
2505.41204,0.01502
2503.48332,0.01481
2501.55459,0.01457
2499.62587,0.01427
2497.69715,0.01402
2495.76842,0.01389
2493.83970,0.01380
2491.91098,0.01365
2489.98225,0.01347
2488.05353,0.01328
2486.12480,0.01310
2484.19608,0.01293
2482.26736,0.01276
2480.33863,0.01254
2478.40991,0.01229
2476.48119,0.01207
2474.55246,0.01188
2472.62374,0.01167
2470.69502,0.01147
2468.76629,0.01132
2466.83757,0.01119
2464.90884,0.01101
2462.98012,0.01078
2461.05140,0.01055
2459.12267,0.01034
2457.19395,0.01012
2455.26523,0.00994
2453.33650,0.00979
2451.40778,0.00963
2449.47905,0.00941
2447.55033,0.00914
2445.62161,0.00890
2443.69288,0.00876
2441.76416,0.00867
2439.83544,0.00854
2437.90671,0.00840
2435.97799,0.00826
2434.04927,0.00807
2432.12054,0.00784
2430.19182,0.00764
2428.26309,0.00749
2426.33437,0.00734
2424.40565,0.00722
2422.47692,0.00716
2420.54820,0.00707
2418.61948,0.00687
2416.69075,0.00662
2414.76203,0.00638
2412.83331,0.00619
2410.90458,0.00604
2408.97586,0.00593
2407.04713,0.00582
2405.11841,0.00568
2403.18969,0.00549
2401.26096,0.00533
2399.33224,0.00525
2397.40352,0.00516
2395.47479,0.00501
2393.54607,0.00482
2391.61734,0.00467
2389.68862,0.00456
2387.75990,0.00443
2385.83117,0.00429
2383.90245,0.00418
2381.97373,0.00409
2380.04500,0.00400
2378.11628,0.00392
2376.18756,0.00385
2374.25883,0.00377
2372.33011,0.00377
2370.40138,0.00388
2368.47266,0.00397
2366.54394,0.00401
2364.61521,0.00410
2362.68649,0.00427
2360.75777,0.00439
2358.82904,0.00449
2356.90032,0.00466
2354.97160,0.00483
2353.04287,0.00478
2351.11415,0.00434
2349.18542,0.00365
2347.25670,0.00315
2345.32798,0.00312
2343.39925,0.00331
2341.47053,0.00342
2339.54181,0.00346
2337.61308,0.00345
2335.68436,0.00329
2333.75563,0.00309
2331.82691,0.00303
2329.89819,0.00310
2327.96946,0.00316
2326.04074,0.00313
2324.11202,0.00301
2322.18329,0.00282
2320.25457,0.00262
2318.32585,0.00252
2316.39712,0.00250
2314.46840,0.00247
2312.53967,0.00238
2310.61095,0.00228
2308.68223,0.00222
2306.75350,0.00210
2304.82478,0.00189
2302.89606,0.00166
2300.96733,0.00152
2299.03861,0.00142
2297.10989,0.00131
2295.18116,0.00119
2293.25244,0.00117
2291.32371,0.00119
2289.39499,0.00119
2287.46627,0.00118
2285.53754,0.00116
2283.60882,0.00112
2281.68010,0.00108
2279.75137,0.00105
2277.82265,0.00099
2275.89392,0.00091
2273.96520,0.00089
2272.03648,0.00092
2270.10775,0.00095
2268.17903,0.00092
2266.25031,0.00086
2264.32158,0.00078
2262.39286,0.00073
2260.46414,0.00067
2258.53541,0.00063
2256.60669,0.00059
2254.67796,0.00052
2252.74924,0.00049
2250.82052,0.00052
2248.89179,0.00056
2246.96307,0.00049
2245.03435,0.00047
2243.10562,0.00045
2241.17690,0.00036
2239.24818,0.00027
2237.31945,0.00023
2235.39073,0.00024
2233.46200,0.00025
2231.53328,0.00024
2229.60456,0.00023
2227.67583,0.00022
2225.74711,0.00021
2223.81839,0.00022
2221.88966,0.00022
2219.96094,0.00017
2218.03221,0.00010
2216.10349,0.00005
2214.17477,0.00004
2212.24604,0.00005
2210.31732,0.00010
2208.38860,0.00013
2206.45987,0.00008
2204.53115,0.00000
2202.60243,-0.00005
2200.67370,-0.00005
2198.74498,-0.00004
2196.81625,-0.00006
2194.88753,-0.00007
2192.95881,-0.00003
2191.03008,0.00002
2189.10136,0.00003
2187.17264,-0.00002
2185.24391,-0.00008
2183.31519,-0.00009
2181.38647,-0.00003
2179.45774,0.00007
2177.52902,0.00015
2175.60029,0.00014
2173.67157,0.00009
2171.74285,0.00006
2169.81412,0.00007
2167.88540,0.00014
2165.95668,0.00024
2164.02795,0.00030
2162.09923,0.00031
2160.17050,0.00026
2158.24178,0.00022
2156.31306,0.00028
2154.38433,0.00039
2152.45561,0.00042
2150.52689,0.00037
2148.59816,0.00033
2146.66944,0.00034
2144.74072,0.00040
2142.81199,0.00044
2140.88327,0.00042
2138.95454,0.00040
2137.02582,0.00038
2135.09710,0.00034
2133.16837,0.00033
2131.23965,0.00035
2129.31093,0.00035
2127.38220,0.00031
2125.45348,0.00029
2123.52476,0.00026
2121.59603,0.00022
2119.66731,0.00016
2117.73858,0.00010
2115.80986,0.00008
2113.88114,0.00011
2111.95241,0.00014
2110.02369,0.00013
2108.09497,0.00010
2106.16624,0.00008
2104.23752,0.00006
2102.30880,-0.00000
2100.38007,-0.00003
2098.45135,-0.00000
2096.52262,0.00001
2094.59390,0.00000
2092.66518,-0.00003
2090.73645,-0.00008
2088.80773,-0.00016
2086.87901,-0.00022
2084.95028,-0.00026
2083.02156,-0.00032
2081.09283,-0.00037
2079.16411,-0.00036
2077.23539,-0.00034
2075.30666,-0.00035
2073.37794,-0.00033
2071.44922,-0.00030
2069.52049,-0.00030
2067.59177,-0.00028
2065.66305,-0.00014
2063.73432,0.00005
2061.80560,0.00013
2059.87687,0.00014
2057.94815,0.00022
2056.01943,0.00034
2054.09070,0.00046
2052.16198,0.00058
2050.23326,0.00071
2048.30453,0.00085
2046.37581,0.00100
2044.44709,0.00116
2042.51836,0.00142
2040.58964,0.00174
2038.66091,0.00200
2036.73219,0.00222
2034.80347,0.00245
2032.87474,0.00270
2030.94602,0.00295
2029.01730,0.00321
2027.08857,0.00349
2025.15985,0.00380
2023.23112,0.00409
2021.30240,0.00431
2019.37368,0.00449
2017.44495,0.00469
2015.51623,0.00487
2013.58751,0.00496
2011.65878,0.00504
2009.73006,0.00514
2007.80134,0.00524
2005.87261,0.00536
2003.94389,0.00548
2002.01516,0.00551
2000.08644,0.00546
1998.15772,0.00540
1996.22899,0.00533
1994.30027,0.00526
1992.37155,0.00526
1990.44282,0.00528
1988.51410,0.00522
1986.58538,0.00511
1984.65665,0.00494
1982.72793,0.00480
1980.79920,0.00470
1978.87048,0.00455
1976.94176,0.00431
1975.01303,0.00412
1973.08431,0.00396
1971.15559,0.00376
1969.22686,0.00353
1967.29814,0.00337
1965.36941,0.00322
1963.44069,0.00297
1961.51197,0.00265
1959.58324,0.00237
1957.65452,0.00215
1955.72580,0.00194
1953.79707,0.00173
1951.86835,0.00151
1949.93963,0.00130
1948.01090,0.00110
1946.08218,0.00092
1944.15345,0.00082
1942.22473,0.00078
1940.29601,0.00064
1938.36728,0.00039
1936.43856,0.00017
1934.50984,0.00005
1932.58111,0.00001
1930.65239,0.00002
1928.72367,0.00002
1926.79494,0.00000
1924.86622,0.00004
1922.93749,0.00020
1921.00877,0.00038
1919.08005,0.00062
1917.15132,0.00101
1915.22260,0.00135
1913.29388,0.00160
1911.36515,0.00200
1909.43643,0.00261
1907.50770,0.00325
1905.57898,0.00380
1903.65026,0.00433
1901.72153,0.00490
1899.79281,0.00551
1897.86409,0.00613
1895.93536,0.00680
1894.00664,0.00740
1892.07792,0.00787
1890.14919,0.00838
1888.22047,0.00896
1886.29174,0.00940
1884.36302,0.00969
1882.43430,0.00991
1880.50557,0.01009
1878.57685,0.01027
1876.64813,0.01044
1874.71940,0.01048
1872.79068,0.01030
1870.86196,0.01010
1868.93323,0.01013
1867.00451,0.01014
1865.07578,0.00979
1863.14706,0.00916
1861.21834,0.00849
1859.28961,0.00788
1857.36089,0.00726
1855.43217,0.00657
1853.50344,0.00586
1851.57472,0.00522
1849.64599,0.00463
1847.71727,0.00406
1845.78855,0.00363
1843.85982,0.00338
1841.93110,0.00299
1840.00238,0.00238
1838.07365,0.00184
1836.14493,0.00149
1834.21621,0.00113
1832.28748,0.00074
1830.35876,0.00059
1828.43003,0.00062
1826.50131,0.00058
1824.57259,0.00049
1822.64386,0.00034
1820.71514,0.00013
1818.78642,-0.00001
1816.85769,-0.00003
1814.92897,0.00000
1813.00025,-0.00008
1811.07152,0.00001
1809.14280,0.00017
1807.21407,0.00024
1805.28535,0.00023
1803.35663,0.00030
1801.42790,0.00060
1799.49918,0.00100
1797.57046,0.00123
1795.64173,0.00135
1793.71301,0.00180
1791.78428,0.00277
1789.85556,0.00366
1787.92684,0.00412
1785.99811,0.00457
1784.06939,0.00525
1782.14067,0.00607
1780.21194,0.00691
1778.28322,0.00759
1776.35450,0.00805
1774.42577,0.00876
1772.49705,0.01011
1770.56832,0.01160
1768.63960,0.01254
1766.71088,0.01306
1764.78215,0.01354
1762.85343,0.01436
1760.92471,0.01552
1758.99598,0.01654
1757.06726,0.01743
1755.13854,0.01824
1753.20981,0.01902
1751.28109,0.02029
1749.35236,0.02224
1747.42364,0.02408
1745.49492,0.02546
1743.56619,0.02679
1741.63747,0.02846
1739.70875,0.03029
1737.78002,0.03172
1735.85130,0.03316
1733.92257,0.03573
1731.99385,0.03867
1730.06513,0.04069
1728.13640,0.04215
1726.20768,0.04358
1724.27896,0.04512
1722.35023,0.04653
1720.42151,0.04782
1718.49279,0.04989
1716.56406,0.05309
1714.63534,0.05598
1712.70661,0.05781
1710.77789,0.05924
1708.84917,0.06092
1706.92044,0.06326
1704.99172,0.06602
1703.06300,0.06856
1701.13427,0.07160
1699.20555,0.07573
1697.27683,0.08007
1695.34810,0.08418
1693.41938,0.08744
1691.49065,0.09004
1689.56193,0.09289
1687.63321,0.09599
1685.70448,0.09998
1683.77576,0.10568
1681.84704,0.11068
1679.91831,0.11357
1677.98959,0.11590
1676.06087,0.11904
1674.13214,0.12269
1672.20342,0.12602
1670.27469,0.12961
1668.34597,0.13345
1666.41725,0.13617
1664.48852,0.13827
1662.55980,0.14093
1660.63108,0.14356
1658.70235,0.14516
1656.77363,0.14603
1654.84490,0.14773
1652.91618,0.15097
1650.98746,0.15315
1649.05873,0.15362
1647.13001,0.15461
1645.20129,0.15623
1643.27256,0.15698
1641.34384,0.15692
1639.41512,0.15677
1637.48639,0.15707
1635.55767,0.15788
1633.62894,0.15822
1631.70022,0.15759
1629.77150,0.15656
1627.84277,0.15549
1625.91405,0.15428
1623.98533,0.15277
1622.05660,0.15093
1620.12788,0.14875
1618.19916,0.14624
1616.27043,0.14349
1614.34171,0.14071
1612.41298,0.13795
1610.48426,0.13514
1608.55554,0.13234
1606.62681,0.12959
1604.69809,0.12687
1602.76937,0.12410
1600.84064,0.12136
1598.91192,0.11877
1596.98319,0.11636
1595.05447,0.11409
1593.12575,0.11195
1591.19702,0.10983
1589.26830,0.10768
1587.33958,0.10552
1585.41085,0.10338
1583.48213,0.10129
1581.55341,0.09925
1579.62468,0.09730
1577.69596,0.09565
1575.76723,0.09435
1573.83851,0.09303
1571.90979,0.09166
1569.98106,0.09056
1568.05234,0.08969
1566.12362,0.08865
1564.19489,0.08737
1562.26617,0.08604
1560.33745,0.08526
1558.40872,0.08532
1556.48000,0.08485
1554.55127,0.08350
1552.62255,0.08208
1550.69383,0.08087
1548.76510,0.07961
1546.83638,0.07809
1544.90766,0.07635
1542.97893,0.07469
1541.05021,0.07340
1539.12148,0.07221
1537.19276,0.07065
1535.26404,0.06892
1533.33531,0.06724
1531.40659,0.06549
1529.47787,0.06354
1527.54914,0.06146
1525.62042,0.05934
1523.69170,0.05723
1521.76297,0.05516
1519.83425,0.05310
1517.90552,0.05093
1515.97680,0.04859
1514.04808,0.04617
1512.11935,0.04368
1510.19063,0.04108
1508.26191,0.03844
1506.33318,0.03597
1504.40446,0.03369
1502.47574,0.03141
1500.54701,0.02914
1498.61829,0.02706
1496.68956,0.02518
1494.76084,0.02348
1492.83212,0.02203
1490.90339,0.02111
1488.97467,0.02085
1487.04595,0.02074
1485.11722,0.02045
1483.18850,0.02031
1481.25977,0.02064
1479.33105,0.02130
1477.40233,0.02219
1475.47360,0.02374
1473.54488,0.02656
1471.61616,0.03009
1469.68743,0.03260
1467.75871,0.03401
1465.82999,0.03534
1463.90126,0.03666
1461.97254,0.03728
1460.04381,0.03752
1458.11509,0.03859
1456.18637,0.04042
1454.25764,0.04132
1452.32892,0.04119
1450.40020,0.04099
1448.47147,0.04124
1446.54275,0.04182
1444.61403,0.04231
1442.68530,0.04257
1440.75658,0.04269
1438.82785,0.04297
1436.89913,0.04377
1434.97041,0.04475
1433.04168,0.04533
1431.11296,0.04583
1429.18424,0.04656
1427.25551,0.04729
1425.32679,0.04792
1423.39806,0.04854
1421.46934,0.04926
1419.54062,0.05037
1417.61189,0.05178
1415.68317,0.05283
1413.75445,0.05357
1411.82572,0.05438
1409.89700,0.05528
1407.96828,0.05618
1406.03955,0.05711
1404.11083,0.05790
1402.18210,0.05816
1400.25338,0.05770
1398.32466,0.05657
1396.39593,0.05484
1394.46721,0.05276
1392.53849,0.05060
1390.60976,0.04858
1388.68104,0.04670
1386.75232,0.04493
1384.82359,0.04336
1382.89487,0.04205
1380.96614,0.04097
1379.03742,0.03994
1377.10870,0.03884
1375.17997,0.03768
1373.25125,0.03648
1371.32253,0.03521
1369.39380,0.03386
1367.46508,0.03244
1365.53635,0.03108
1363.60763,0.02990
1361.67891,0.02887
1359.75018,0.02783
1357.82146,0.02680
1355.89274,0.02591
1353.96401,0.02517
1352.03529,0.02450
1350.10657,0.02390
1348.17784,0.02331
1346.24912,0.02269
1344.32039,0.02205
1342.39167,0.02151
1340.46295,0.02117
1338.53422,0.02096
1336.60550,0.02078
1334.67678,0.02057
1332.74805,0.02039
1330.81933,0.02025
1328.89061,0.02019
1326.96188,0.02019
1325.03316,0.02021
1323.10443,0.02022
1321.17571,0.02026
1319.24699,0.02042
1317.31826,0.02069
1315.38954,0.02092
1313.46082,0.02113
1311.53209,0.02140
1309.60337,0.02168
1307.67464,0.02199
1305.74592,0.02241
1303.81720,0.02303
1301.88847,0.02390
1299.95975,0.02492
1298.03103,0.02599
1296.10230,0.02717
1294.17358,0.02858
1292.24486,0.03021
1290.31613,0.03202
1288.38741,0.03402
1286.45868,0.03623
1284.52996,0.03863
1282.60124,0.04124
1280.67251,0.04417
1278.74379,0.04751
1276.81507,0.05122
1274.88634,0.05532
1272.95762,0.05988
1271.02890,0.06499
1269.10017,0.07065
1267.17145,0.07695
1265.24272,0.08402
1263.31400,0.09194
1261.38528,0.10081
1259.45655,0.11061
1257.52783,0.12112
1255.59911,0.13220
1253.67038,0.14375
1251.74166,0.15545
1249.81294,0.16692
1247.88421,0.17784
1245.95549,0.18804
1244.02676,0.19748
1242.09804,0.20610
1240.16932,0.21386
1238.24059,0.22089
1236.31187,0.22740
1234.38315,0.23338
1232.45442,0.23861
1230.52570,0.24313
1228.59697,0.24730
1226.66825,0.25125
1224.73953,0.25490
1222.81080,0.25820
1220.88208,0.26113
1218.95336,0.26377
1217.02463,0.26627
1215.09591,0.26879
1213.16719,0.27145
1211.23846,0.27412
1209.30974,0.27654
1207.38101,0.27878
1205.45229,0.28102
1203.52357,0.28311
1201.59484,0.28498
1199.66612,0.28688
1197.73740,0.28915
1195.80867,0.29173
1193.87995,0.29403
1191.95123,0.29603
1190.02250,0.29820
1188.09378,0.30039
1186.16505,0.30223
1184.23633,0.30395
1182.30761,0.30577
1180.37888,0.30759
1178.45016,0.30934
1176.52144,0.31119
1174.59271,0.31311
1172.66399,0.31496
1170.73526,0.31694
1168.80654,0.31908
1166.87782,0.32118
1164.94909,0.32305
1163.02037,0.32464
1161.09165,0.32640
1159.16292,0.32858
1157.23420,0.33073
1155.30548,0.33246
1153.37675,0.33405
1151.44803,0.33590
1149.51930,0.33811
1147.59058,0.34052
1145.66186,0.34285
1143.73313,0.34547
1141.80441,0.34869
1139.87569,0.35177
1137.94696,0.35421
1136.01824,0.35640
1134.08952,0.35859
1132.16079,0.36082
1130.23207,0.36327
1128.30334,0.36587
1126.37462,0.36863
1124.44590,0.37178
1122.51717,0.37533
1120.58845,0.37950
1118.65973,0.38445
1116.73100,0.38976
1114.80228,0.39527
1112.87355,0.40141
1110.94483,0.40826
1109.01611,0.41550
1107.08738,0.42282
1105.15866,0.42972
1103.22994,0.43589
1101.30121,0.44130
1099.37249,0.44597
1097.44377,0.44968
1095.51504,0.45207
1093.58632,0.45329
1091.65759,0.45358
1089.72887,0.45319
1087.80015,0.45259
1085.87142,0.45193
1083.94270,0.45065
1082.01398,0.44830
1080.08525,0.44556
1078.15653,0.44306
1076.22781,0.44018
1074.29908,0.43652
1072.37036,0.43277
1070.44163,0.42886
1068.51291,0.42425
1066.58419,0.41924
1064.65546,0.41402
1062.72674,0.40831
1060.79802,0.40212
1058.86929,0.39583
1056.94057,0.38959
1055.01184,0.38311
1053.08312,0.37612
1051.15440,0.36861
1049.22567,0.36090
1047.29695,0.35349
1045.36823,0.34628
1043.43950,0.33850
1041.51078,0.33007
1039.58206,0.32175
1037.65333,0.31376
1035.72461,0.30602
1033.79588,0.29852
1031.86716,0.29105
1029.93844,0.28368
1028.00971,0.27657
1026.08099,0.26965
1024.15227,0.26292
1022.22354,0.25629
1020.29482,0.24981
1018.36610,0.24397
1016.43737,0.23878
1014.50865,0.23388
1012.57992,0.22913
1010.65120,0.22432
1008.72248,0.21963
1006.79375,0.21554
1004.86503,0.21185
1002.93631,0.20808
1001.00758,0.20432
999.07886,0.20079
997.15013,0.19743
995.22141,0.19438
993.29269,0.19173
991.36396,0.18927
989.43524,0.18688
987.50652,0.18469
985.57779,0.18273
983.64907,0.18092
981.72035,0.17919
979.79162,0.17782
977.86290,0.17718
975.93417,0.17698
974.00545,0.17675
972.07673,0.17645
970.14800,0.17642
968.21928,0.17687
966.29056,0.17724
964.36183,0.17703
962.43311,0.17668
960.50439,0.17640
958.57566,0.17592
956.64694,0.17523
954.71821,0.17440
952.78949,0.17350
950.86077,0.17252
948.93204,0.17099
947.00332,0.16888
945.07460,0.16686
943.14587,0.16503
941.21715,0.16283
939.28842,0.16028
937.35970,0.15784
935.43098,0.15544
933.50225,0.15276
931.57353,0.14993
929.64481,0.14690
927.71608,0.14332
925.78736,0.13939
923.85864,0.13578
921.92991,0.13251
920.00119,0.12908
918.07246,0.12544
916.14374,0.12166
914.21502,0.11755
912.28629,0.11320
910.35757,0.10902
908.42885,0.10521
906.50012,0.10148
904.57140,0.09756
902.64268,0.09355
900.71395,0.08963
898.78523,0.08594
896.85650,0.08238
894.92778,0.07869
892.99906,0.07507
891.07033,0.07177
889.14161,0.06879
887.21289,0.06618
885.28416,0.06384
883.35544,0.06148
881.42671,0.05889
879.49799,0.05618
877.56927,0.05363
875.64054,0.05152
873.71182,0.04983
871.78310,0.04809
869.85437,0.04612
867.92565,0.04429
865.99693,0.04281
864.06820,0.04148
862.13948,0.03987
860.21075,0.03814
858.28203,0.03676
856.35331,0.03568
854.42458,0.03482
852.49586,0.03426
850.56714,0.03388
848.63841,0.03382
846.70969,0.03440
844.78097,0.03555
842.85224,0.03719
840.92352,0.03938
838.99479,0.04192
837.06607,0.04468
835.13735,0.04785
833.20862,0.05139
831.27990,0.05489
829.35118,0.05837
827.42245,0.06203
825.49373,0.06579
823.56501,0.06947
821.63628,0.07301
819.70756,0.07638
817.77883,0.07954
815.85011,0.08229
813.92139,0.08490
811.99266,0.08762
810.06394,0.09020
808.13522,0.09272
806.20649,0.09544
804.27777,0.09803
802.34904,0.09980
800.42032,0.10050
798.49160,0.10065
796.56287,0.10051
794.63415,0.09969
792.70543,0.09810
790.77670,0.09613
788.84798,0.09403
786.91926,0.09170
784.99053,0.08890
783.06181,0.08585
781.13308,0.08268
779.20436,0.07894
777.27564,0.07471
775.34691,0.07061
773.41819,0.06673
771.48947,0.06312
769.56074,0.06011
767.63202,0.05786
765.70330,0.05653
763.77457,0.05584
761.84585,0.05532
759.91712,0.05477
757.98840,0.05400
756.05968,0.05329
754.13095,0.05316
752.20223,0.05337
750.27351,0.05329
748.34478,0.05296
746.41606,0.05287
744.48733,0.05300
742.55861,0.05282
740.62989,0.05230
738.70116,0.05195
736.77244,0.05200
734.84372,0.05209
732.91499,0.05211
730.98627,0.05260
729.05755,0.05342
727.12882,0.05392
725.20010,0.05430
723.27137,0.05495
721.34265,0.05548
719.41393,0.05583
717.48520,0.05599
715.55648,0.05611
713.62776,0.05661
711.69903,0.05766
709.77031,0.05898
707.84159,0.06028
705.91286,0.06149
703.98414,0.06269
702.05541,0.06381
700.12669,0.06475
698.19797,0.06565
696.26924,0.06657
694.34052,0.06711
692.41180,0.06723
690.48307,0.06743
688.55435,0.06799
686.62562,0.06878
684.69690,0.06939
682.76818,0.06964
680.83945,0.06990
678.91073,0.07028
676.98201,0.07046
675.05328,0.07049
673.12456,0.07052
671.19584,0.07040
669.26711,0.07025
667.33839,0.07075
665.40966,0.07202
663.48094,0.07341
661.55222,0.07464
659.62349,0.07576
657.69477,0.07669
655.76605,0.07745
653.83732,0.07836
651.90860,0.07947
649.97988,0.08047
648.05115,0.08131
646.12243,0.08220
644.19370,0.08317
642.26498,0.08435
640.33626,0.08582
638.40753,0.08719
636.47881,0.08821
634.55009,0.08924
632.62136,0.09065
630.69264,0.09224
628.76391,0.09360
626.83519,0.09451
624.90647,0.09506
622.97774,0.09547
621.04902,0.09612
619.12030,0.09715
617.19157,0.09816
615.26285,0.09903
613.33413,0.10006
611.40540,0.10134
609.47668,0.10275
607.54795,0.10406
605.61923,0.10508
603.69051,0.10610
601.76178,0.10780
599.83306,0.11028
597.90434,0.11251
595.97561,0.11392
594.04689,0.11504
592.11817,0.11625
590.18944,0.11760
588.26072,0.11929
586.33199,0.12097
584.40327,0.12189
582.47455,0.12210
580.54582,0.12252
578.61710,0.12347
576.68838,0.12436
574.75965,0.12488
572.83093,0.12513
570.90220,0.12529
568.97348,0.12573
567.04476,0.12676
565.11603,0.12808
563.18731,0.12885
561.25859,0.12922
559.32986,0.12973
557.40114,0.13010
555.47242,0.13030
553.54369,0.13069
551.61497,0.13140
549.68624,0.13242
547.75752,0.13354
545.82880,0.13457
543.90007,0.13530
541.97135,0.13541
540.04263,0.13485
538.11390,0.13346
536.18518,0.13143
534.25646,0.12963
532.32773,0.12838
530.39901,0.12780
528.47028,0.12828
526.54156,0.12971
524.61284,0.13126
522.68411,0.13234
520.75539,0.13286
518.82667,0.13267
516.89794,0.13269
514.96922,0.13382
513.04049,0.13519
511.11177,0.13701
509.18305,0.14114
507.25432,0.14765
505.32560,0.15439
503.39688,0.16028
501.46815,0.16602
499.53943,0.17143
497.61071,0.17649
495.68198,0.18297
493.75326,0.19129
491.82453,0.19960
489.89581,0.20691
487.96709,0.21345
486.03836,0.21903
484.10964,0.22468
482.18092,0.23251
480.25219,0.24195
478.32347,0.25021
476.39475,0.25639
474.46602,0.26368
472.53730,0.27420
470.60857,0.28277
468.67985,0.28479
466.75113,0.28339
464.82240,0.28164
462.89368,0.27929
460.96496,0.27650
459.03623,0.27326
457.10751,0.26907
455.17878,0.26498
453.25006,0.26193
451.32134,0.25898
449.39261,0.25401
447.46389,0.24590
445.53517,0.23705
443.60644,0.23036
441.67772,0.22456
439.74900,0.21761
437.82027,0.20951
435.89155,0.20056
433.96282,0.19273
432.03410,0.18884
430.10538,0.18802
428.17665,0.18513
426.24793,0.17571
424.31921,0.16234
422.39048,0.15260
420.46176,0.14896
418.53304,0.14674
416.60431,0.14164
414.67559,0.13454
412.74686,0.12805
410.81814,0.12296
408.88942,0.11879
406.96069,0.11557
405.03197,0.11248
403.10325,0.10952
401.17452,0.10918
399.24580,0.11303
397.31708,0.11648
395.38835,0.10969
393.45963,0.09470
391.53090,0.08473
389.60218,0.08382
387.67346,0.08479
385.74473,0.08396
383.81601,0.08334
381.88729,0.08364
379.95856,0.08708
378.02984,0.08957
376.10111,0.07720
374.17239,0.04668
372.24367,0.01496
370.31494,0.00000
368.38622,0.00000
