3996.31543,0.00028
3994.38671,0.00035
3992.45799,0.00032
3990.52926,0.00020
3988.60054,0.00010
3986.67182,0.00002
3984.74309,0.00000
3982.81437,0.00011
3980.88564,0.00036
3978.95692,0.00054
3977.02820,0.00049
3975.09947,0.00044
3973.17075,0.00056
3971.24203,0.00069
3969.31330,0.00071
3967.38458,0.00071
3965.45586,0.00070
3963.52713,0.00061
3961.59841,0.00063
3959.66968,0.00085
3957.74096,0.00104
3955.81224,0.00110
3953.88351,0.00104
3951.95479,0.00086
3950.02607,0.00075
3948.09734,0.00097
3946.16862,0.00126
3944.23990,0.00107
3942.31117,0.00081
3940.38245,0.00085
3938.45372,0.00080
3936.52500,0.00064
3934.59628,0.00044
3932.66755,0.00038
3930.73883,0.00076
3928.81011,0.00119
3926.88138,0.00103
3924.95266,0.00065
3923.02393,0.00074
3921.09521,0.00086
3919.16649,0.00062
3917.23776,0.00044
3915.30904,0.00061
3913.38032,0.00077
3911.45159,0.00082
3909.52287,0.00112
3907.59415,0.00135
3905.66542,0.00122
3903.73670,0.00126
3901.80797,0.00143
3899.87925,0.00124
3897.95053,0.00143
3896.02180,0.00184
3894.09308,0.00143
3892.16436,0.00073
3890.23563,0.00109
3888.30691,0.00142
3886.37819,0.00072
3884.44946,0.00060
3882.52074,0.00057
3880.59201,0.00019
3878.66329,0.00092
3876.73457,0.00156
3874.80584,0.00139
3872.87712,0.00129
3870.94840,0.00087
3869.01967,0.00105
3867.09095,0.00162
3865.16222,0.00114
3863.23350,0.00080
3861.30478,0.00119
3859.37605,0.00183
3857.44733,0.00206
3855.51861,0.00104
3853.58988,0.00000
3851.66116,0.00102
3849.73244,0.00198
3847.80371,0.00179
3845.87499,0.00130
3843.94626,0.00130
3842.01754,0.00174
3840.08882,0.00173
3838.16009,0.00145
3836.23137,0.00164
3834.30265,0.00169
3832.37392,0.00141
3830.44520,0.00146
3828.51648,0.00150
3826.58775,0.00164
3824.65903,0.00204
3822.73030,0.00147
3820.80158,0.00120
3818.87286,0.00195
3816.94413,0.00144
3815.01541,0.00124
3813.08669,0.00232
3811.15796,0.00290
3809.22924,0.00242
3807.30052,0.00203
3805.37179,0.00278
3803.44307,0.00261
3801.51434,0.00173
3799.58562,0.00241
3797.65690,0.00282
3795.72817,0.00264
3793.79945,0.00280
3791.87073,0.00290
3789.94200,0.00296
3788.01328,0.00298
3786.08455,0.00296
3784.15583,0.00339
3782.22711,0.00388
3780.29838,0.00370
3778.36966,0.00382
3776.44094,0.00440
3774.51221,0.00468
3772.58349,0.00455
3770.65477,0.00440
3768.72604,0.00489
3766.79732,0.00540
3764.86859,0.00587
3762.93987,0.00646
3761.01115,0.00642
3759.08242,0.00657
3757.15370,0.00774
3755.22498,0.00878
3753.29625,0.00865
3751.36753,0.00853
3749.43881,0.01007
3747.51008,0.01137
3745.58136,0.01061
3743.65263,0.01084
3741.72391,0.01289
3739.79519,0.01396
3737.86646,0.01379
3735.93774,0.01377
3734.00902,0.01486
3732.08029,0.01656
3730.15157,0.01816
3728.22284,0.01898
3726.29412,0.01956
3724.36540,0.02091
3722.43667,0.02273
3720.50795,0.02476
3718.57923,0.02695
3716.65050,0.02918
3714.72178,0.03098
3712.79306,0.03250
3710.86433,0.03518
3708.93561,0.03890
3707.00688,0.04220
3705.07816,0.04460
3703.14944,0.04669
3701.22071,0.04976
3699.29199,0.05366
3697.36327,0.05711
3695.43454,0.06037
3693.50582,0.06359
3691.57710,0.06647
3689.64837,0.06985
3687.71965,0.07460
3685.79092,0.07947
3683.86220,0.08340
3681.93348,0.08714
3680.00475,0.09111
3678.07603,0.09472
3676.14731,0.09892
3674.21858,0.10551
3672.28986,0.11101
3670.36113,0.11425
3668.43241,0.11860
3666.50369,0.12309
3664.57496,0.12631
3662.64624,0.12944
3660.71752,0.13300
3658.78879,0.13631
3656.86007,0.13969
3654.93135,0.14398
3653.00262,0.14725
3651.07390,0.14861
3649.14517,0.15098
3647.21645,0.15520
3645.28773,0.15906
3643.35900,0.16149
3641.43028,0.16340
3639.50156,0.16551
3637.57283,0.16771
3635.64411,0.16987
3633.71539,0.17207
3631.78666,0.17381
3629.85794,0.17510
3627.92921,0.17810
3626.00049,0.18191
3624.07177,0.18412
3622.14304,0.18514
3620.21432,0.18612
3618.28560,0.18804
3616.35687,0.19018
3614.42815,0.19135
3612.49942,0.19224
3610.57070,0.19329
3608.64198,0.19440
3606.71325,0.19616
3604.78453,0.19810
3602.85581,0.19945
3600.92708,0.20061
3598.99836,0.20198
3597.06964,0.20322
3595.14091,0.20445
3593.21219,0.20623
3591.28346,0.20792
3589.35474,0.20867
3587.42602,0.20957
3585.49729,0.21147
3583.56857,0.21297
3581.63985,0.21365
3579.71112,0.21437
3577.78240,0.21548
3575.85368,0.21677
3573.92495,0.21820
3571.99623,0.21959
3570.06750,0.22049
3568.13878,0.22129
3566.21006,0.22306
3564.28133,0.22515
3562.35261,0.22631
3560.42389,0.22705
3558.49516,0.22813
3556.56644,0.22933
3554.63771,0.23036
3552.70899,0.23148
3550.78027,0.23292
3548.85154,0.23418
3546.92282,0.23517
3544.99410,0.23642
3543.06537,0.23788
3541.13665,0.23921
3539.20793,0.24026
3537.27920,0.24109
3535.35048,0.24192
3533.42175,0.24288
3531.49303,0.24383
3529.56431,0.24480
3527.63558,0.24596
3525.70686,0.24717
3523.77814,0.24815
3521.84941,0.24913
3519.92069,0.25017
3517.99197,0.25103
3516.06324,0.25183
3514.13452,0.25274
3512.20579,0.25362
3510.27707,0.25431
3508.34835,0.25517
3506.41962,0.25628
3504.49090,0.25722
3502.56218,0.25824
3500.63345,0.25940
3498.70473,0.26020
3496.77600,0.26065
3494.84728,0.26132
3492.91856,0.26232
3490.98983,0.26328
3489.06111,0.26403
3487.13239,0.26477
3485.20366,0.26552
3483.27494,0.26611
3481.34622,0.26679
3479.41749,0.26769
3477.48877,0.26840
3475.56004,0.26889
3473.63132,0.26937
3471.70260,0.26990
3469.77387,0.27055
3467.84515,0.27137
3465.91643,0.27220
3463.98770,0.27279
3462.05898,0.27320
3460.13026,0.27358
3458.20153,0.27385
3456.27281,0.27408
3454.34408,0.27458
3452.41536,0.27541
3450.48664,0.27626
3448.55791,0.27659
3446.62919,0.27688
3444.70047,0.27763
3442.77174,0.27821
3440.84302,0.27841
3438.91429,0.27851
3436.98557,0.27881
3435.05685,0.27933
3433.12812,0.27974
3431.19940,0.28002
3429.27068,0.28032
3427.34195,0.28063
3425.41323,0.28103
3423.48451,0.28155
3421.55578,0.28180
3419.62706,0.28169
3417.69833,0.28153
3415.76961,0.28161
3413.84089,0.28190
3411.91216,0.28205
3409.98344,0.28200
3408.05472,0.28189
3406.12599,0.28182
3404.19727,0.28184
3402.26855,0.28187
3400.33982,0.28185
3398.41110,0.28187
3396.48237,0.28195
3394.55365,0.28179
3392.62493,0.28153
3390.69620,0.28138
3388.76748,0.28112
3386.83876,0.28088
3384.91003,0.28079
3382.98131,0.28062
3381.05259,0.28034
3379.12386,0.28013
3377.19514,0.27999
3375.26641,0.27989
3373.33769,0.27983
3371.40897,0.27964
3369.48024,0.27918
3367.55152,0.27867
3365.62280,0.27830
3363.69407,0.27796
3361.76535,0.27760
3359.83662,0.27724
3357.90790,0.27675
3355.97918,0.27619
3354.05045,0.27581
3352.12173,0.27554
3350.19301,0.27513
3348.26428,0.27460
3346.33556,0.27420
3344.40684,0.27390
3342.47811,0.27352
3340.54939,0.27308
3338.62066,0.27259
3336.69194,0.27197
3334.76322,0.27134
3332.83449,0.27093
3330.90577,0.27059
3328.97705,0.27011
3327.04832,0.26958
3325.11960,0.26914
3323.19088,0.26875
3321.26215,0.26832
3319.33343,0.26789
3317.40470,0.26755
3315.47598,0.26716
3313.54726,0.26662
3311.61853,0.26604
3309.68981,0.26554
3307.76109,0.26513
3305.83236,0.26467
3303.90364,0.26419
3301.97491,0.26383
3300.04619,0.26354
3298.11747,0.26327
3296.18874,0.26304
3294.26002,0.26279
3292.33130,0.26242
3290.40257,0.26199
3288.47385,0.26158
3286.54513,0.26109
3284.61640,0.26044
3282.68768,0.25971
3280.75895,0.25902
3278.83023,0.25850
3276.90151,0.25818
3274.97278,0.25783
3273.04406,0.25744
3271.11534,0.25718
3269.18661,0.25698
3267.25789,0.25665
3265.32917,0.25614
3263.40044,0.25553
3261.47172,0.25485
3259.54299,0.25425
3257.61427,0.25397
3255.68555,0.25384
3253.75682,0.25343
3251.82810,0.25275
3249.89938,0.25217
3247.97065,0.25172
3246.04193,0.25110
3244.11320,0.25022
3242.18448,0.24931
3240.25576,0.24865
3238.32703,0.24830
3236.39831,0.24795
3234.46959,0.24738
3232.54086,0.24661
3230.61214,0.24581
3228.68342,0.24516
3226.75469,0.24461
3224.82597,0.24392
3222.89724,0.24307
3220.96852,0.24223
3219.03980,0.24148
3217.11107,0.24081
3215.18235,0.24016
3213.25363,0.23957
3211.32490,0.23892
3209.39618,0.23813
3207.46746,0.23737
3205.53873,0.23659
3203.61001,0.23568
3201.68128,0.23473
3199.75256,0.23372
3197.82384,0.23276
3195.89511,0.23196
3193.96639,0.23122
3192.03767,0.23047
3190.10894,0.22964
3188.18022,0.22863
3186.25149,0.22750
3184.32277,0.22640
3182.39405,0.22548
3180.46532,0.22464
3178.53660,0.22369
3176.60788,0.22265
3174.67915,0.22164
3172.75043,0.22062
3170.82171,0.21956
3168.89298,0.21860
3166.96426,0.21777
3165.03553,0.21687
3163.10681,0.21577
3161.17809,0.21466
3159.24936,0.21380
3157.32064,0.21322
3155.39192,0.21263
3153.46319,0.21172
3151.53447,0.21055
3149.60575,0.20933
3147.67702,0.20824
3145.74830,0.20730
3143.81957,0.20642
3141.89085,0.20560
3139.96213,0.20476
3138.03340,0.20374
3136.10468,0.20255
3134.17596,0.20128
3132.24723,0.20013
3130.31851,0.19923
3128.38978,0.19850
3126.46106,0.19779
3124.53234,0.19693
3122.60361,0.19590
3120.67489,0.19487
3118.74617,0.19385
3116.81744,0.19288
3114.88872,0.19199
3112.96000,0.19105
3111.03127,0.19003
3109.10255,0.18906
3107.17382,0.18809
3105.24510,0.18708
3103.31638,0.18604
3101.38765,0.18502
3099.45893,0.18410
3097.53021,0.18316
3095.60148,0.18212
3093.67276,0.18105
3091.74404,0.17993
3089.81531,0.17878
3087.88659,0.17771
3085.95786,0.17671
3084.02914,0.17571
3082.10042,0.17469
3080.17169,0.17362
3078.24297,0.17259
3076.31425,0.17169
3074.38552,0.17078
3072.45680,0.16980
3070.52807,0.16878
3068.59935,0.16770
3066.67063,0.16654
3064.74190,0.16545
3062.81318,0.16450
3060.88446,0.16354
3058.95573,0.16246
3057.02701,0.16130
3055.09829,0.16019
3053.16956,0.15918
3051.24084,0.15821
3049.31211,0.15724
3047.38339,0.15620
3045.45467,0.15504
3043.52594,0.15388
3041.59722,0.15292
3039.66850,0.15213
3037.73977,0.15127
3035.81105,0.15024
3033.88233,0.14917
3031.95360,0.14818
3030.02488,0.14725
3028.09615,0.14624
3026.16743,0.14511
3024.23871,0.14407
3022.30998,0.14322
3020.38126,0.14247
3018.45254,0.14169
3016.52381,0.14080
3014.59509,0.13981
3012.66636,0.13883
3010.73764,0.13795
3008.80892,0.13717
3006.88019,0.13637
3004.95147,0.13549
3003.02275,0.13464
3001.09402,0.13389
2999.16530,0.13315
2997.23658,0.13239
2995.30785,0.13162
2993.37913,0.13089
2991.45040,0.13024
2989.52168,0.12963
2987.59296,0.12900
2985.66423,0.12845
2983.73551,0.12802
2981.80679,0.12751
2979.87806,0.12680
2977.94934,0.12608
2976.02062,0.12554
2974.09189,0.12511
2972.16317,0.12469
2970.23444,0.12425
2968.30572,0.12387
2966.37700,0.12355
2964.44827,0.12317
2962.51955,0.12267
2960.59083,0.12214
2958.66210,0.12173
2956.73338,0.12144
2954.80466,0.12100
2952.87593,0.12031
2950.94721,0.11959
2949.01848,0.11899
2947.08976,0.11858
2945.16104,0.11834
2943.23231,0.11814
2941.30359,0.11792
2939.37487,0.11776
2937.44614,0.11770
2935.51742,0.11772
2933.58869,0.11768
2931.65997,0.11752
2929.73125,0.11725
2927.80252,0.11681
2925.87380,0.11621
2923.94508,0.11546
2922.01635,0.11448
2920.08763,0.11318
2918.15891,0.11162
2916.23018,0.10990
2914.30146,0.10818
2912.37273,0.10654
2910.44401,0.10498
2908.51529,0.10346
2906.58656,0.10211
2904.65784,0.10097
2902.72912,0.09992
2900.80039,0.09876
2898.87167,0.09755
2896.94295,0.09651
2895.01422,0.09558
2893.08550,0.09465
2891.15677,0.09371
2889.22805,0.09268
2887.29933,0.09156
2885.37060,0.09058
2883.44188,0.08987
2881.51316,0.08923
2879.58443,0.08853
2877.65571,0.08781
2875.72698,0.08715
2873.79826,0.08654
2871.86954,0.08587
2869.94081,0.08506
2868.01209,0.08420
2866.08337,0.08349
2864.15464,0.08301
2862.22592,0.08275
2860.29720,0.08263
2858.36847,0.08259
2856.43975,0.08262
2854.51102,0.08263
2852.58230,0.08226
2850.65358,0.08117
2848.72485,0.07944
2846.79613,0.07738
2844.86741,0.07532
2842.93868,0.07353
2841.00996,0.07204
2839.08124,0.07070
2837.15251,0.06943
2835.22379,0.06825
2833.29506,0.06721
2831.36634,0.06630
2829.43762,0.06544
2827.50889,0.06464
2825.58017,0.06397
2823.65145,0.06325
2821.72272,0.06246
2819.79400,0.06176
2817.86527,0.06111
2815.93655,0.06033
2814.00783,0.05949
2812.07910,0.05873
2810.15038,0.05802
2808.22166,0.05737
2806.29293,0.05682
2804.36421,0.05627
2802.43549,0.05565
2800.50676,0.05499
2798.57804,0.05435
2796.64931,0.05377
2794.72059,0.05327
2792.79187,0.05278
2790.86314,0.05222
2788.93442,0.05166
2787.00570,0.05111
2785.07697,0.05049
2783.14825,0.04980
2781.21953,0.04910
2779.29080,0.04841
2777.36208,0.04782
2775.43335,0.04732
2773.50463,0.04688
2771.57591,0.04648
2769.64718,0.04601
2767.71846,0.04538
2765.78974,0.04476
2763.86101,0.04424
2761.93229,0.04375
2760.00356,0.04320
2758.07484,0.04260
2756.14612,0.04205
2754.21739,0.04160
2752.28867,0.04120
2750.35995,0.04073
2748.43122,0.04017
2746.50250,0.03967
2744.57378,0.03927
2742.64505,0.03884
2740.71633,0.03833
2738.78760,0.03780
2736.85888,0.03729
2734.93016,0.03678
2733.00143,0.03631
2731.07271,0.03592
2729.14399,0.03550
2727.21526,0.03500
2725.28654,0.03451
2723.35782,0.03407
2721.42909,0.03363
2719.50037,0.03322
2717.57164,0.03286
2715.64292,0.03248
2713.71420,0.03203
2711.78547,0.03153
2709.85675,0.03103
2707.92803,0.03057
2705.99930,0.03014
2704.07058,0.02976
2702.14185,0.02944
2700.21313,0.02915
2698.28441,0.02876
2696.35568,0.02829
2694.42696,0.02779
2692.49824,0.02731
2690.56951,0.02684
2688.64079,0.02639
2686.71207,0.02604
2684.78334,0.02576
2682.85462,0.02540
2680.92589,0.02493
2678.99717,0.02450
2677.06845,0.02420
2675.13972,0.02392
2673.21100,0.02358
2671.28228,0.02325
2669.35355,0.02289
2667.42483,0.02245
2665.49611,0.02202
2663.56738,0.02164
2661.63866,0.02127
2659.70993,0.02088
2657.78121,0.02048
2655.85249,0.02013
2653.92376,0.01982
2651.99504,0.01945
2650.06632,0.01907
2648.13759,0.01879
2646.20887,0.01851
2644.28014,0.01818
2642.35142,0.01790
2640.42270,0.01770
2638.49397,0.01749
2636.56525,0.01722
2634.63653,0.01692
2632.70780,0.01659
2630.77908,0.01621
2628.85036,0.01585
2626.92163,0.01554
2624.99291,0.01519
2623.06418,0.01479
2621.13546,0.01446
2619.20674,0.01424
2617.27801,0.01403
2615.34929,0.01373
2613.42057,0.01338
2611.49184,0.01302
2609.56312,0.01272
2607.63440,0.01248
2605.70567,0.01230
2603.77695,0.01213
2601.84822,0.01194
2599.91950,0.01175
2597.99078,0.01157
2596.06205,0.01132
2594.13333,0.01099
2592.20461,0.01068
2590.27588,0.01045
2588.34716,0.01024
2586.41843,0.00999
2584.48971,0.00973
2582.56099,0.00951
2580.63226,0.00928
2578.70354,0.00902
2576.77482,0.00882
2574.84609,0.00869
2572.91737,0.00859
2570.98865,0.00840
2569.05992,0.00811
2567.13120,0.00781
2565.20247,0.00767
2563.27375,0.00764
2561.34503,0.00747
2559.41630,0.00714
2557.48758,0.00689
2555.55886,0.00676
2553.63013,0.00660
2551.70141,0.00640
2549.77269,0.00622
2547.84396,0.00604
2545.91524,0.00583
2543.98651,0.00564
2542.05779,0.00551
2540.12907,0.00540
2538.20034,0.00528
2536.27162,0.00515
2534.34290,0.00500
2532.41417,0.00484
2530.48545,0.00469
2528.55673,0.00457
2526.62800,0.00448
2524.69928,0.00437
2522.77055,0.00423
2520.84183,0.00407
2518.91311,0.00390
2516.98438,0.00378
2515.05566,0.00368
2513.12694,0.00357
2511.19821,0.00347
2509.26949,0.00337
2507.34076,0.00325
2505.41204,0.00315
2503.48332,0.00309
2501.55459,0.00304
2499.62587,0.00293
2497.69715,0.00277
2495.76842,0.00261
2493.83970,0.00249
2491.91098,0.00246
2489.98225,0.00244
2488.05353,0.00235
2486.12480,0.00217
2484.19608,0.00197
2482.26736,0.00184
2480.33863,0.00180
2478.40991,0.00179
2476.48119,0.00175
2474.55246,0.00167
2472.62374,0.00153
2470.69502,0.00140
2468.76629,0.00134
2466.83757,0.00130
2464.90884,0.00125
2462.98012,0.00119
2461.05140,0.00111
2459.12267,0.00105
2457.19395,0.00101
2455.26523,0.00094
2453.33650,0.00085
2451.40778,0.00082
2449.47905,0.00083
2447.55033,0.00081
2445.62161,0.00075
2443.69288,0.00069
2441.76416,0.00067
2439.83544,0.00065
2437.90671,0.00057
2435.97799,0.00056
2434.04927,0.00063
2432.12054,0.00065
2430.19182,0.00057
2428.26309,0.00049
2426.33437,0.00042
2424.40565,0.00036
2422.47692,0.00033
2420.54820,0.00035
2418.61948,0.00037
2416.69075,0.00037
2414.76203,0.00037
2412.83331,0.00036
2410.90458,0.00030
2408.97586,0.00022
2407.04713,0.00012
2405.11841,0.00004
2403.18969,0.00007
2401.26096,0.00014
2399.33224,0.00019
2397.40352,0.00022
2395.47479,0.00021
2393.54607,0.00013
2391.61734,0.00001
2389.68862,-0.00009
2387.75990,-0.00004
2385.83117,0.00014
2383.90245,0.00031
2381.97373,0.00043
2380.04500,0.00055
2378.11628,0.00064
2376.18756,0.00060
2374.25883,0.00046
2372.33011,0.00033
2370.40138,0.00023
2368.47266,0.00011
2366.54394,0.00000
2364.61521,-0.00002
2362.68649,0.00018
2360.75777,0.00046
2358.82904,0.00044
2356.90032,0.00014
2354.97160,-0.00001
2353.04287,0.00035
2351.11415,0.00104
2349.18542,0.00138
2347.25670,0.00100
2345.32798,0.00038
2343.39925,0.00011
2341.47053,0.00016
2339.54181,0.00037
2337.61308,0.00062
2335.68436,0.00070
2333.75563,0.00060
2331.82691,0.00053
2329.89819,0.00058
2327.96946,0.00072
2326.04074,0.00079
2324.11202,0.00073
2322.18329,0.00061
2320.25457,0.00056
2318.32585,0.00064
2316.39712,0.00073
2314.46840,0.00076
2312.53967,0.00072
2310.61095,0.00063
2308.68223,0.00057
2306.75350,0.00058
2304.82478,0.00063
2302.89606,0.00064
2300.96733,0.00062
2299.03861,0.00059
2297.10989,0.00055
2295.18116,0.00055
2293.25244,0.00063
2291.32371,0.00072
2289.39499,0.00074
2287.46627,0.00070
2285.53754,0.00070
2283.60882,0.00074
2281.68010,0.00076
2279.75137,0.00071
2277.82265,0.00065
2275.89392,0.00069
2273.96520,0.00075
2272.03648,0.00077
2270.10775,0.00077
2268.17903,0.00077
2266.25031,0.00075
2264.32158,0.00071
2262.39286,0.00069
2260.46414,0.00070
2258.53541,0.00070
2256.60669,0.00065
2254.67796,0.00059
2252.74924,0.00058
2250.82052,0.00062
2248.89179,0.00067
2246.96307,0.00061
2245.03435,0.00053
2243.10562,0.00053
2241.17690,0.00056
2239.24818,0.00051
2237.31945,0.00044
2235.39073,0.00044
2233.46200,0.00045
2231.53328,0.00043
2229.60456,0.00043
2227.67583,0.00046
2225.74711,0.00046
2223.81839,0.00044
2221.88966,0.00050
2219.96094,0.00055
2218.03221,0.00054
2216.10349,0.00048
2214.17477,0.00041
2212.24604,0.00035
2210.31732,0.00030
2208.38860,0.00028
2206.45987,0.00033
2204.53115,0.00039
2202.60243,0.00042
2200.67370,0.00044
2198.74498,0.00043
2196.81625,0.00036
2194.88753,0.00030
2192.95881,0.00030
2191.03008,0.00028
2189.10136,0.00024
2187.17264,0.00025
2185.24391,0.00032
2183.31519,0.00036
2181.38647,0.00038
2179.45774,0.00047
2177.52902,0.00055
2175.60029,0.00051
2173.67157,0.00042
2171.74285,0.00034
2169.81412,0.00031
2167.88540,0.00040
2165.95668,0.00054
2164.02795,0.00056
2162.09923,0.00050
2160.17050,0.00046
2158.24178,0.00040
2156.31306,0.00033
2154.38433,0.00035
2152.45561,0.00043
2150.52689,0.00045
2148.59816,0.00041
2146.66944,0.00038
2144.74072,0.00036
2142.81199,0.00030
2140.88327,0.00025
2138.95454,0.00026
2137.02582,0.00028
2135.09710,0.00029
2133.16837,0.00026
2131.23965,0.00023
2129.31093,0.00027
2127.38220,0.00034
2125.45348,0.00037
2123.52476,0.00034
2121.59603,0.00031
2119.66731,0.00029
2117.73858,0.00028
2115.80986,0.00025
2113.88114,0.00020
2111.95241,0.00011
2110.02369,-0.00000
2108.09497,-0.00007
2106.16624,-0.00005
2104.23752,0.00005
2102.30880,0.00017
2100.38007,0.00020
2098.45135,0.00014
2096.52262,0.00004
2094.59390,0.00000
2092.66518,-0.00004
2090.73645,-0.00011
2088.80773,-0.00017
2086.87901,-0.00024
2084.95028,-0.00036
2083.02156,-0.00046
2081.09283,-0.00044
2079.16411,-0.00036
2077.23539,-0.00036
2075.30666,-0.00038
2073.37794,-0.00034
2071.44922,-0.00025
2069.52049,-0.00013
2067.59177,-0.00008
2065.66305,-0.00009
2063.73432,0.00001
2061.80560,0.00017
2059.87687,0.00023
2057.94815,0.00025
2056.01943,0.00030
2054.09070,0.00039
2052.16198,0.00053
2050.23326,0.00070
2048.30453,0.00092
2046.37581,0.00120
2044.44709,0.00144
2042.51836,0.00153
2040.58964,0.00161
2038.66091,0.00181
2036.73219,0.00203
2034.80347,0.00230
2032.87474,0.00258
2030.94602,0.00279
2029.01730,0.00299
2027.08857,0.00318
2025.15985,0.00334
2023.23112,0.00352
2021.30240,0.00375
2019.37368,0.00391
2017.44495,0.00402
2015.51623,0.00425
2013.58751,0.00441
2011.65878,0.00443
2009.73006,0.00448
2007.80134,0.00459
2005.87261,0.00471
2003.94389,0.00480
2002.01516,0.00486
2000.08644,0.00491
1998.15772,0.00500
1996.22899,0.00515
1994.30027,0.00514
1992.37155,0.00500
1990.44282,0.00507
1988.51410,0.00508
1986.58538,0.00494
1984.65665,0.00484
1982.72793,0.00472
1980.79920,0.00464
1978.87048,0.00462
1976.94176,0.00456
1975.01303,0.00443
1973.08431,0.00432
1971.15559,0.00419
1969.22686,0.00386
1967.29814,0.00352
1965.36941,0.00350
1963.44069,0.00346
1961.51197,0.00320
1959.58324,0.00297
1957.65452,0.00277
1955.72580,0.00257
1953.79707,0.00245
1951.86835,0.00233
1949.93963,0.00218
1948.01090,0.00210
1946.08218,0.00204
1944.15345,0.00171
1942.22473,0.00140
1940.29601,0.00149
1938.36728,0.00145
1936.43856,0.00123
1934.50984,0.00112
1932.58111,0.00113
1930.65239,0.00123
1928.72367,0.00142
1926.79494,0.00164
1924.86622,0.00162
1922.93749,0.00168
1921.00877,0.00207
1919.08005,0.00211
1917.15132,0.00225
1915.22260,0.00286
1913.29388,0.00324
1911.36515,0.00344
1909.43643,0.00378
1907.50770,0.00434
1905.57898,0.00491
1903.65026,0.00540
1901.72153,0.00594
1899.79281,0.00653
1897.86409,0.00704
1895.93536,0.00749
1894.00664,0.00821
1892.07792,0.00888
1890.14919,0.00925
1888.22047,0.00986
1886.29174,0.01044
1884.36302,0.01058
1882.43430,0.01068
1880.50557,0.01088
1878.57685,0.01108
1876.64813,0.01131
1874.71940,0.01166
1872.79068,0.01192
1870.86196,0.01155
1868.93323,0.01094
1867.00451,0.01098
1865.07578,0.01111
1863.14706,0.01070
1861.21834,0.01007
1859.28961,0.00948
1857.36089,0.00887
1855.43217,0.00820
1853.50344,0.00757
1851.57472,0.00710
1849.64599,0.00676
1847.71727,0.00637
1845.78855,0.00548
1843.85982,0.00467
1841.93110,0.00472
1840.00238,0.00456
1838.07365,0.00381
1836.14493,0.00329
1834.21621,0.00311
1832.28748,0.00258
1830.35876,0.00187
1828.43003,0.00186
1826.50131,0.00177
1824.57259,0.00129
1822.64386,0.00113
1820.71514,0.00091
1818.78642,0.00053
1816.85769,0.00044
1814.92897,0.00057
1813.00025,0.00037
1811.07152,0.00000
1809.14280,-0.00011
1807.21407,0.00003
1805.28535,0.00001
1803.35663,-0.00028
1801.42790,-0.00064
1799.49918,-0.00048
1797.57046,0.00002
1795.64173,0.00009
1793.71301,-0.00059
1791.78428,-0.00092
1789.85556,-0.00022
1787.92684,0.00017
1785.99811,-0.00011
1784.06939,-0.00012
1782.14067,0.00008
1780.21194,0.00038
1778.28322,0.00105
1776.35450,0.00150
1774.42577,0.00116
1772.49705,0.00082
1770.56832,0.00154
1768.63960,0.00228
1766.71088,0.00271
1764.78215,0.00288
1762.85343,0.00253
1760.92471,0.00275
1758.99598,0.00332
1757.06726,0.00358
1755.13854,0.00419
1753.20981,0.00440
1751.28109,0.00398
1749.35236,0.00430
1747.42364,0.00521
1745.49492,0.00582
1743.56619,0.00613
1741.63747,0.00644
1739.70875,0.00731
1737.78002,0.00874
1735.85130,0.00891
1733.92257,0.00906
1731.99385,0.01124
1730.06513,0.01298
1728.13640,0.01391
1726.20768,0.01488
1724.27896,0.01614
1722.35023,0.01795
1720.42151,0.01917
1718.49279,0.01967
1716.56406,0.02167
1714.63534,0.02477
1712.70661,0.02723
1710.77789,0.02899
1708.84917,0.03057
1706.92044,0.03246
1704.99172,0.03531
1703.06300,0.03798
1701.13427,0.03961
1699.20555,0.04266
1697.27683,0.04614
1695.34810,0.04919
1693.41938,0.05292
1691.49065,0.05580
1689.56193,0.05840
1687.63321,0.06122
1685.70448,0.06321
1683.77576,0.06666
1681.84704,0.07216
1679.91831,0.07605
1677.98959,0.07813
1676.06087,0.08015
1674.13214,0.08365
1672.20342,0.08713
1670.27469,0.08957
1668.34597,0.09318
1666.41725,0.09689
1664.48852,0.09876
1662.55980,0.10064
1660.63108,0.10403
1658.70235,0.10731
1656.77363,0.10882
1654.84490,0.10848
1652.91618,0.11028
1650.98746,0.11555
1649.05873,0.11751
1647.13001,0.11689
1645.20129,0.11840
1643.27256,0.12068
1641.34384,0.12179
1639.41512,0.12206
1637.48639,0.12136
1635.55767,0.12110
1633.62894,0.12263
1631.70022,0.12333
1629.77150,0.12220
1627.84277,0.12087
1625.91405,0.11955
1623.98533,0.11745
1622.05660,0.11587
1620.12788,0.11440
1618.19916,0.11083
1616.27043,0.10684
1614.34171,0.10448
1612.41298,0.10195
1610.48426,0.09840
1608.55554,0.09478
1606.62681,0.09149
1604.69809,0.08825
1602.76937,0.08499
1600.84064,0.08205
1598.91192,0.07943
1596.98319,0.07682
1595.05447,0.07424
1593.12575,0.07188
1591.19702,0.06965
1589.26830,0.06747
1587.33958,0.06545
1585.41085,0.06358
1583.48213,0.06194
1581.55341,0.06067
1579.62468,0.05915
1577.69596,0.05644
1575.76723,0.05436
1573.83851,0.05440
1571.90979,0.05358
1569.98106,0.05140
1568.05234,0.05049
1566.12362,0.05039
1564.19489,0.05039
1562.26617,0.04955
1560.33745,0.04616
1558.40872,0.04377
1556.48000,0.04498
1554.55127,0.04512
1552.62255,0.04390
1550.69383,0.04250
1548.76510,0.04164
1546.83638,0.04096
1544.90766,0.03968
1542.97893,0.03777
1541.05021,0.03503
1539.12148,0.03391
1537.19276,0.03469
1535.26404,0.03327
1533.33531,0.03069
1531.40659,0.02990
1529.47787,0.02921
1527.54914,0.02756
1525.62042,0.02620
1523.69170,0.02468
1521.76297,0.02272
1519.83425,0.02185
1517.90552,0.02083
1515.97680,0.01943
1514.04808,0.01866
1512.11935,0.01787
1510.19063,0.01617
1508.26191,0.01264
1506.33318,0.00980
1504.40446,0.01012
1502.47574,0.00997
1500.54701,0.00786
1498.61829,0.00524
1496.68956,0.00370
1494.76084,0.00373
1492.83212,0.00337
1490.90339,0.00161
1488.97467,0.00029
1487.04595,0.00024
1485.11722,0.00033
1483.18850,-0.00003
1481.25977,-0.00030
1479.33105,0.00000
1477.40233,0.00031
1475.47360,0.00045
1473.54488,0.00079
1471.61616,0.00255
1469.68743,0.00511
1467.75871,0.00609
1465.82999,0.00592
1463.90126,0.00686
1461.97254,0.00856
1460.04381,0.00858
1458.11509,0.00736
1456.18637,0.00796
1454.25764,0.00975
1452.32892,0.01024
1450.40020,0.00972
1448.47147,0.00927
1446.54275,0.00959
1444.61403,0.01027
1442.68530,0.01080
1440.75658,0.01125
1438.82785,0.01103
1436.89913,0.01077
1434.97041,0.01201
1433.04168,0.01309
1431.11296,0.01302
1429.18424,0.01329
1427.25551,0.01414
1425.32679,0.01469
1423.39806,0.01530
1421.46934,0.01558
1419.54062,0.01524
1417.61189,0.01594
1415.68317,0.01719
1413.75445,0.01758
1411.82572,0.01766
1409.89700,0.01814
1407.96828,0.01873
1406.03955,0.01903
1404.11083,0.01951
1402.18210,0.01991
1400.25338,0.01934
1398.32466,0.01821
1396.39593,0.01671
1394.46721,0.01499
1392.53849,0.01390
1390.60976,0.01273
1388.68104,0.01061
1386.75232,0.00856
1384.82359,0.00748
1382.89487,0.00692
1380.96614,0.00659
1379.03742,0.00639
1377.10870,0.00592
1375.17997,0.00498
1373.25125,0.00425
1371.32253,0.00374
1369.39380,0.00290
1367.46508,0.00220
1365.53635,0.00160
1363.60763,0.00065
1361.67891,0.00000
1359.75018,-0.00032
1357.82146,-0.00072
1355.89274,-0.00124
1353.96401,-0.00164
1352.03529,-0.00195
1350.10657,-0.00225
1348.17784,-0.00249
1346.24912,-0.00266
1344.32039,-0.00277
1342.39167,-0.00300
1340.46295,-0.00339
1338.53422,-0.00344
1336.60550,-0.00317
1334.67678,-0.00307
1332.74805,-0.00312
1330.81933,-0.00312
1328.89061,-0.00304
1326.96188,-0.00287
1325.03316,-0.00260
1323.10443,-0.00228
1321.17571,-0.00204
1319.24699,-0.00166
1317.31826,-0.00100
1315.38954,-0.00040
1313.46082,0.00011
1311.53209,0.00085
1309.60337,0.00168
1307.67464,0.00245
1305.74592,0.00339
1303.81720,0.00452
1301.88847,0.00578
1299.95975,0.00717
1298.03103,0.00879
1296.10230,0.01069
1294.17358,0.01277
1292.24486,0.01496
1290.31613,0.01732
1288.38741,0.02001
1286.45868,0.02308
1284.52996,0.02643
1282.60124,0.02994
1280.67251,0.03367
1278.74379,0.03786
1276.81507,0.04278
1274.88634,0.04840
1272.95762,0.05462
1271.02890,0.06152
1269.10017,0.06913
1267.17145,0.07750
1265.24272,0.08689
1263.31400,0.09740
1261.38528,0.10913
1259.45655,0.12208
1257.52783,0.13570
1255.59911,0.14956
1253.67038,0.16358
1251.74166,0.17745
1249.81294,0.19071
1247.88421,0.20293
1245.95549,0.21410
1244.02676,0.22438
1242.09804,0.23362
1240.16932,0.24179
1238.24059,0.24916
1236.31187,0.25581
1234.38315,0.26200
1232.45442,0.26805
1230.52570,0.27368
1228.59697,0.27863
1226.66825,0.28311
1224.73953,0.28742
1222.81080,0.29157
1220.88208,0.29547
1218.95336,0.29905
1217.02463,0.30225
1215.09591,0.30497
1213.16719,0.30745
1211.23846,0.31018
1209.30974,0.31311
1207.38101,0.31589
1205.45229,0.31865
1203.52357,0.32139
1201.59484,0.32381
1199.66612,0.32590
1197.73740,0.32813
1195.80867,0.33092
1193.87995,0.33401
1191.95123,0.33665
1190.02250,0.33867
1188.09378,0.34072
1186.16505,0.34313
1184.23633,0.34552
1182.30761,0.34766
1180.37888,0.35000
1178.45016,0.35265
1176.52144,0.35504
1174.59271,0.35716
1172.66399,0.35942
1170.73526,0.36169
1168.80654,0.36392
1166.87782,0.36614
1164.94909,0.36797
1163.02037,0.36950
1161.09165,0.37131
1159.16292,0.37347
1157.23420,0.37558
1155.30548,0.37743
1153.37675,0.37913
1151.44803,0.38096
1149.51930,0.38292
1147.59058,0.38483
1145.66186,0.38682
1143.73313,0.38908
1141.80441,0.39152
1139.87569,0.39395
1137.94696,0.39628
1136.01824,0.39878
1134.08952,0.40163
1132.16079,0.40435
1130.23207,0.40662
1128.30334,0.40866
1126.37462,0.41104
1124.44590,0.41446
1122.51717,0.41898
1120.58845,0.42371
1118.65973,0.42811
1116.73100,0.43296
1114.80228,0.43874
1112.87355,0.44499
1110.94483,0.45139
1109.01611,0.45767
1107.08738,0.46373
1105.15866,0.46954
1103.22994,0.47552
1101.30121,0.48177
1099.37249,0.48699
1097.44377,0.48990
1095.51504,0.49082
1093.58632,0.49104
1091.65759,0.49121
1089.72887,0.49104
1087.80015,0.49063
1085.87142,0.49020
1083.94270,0.48945
1082.01398,0.48835
1080.08525,0.48709
1078.15653,0.48503
1076.22781,0.48165
1074.29908,0.47769
1072.37036,0.47401
1070.44163,0.47046
1068.51291,0.46665
1066.58419,0.46244
1064.65546,0.45775
1062.72674,0.45274
1060.79802,0.44688
1058.86929,0.43987
1056.94057,0.43256
1055.01184,0.42529
1053.08312,0.41802
1051.15440,0.41092
1049.22567,0.40343
1047.29695,0.39504
1045.36823,0.38609
1043.43950,0.37702
1041.51078,0.36813
1039.58206,0.35964
1037.65333,0.35126
1035.72461,0.34209
1033.79588,0.33191
1031.86716,0.32196
1029.93844,0.31304
1028.00971,0.30490
1026.08099,0.29718
1024.15227,0.28942
1022.22354,0.28158
1020.29482,0.27386
1018.36610,0.26650
1016.43737,0.25962
1014.50865,0.25292
1012.57992,0.24632
1010.65120,0.24014
1008.72248,0.23443
1006.79375,0.22912
1004.86503,0.22382
1002.93631,0.21820
1001.00758,0.21270
999.07886,0.20781
997.15013,0.20331
995.22141,0.19885
993.29269,0.19446
991.36396,0.19032
989.43524,0.18647
987.50652,0.18294
985.57779,0.18001
983.64907,0.17778
981.72035,0.17610
979.79162,0.17473
977.86290,0.17325
975.93417,0.17155
974.00545,0.17007
972.07673,0.16928
970.14800,0.16904
968.21928,0.16872
966.29056,0.16797
964.36183,0.16708
962.43311,0.16637
960.50439,0.16591
958.57566,0.16552
956.64694,0.16478
954.71821,0.16368
952.78949,0.16251
950.86077,0.16117
948.93204,0.15958
947.00332,0.15787
945.07460,0.15600
943.14587,0.15374
941.21715,0.15113
939.28842,0.14842
937.35970,0.14584
935.43098,0.14326
933.50225,0.14033
931.57353,0.13702
929.64481,0.13363
927.71608,0.13027
925.78736,0.12697
923.85864,0.12358
921.92991,0.11971
920.00119,0.11557
918.07246,0.11192
916.14374,0.10880
914.21502,0.10543
912.28629,0.10131
910.35757,0.09673
908.42885,0.09227
906.50012,0.08814
904.57140,0.08422
902.64268,0.08021
900.71395,0.07610
898.78523,0.07214
896.85650,0.06802
894.92778,0.06341
892.99906,0.05900
891.07033,0.05521
889.14161,0.05148
887.21289,0.04749
885.28416,0.04349
883.35544,0.03984
881.42671,0.03672
879.49799,0.03384
877.56927,0.03088
875.64054,0.02781
873.71182,0.02484
871.78310,0.02222
869.85437,0.01984
867.92565,0.01738
865.99693,0.01466
864.06820,0.01186
862.13948,0.00934
860.21075,0.00735
858.28203,0.00572
856.35331,0.00412
854.42458,0.00255
852.49586,0.00117
850.56714,0.00000
848.63841,-0.00044
846.70969,0.00039
844.78097,0.00200
842.85224,0.00383
840.92352,0.00596
838.99479,0.00854
837.06607,0.01192
835.13735,0.01612
833.20862,0.02058
831.27990,0.02502
829.35118,0.02949
827.42245,0.03373
825.49373,0.03777
823.56501,0.04192
821.63628,0.04602
819.70756,0.04986
817.77883,0.05353
815.85011,0.05709
813.92139,0.06081
811.99266,0.06456
810.06394,0.06778
808.13522,0.07078
806.20649,0.07395
804.27777,0.07670
802.34904,0.07841
800.42032,0.07932
798.49160,0.07964
796.56287,0.07937
794.63415,0.07865
792.70543,0.07746
790.77670,0.07557
788.84798,0.07308
786.91926,0.07011
784.99053,0.06639
783.06181,0.06188
781.13308,0.05713
779.20436,0.05234
777.27564,0.04714
775.34691,0.04144
773.41819,0.03588
771.48947,0.03126
769.56074,0.02783
767.63202,0.02533
765.70330,0.02325
763.77457,0.02158
761.84585,0.02071
759.91712,0.02039
757.98840,0.01991
756.05968,0.01923
754.13095,0.01870
752.20223,0.01840
750.27351,0.01808
748.34478,0.01733
746.41606,0.01610
744.48733,0.01491
742.55861,0.01423
740.62989,0.01387
738.70116,0.01350
736.77244,0.01322
734.84372,0.01312
732.91499,0.01287
730.98627,0.01238
729.05755,0.01179
727.12882,0.01126
725.20010,0.01075
723.27137,0.01004
721.34265,0.00925
719.41393,0.00884
717.48520,0.00876
715.55648,0.00856
713.62776,0.00810
711.69903,0.00765
709.77031,0.00743
707.84159,0.00749
705.91286,0.00766
703.98414,0.00791
702.05541,0.00845
700.12669,0.00894
698.19797,0.00881
696.26924,0.00832
694.34052,0.00819
692.41180,0.00848
690.48307,0.00882
688.55435,0.00903
686.62562,0.00903
684.69690,0.00875
682.76818,0.00855
680.83945,0.00885
678.91073,0.00941
676.98201,0.00958
675.05328,0.00943
673.12456,0.00921
671.19584,0.00823
669.26711,0.00684
667.33839,0.00742
665.40966,0.00955
663.48094,0.01047
661.55222,0.01013
659.62349,0.00991
657.69477,0.01032
655.76605,0.01122
653.83732,0.01235
651.90860,0.01348
649.97988,0.01463
648.05115,0.01598
646.12243,0.01764
644.19370,0.01963
642.26498,0.02177
640.33626,0.02379
638.40753,0.02553
636.47881,0.02714
634.55009,0.02900
632.62136,0.03109
630.69264,0.03266
628.76391,0.03314
626.83519,0.03296
624.90647,0.03285
622.97774,0.03299
621.04902,0.03405
619.12030,0.03593
617.19157,0.03763
615.26285,0.03908
613.33413,0.04022
611.40540,0.04092
609.47668,0.04225
607.54795,0.04483
605.61923,0.04751
603.69051,0.04917
601.76178,0.05032
599.83306,0.05200
597.90434,0.05437
595.97561,0.05649
594.04689,0.05771
592.11817,0.05950
590.18944,0.06284
588.26072,0.06542
586.33199,0.06629
584.40327,0.06732
582.47455,0.06863
580.54582,0.06895
578.61710,0.06877
576.68838,0.06953
574.75965,0.07137
572.83093,0.07252
570.90220,0.07233
568.97348,0.07260
567.04476,0.07357
565.11603,0.07351
563.18731,0.07244
561.25859,0.07189
559.32986,0.07250
557.40114,0.07377
555.47242,0.07490
553.54369,0.07576
551.61497,0.07653
549.68624,0.07766
547.75752,0.07970
545.82880,0.08186
543.90007,0.08309
541.97135,0.08397
540.04263,0.08503
538.11390,0.08552
536.18518,0.08524
534.25646,0.08480
532.32773,0.08395
530.39901,0.08227
528.47028,0.08053
526.54156,0.07997
524.61284,0.08082
522.68411,0.08167
520.75539,0.08171
518.82667,0.08224
516.89794,0.08474
514.96922,0.08857
513.04049,0.09236
511.11177,0.09630
509.18305,0.10073
507.25432,0.10587
505.32560,0.11182
503.39688,0.11797
501.46815,0.12550
499.53943,0.13560
497.61071,0.14612
495.68198,0.15404
493.75326,0.15932
491.82453,0.16584
489.89581,0.17629
487.96709,0.18847
486.03836,0.20017
484.10964,0.21204
482.18092,0.22389
480.25219,0.23400
478.32347,0.24255
476.39475,0.25073
474.46602,0.25724
472.53730,0.26186
470.60857,0.26798
468.67985,0.27553
466.75113,0.27911
464.82240,0.27589
462.89368,0.26993
460.96496,0.26685
459.03623,0.26726
457.10751,0.26700
455.17878,0.26098
453.25006,0.24987
451.32134,0.24093
449.39261,0.23770
447.46389,0.23449
445.53517,0.22508
443.60644,0.21086
441.67772,0.19818
439.74900,0.19131
437.82027,0.18764
435.89155,0.18199
433.96282,0.17411
432.03410,0.16651
430.10538,0.15973
428.17665,0.15349
426.24793,0.14671
424.31921,0.13662
422.39048,0.12160
420.46176,0.10679
418.53304,0.10268
416.60431,0.10683
414.67559,0.10337
412.74686,0.08819
410.81814,0.07208
408.88942,0.06801
406.96069,0.07439
405.03197,0.07432
403.10325,0.06058
401.17452,0.04440
399.24580,0.03582
397.31708,0.03629
395.38835,0.03930
393.45963,0.03484
391.53090,0.02521
389.60218,0.02238
387.67346,0.02910
385.74473,0.03406
383.81601,0.02943
381.88729,0.01997
379.95856,0.01846
378.02984,0.03467
376.10111,0.04983
374.17239,0.03209
372.24367,0.00495
370.31494,0.00000
368.38622,0.00000
