3996.31543,0.00000
3994.38671,0.00014
3992.45799,0.00024
3990.52926,0.00023
3988.60054,0.00023
3986.67182,0.00037
3984.74309,0.00056
3982.81437,0.00066
3980.88564,0.00070
3978.95692,0.00067
3977.02820,0.00059
3975.09947,0.00053
3973.17075,0.00057
3971.24203,0.00064
3969.31330,0.00063
3967.38458,0.00055
3965.45586,0.00056
3963.52713,0.00069
3961.59841,0.00079
3959.66968,0.00078
3957.74096,0.00080
3955.81224,0.00092
3953.88351,0.00103
3951.95479,0.00108
3950.02607,0.00114
3948.09734,0.00114
3946.16862,0.00099
3944.23990,0.00073
3942.31117,0.00051
3940.38245,0.00045
3938.45372,0.00052
3936.52500,0.00063
3934.59628,0.00079
3932.66755,0.00107
3930.73883,0.00130
3928.81011,0.00128
3926.88138,0.00114
3924.95266,0.00105
3923.02393,0.00097
3921.09521,0.00080
3919.16649,0.00065
3917.23776,0.00060
3915.30904,0.00057
3913.38032,0.00050
3911.45159,0.00044
3909.52287,0.00034
3907.59415,0.00025
3905.66542,0.00048
3903.73670,0.00106
3901.80797,0.00150
3899.87925,0.00145
3897.95053,0.00107
3896.02180,0.00070
3894.09308,0.00056
3892.16436,0.00068
3890.23563,0.00070
3888.30691,0.00041
3886.37819,0.00006
3884.44946,0.00000
3882.52074,0.00015
3880.59201,0.00033
3878.66329,0.00033
3876.73457,0.00021
3874.80584,0.00027
3872.87712,0.00059
3870.94840,0.00093
3869.01967,0.00105
3867.09095,0.00099
3865.16222,0.00094
3863.23350,0.00080
3861.30478,0.00050
3859.37605,0.00017
3857.44733,-0.00004
3855.51861,-0.00002
3853.58988,0.00026
3851.66116,0.00044
3849.73244,0.00024
3847.80371,-0.00010
3845.87499,-0.00024
3843.94626,-0.00001
3842.01754,0.00044
3840.08882,0.00079
3838.16009,0.00093
3836.23137,0.00093
3834.30265,0.00088
3832.37392,0.00082
3830.44520,0.00073
3828.51648,0.00063
3826.58775,0.00048
3824.65903,0.00030
3822.73030,0.00043
3820.80158,0.00095
3818.87286,0.00125
3816.94413,0.00115
3815.01541,0.00098
3813.08669,0.00080
3811.15796,0.00062
3809.22924,0.00067
3807.30052,0.00103
3805.37179,0.00133
3803.44307,0.00150
3801.51434,0.00186
3799.58562,0.00222
3797.65690,0.00229
3795.72817,0.00224
3793.79945,0.00220
3791.87073,0.00224
3789.94200,0.00239
3788.01328,0.00260
3786.08455,0.00286
3784.15583,0.00308
3782.22711,0.00323
3780.29838,0.00353
3778.36966,0.00398
3776.44094,0.00425
3774.51221,0.00437
3772.58349,0.00472
3770.65477,0.00543
3768.72604,0.00617
3766.79732,0.00668
3764.86859,0.00709
3762.93987,0.00754
3761.01115,0.00812
3759.08242,0.00892
3757.15370,0.00973
3755.22498,0.01038
3753.29625,0.01118
3751.36753,0.01242
3749.43881,0.01367
3747.51008,0.01453
3745.58136,0.01554
3743.65263,0.01687
3741.72391,0.01797
3739.79519,0.01884
3737.86646,0.02008
3735.93774,0.02208
3734.00902,0.02443
3732.08029,0.02643
3730.15157,0.02796
3728.22284,0.02953
3726.29412,0.03172
3724.36540,0.03460
3722.43667,0.03772
3720.50795,0.04063
3718.57923,0.04325
3716.65050,0.04567
3714.72178,0.04829
3712.79306,0.05204
3710.86433,0.05698
3708.93561,0.06142
3707.00688,0.06452
3705.07816,0.06736
3703.14944,0.07114
3701.22071,0.07588
3699.29199,0.08046
3697.36327,0.08431
3695.43454,0.08772
3693.50582,0.09103
3691.57710,0.09492
3689.64837,0.10005
3687.71965,0.10554
3685.79092,0.11011
3683.86220,0.11400
3681.93348,0.11795
3680.00475,0.12219
3678.07603,0.12711
3676.14731,0.13337
3674.21858,0.13971
3672.28986,0.14428
3670.36113,0.14868
3668.43241,0.15377
3666.50369,0.15804
3664.57496,0.16156
3662.64624,0.16522
3660.71752,0.16902
3658.78879,0.17287
3656.86007,0.17703
3654.93135,0.18100
3653.00262,0.18420
3651.07390,0.18786
3649.14517,0.19293
3647.21645,0.19745
3645.28773,0.20009
3643.35900,0.20200
3641.43028,0.20429
3639.50156,0.20702
3637.57283,0.20988
3635.64411,0.21274
3633.71539,0.21547
3631.78666,0.21799
3629.85794,0.22093
3627.92921,0.22446
3626.00049,0.22720
3624.07177,0.22878
3622.14304,0.23014
3620.21432,0.23217
3618.28560,0.23474
3616.35687,0.23688
3614.42815,0.23857
3612.49942,0.24034
3610.57070,0.24219
3608.64198,0.24416
3606.71325,0.24613
3604.78453,0.24767
3602.85581,0.24894
3600.92708,0.25052
3598.99836,0.25247
3597.06964,0.25456
3595.14091,0.25671
3593.21219,0.25850
3591.28346,0.25959
3589.35474,0.26068
3587.42602,0.26261
3585.49729,0.26483
3583.56857,0.26649
3581.63985,0.26783
3579.71112,0.26930
3577.78240,0.27086
3575.85368,0.27224
3573.92495,0.27339
3571.99623,0.27439
3570.06750,0.27555
3568.13878,0.27733
3566.21006,0.27945
3564.28133,0.28098
3562.35261,0.28192
3560.42389,0.28280
3558.49516,0.28372
3556.56644,0.28470
3554.63771,0.28575
3552.70899,0.28685
3550.78027,0.28796
3548.85154,0.28921
3546.92282,0.29075
3544.99410,0.29235
3543.06537,0.29359
3541.13665,0.29443
3539.20793,0.29528
3537.27920,0.29642
3535.35048,0.29763
3533.42175,0.29865
3531.49303,0.29958
3529.56431,0.30057
3527.63558,0.30159
3525.70686,0.30258
3523.77814,0.30359
3521.84941,0.30460
3519.92069,0.30551
3517.99197,0.30623
3516.06324,0.30678
3514.13452,0.30736
3512.20579,0.30824
3510.27707,0.30935
3508.34835,0.31030
3506.41962,0.31091
3504.49090,0.31145
3502.56218,0.31221
3500.63345,0.31304
3498.70473,0.31380
3496.77600,0.31461
3494.84728,0.31542
3492.91856,0.31602
3490.98983,0.31656
3489.06111,0.31731
3487.13239,0.31816
3485.20366,0.31891
3483.27494,0.31971
3481.34622,0.32065
3479.41749,0.32128
3477.48877,0.32154
3475.56004,0.32180
3473.63132,0.32227
3471.70260,0.32291
3469.77387,0.32364
3467.84515,0.32427
3465.91643,0.32468
3463.98770,0.32510
3462.05898,0.32559
3460.13026,0.32601
3458.20153,0.32635
3456.27281,0.32674
3454.34408,0.32716
3452.41536,0.32745
3450.48664,0.32770
3448.55791,0.32813
3446.62919,0.32869
3444.70047,0.32921
3442.77174,0.32965
3440.84302,0.32999
3438.91429,0.33037
3436.98557,0.33092
3435.05685,0.33141
3433.12812,0.33170
3431.19940,0.33188
3429.27068,0.33201
3427.34195,0.33222
3425.41323,0.33255
3423.48451,0.33286
3421.55578,0.33308
3419.62706,0.33332
3417.69833,0.33350
3415.76961,0.33358
3413.84089,0.33363
3411.91216,0.33347
3409.98344,0.33323
3408.05472,0.33330
3406.12599,0.33361
3404.19727,0.33393
3402.26855,0.33414
3400.33982,0.33412
3398.41110,0.33390
3396.48237,0.33365
3394.55365,0.33355
3392.62493,0.33350
3390.69620,0.33338
3388.76748,0.33329
3386.83876,0.33354
3384.91003,0.33392
3382.98131,0.33393
3381.05259,0.33369
3379.12386,0.33355
3377.19514,0.33340
3375.26641,0.33313
3373.33769,0.33281
3371.40897,0.33242
3369.48024,0.33224
3367.55152,0.33253
3365.62280,0.33284
3363.69407,0.33271
3361.76535,0.33225
3359.83662,0.33172
3357.90790,0.33132
3355.97918,0.33120
3354.05045,0.33106
3352.12173,0.33061
3350.19301,0.33003
3348.26428,0.32961
3346.33556,0.32942
3344.40684,0.32936
3342.47811,0.32923
3340.54939,0.32887
3338.62066,0.32841
3336.69194,0.32810
3334.76322,0.32787
3332.83449,0.32745
3330.90577,0.32688
3328.97705,0.32647
3327.04832,0.32625
3325.11960,0.32610
3323.19088,0.32593
3321.26215,0.32567
3319.33343,0.32536
3317.40470,0.32511
3315.47598,0.32476
3313.54726,0.32425
3311.61853,0.32385
3309.68981,0.32369
3307.76109,0.32365
3305.83236,0.32349
3303.90364,0.32317
3301.97491,0.32272
3300.04619,0.32220
3298.11747,0.32193
3296.18874,0.32185
3294.26002,0.32151
3292.33130,0.32093
3290.40257,0.32062
3288.47385,0.32073
3286.54513,0.32075
3284.61640,0.32035
3282.68768,0.31961
3280.75895,0.31876
3278.83023,0.31818
3276.90151,0.31809
3274.97278,0.31809
3273.04406,0.31759
3271.11534,0.31665
3269.18661,0.31588
3267.25789,0.31557
3265.32917,0.31539
3263.40044,0.31496
3261.47172,0.31432
3259.54299,0.31374
3257.61427,0.31331
3255.68555,0.31305
3253.75682,0.31281
3251.82810,0.31219
3249.89938,0.31124
3247.97065,0.31039
3246.04193,0.30980
3244.11320,0.30943
3242.18448,0.30918
3240.25576,0.30874
3238.32703,0.30797
3236.39831,0.30718
3234.46959,0.30665
3232.54086,0.30626
3230.61214,0.30576
3228.68342,0.30508
3226.75469,0.30438
3224.82597,0.30379
3222.89724,0.30323
3220.96852,0.30257
3219.03980,0.30178
3217.11107,0.30096
3215.18235,0.30026
3213.25363,0.29964
3211.32490,0.29897
3209.39618,0.29827
3207.46746,0.29755
3205.53873,0.29672
3203.61001,0.29573
3201.68128,0.29480
3199.75256,0.29413
3197.82384,0.29346
3195.89511,0.29260
3193.96639,0.29187
3192.03767,0.29123
3190.10894,0.29039
3188.18022,0.28948
3186.25149,0.28874
3184.32277,0.28801
3182.39405,0.28703
3180.46532,0.28593
3178.53660,0.28491
3176.60788,0.28397
3174.67915,0.28310
3172.75043,0.28228
3170.82171,0.28142
3168.89298,0.28052
3166.96426,0.27965
3165.03553,0.27874
3163.10681,0.27777
3161.17809,0.27684
3159.24936,0.27594
3157.32064,0.27497
3155.39192,0.27395
3153.46319,0.27301
3151.53447,0.27217
3149.60575,0.27126
3147.67702,0.27018
3145.74830,0.26908
3143.81957,0.26811
3141.89085,0.26728
3139.96213,0.26648
3138.03340,0.26562
3136.10468,0.26474
3134.17596,0.26390
3132.24723,0.26302
3130.31851,0.26206
3128.38978,0.26116
3126.46106,0.26033
3124.53234,0.25950
3122.60361,0.25862
3120.67489,0.25768
3118.74617,0.25659
3116.81744,0.25538
3114.88872,0.25419
3112.96000,0.25314
3111.03127,0.25221
3109.10255,0.25138
3107.17382,0.25049
3105.24510,0.24939
3103.31638,0.24812
3101.38765,0.24690
3099.45893,0.24597
3097.53021,0.24516
3095.60148,0.24414
3093.67276,0.24295
3091.74404,0.24187
3089.81531,0.24089
3087.88659,0.23988
3085.95786,0.23874
3084.02914,0.23748
3082.10042,0.23626
3080.17169,0.23522
3078.24297,0.23433
3076.31425,0.23334
3074.38552,0.23218
3072.45680,0.23097
3070.52807,0.22978
3068.59935,0.22859
3066.67063,0.22740
3064.74190,0.22631
3062.81318,0.22526
3060.88446,0.22414
3058.95573,0.22298
3057.02701,0.22183
3055.09829,0.22061
3053.16956,0.21935
3051.24084,0.21817
3049.31211,0.21706
3047.38339,0.21600
3045.45467,0.21500
3043.52594,0.21400
3041.59722,0.21290
3039.66850,0.21178
3037.73977,0.21075
3035.81105,0.20980
3033.88233,0.20883
3031.95360,0.20784
3030.02488,0.20683
3028.09615,0.20577
3026.16743,0.20465
3024.23871,0.20355
3022.30998,0.20255
3020.38126,0.20169
3018.45254,0.20094
3016.52381,0.20026
3014.59509,0.19949
3012.66636,0.19852
3010.73764,0.19744
3008.80892,0.19631
3006.88019,0.19530
3004.95147,0.19453
3003.02275,0.19390
3001.09402,0.19332
2999.16530,0.19272
2997.23658,0.19198
2995.30785,0.19113
2993.37913,0.19035
2991.45040,0.18967
2989.52168,0.18913
2987.59296,0.18871
2985.66423,0.18824
2983.73551,0.18776
2981.80679,0.18744
2979.87806,0.18738
2977.94934,0.18752
2976.02062,0.18773
2974.09189,0.18796
2972.16317,0.18813
2970.23444,0.18820
2968.30572,0.18838
2966.37700,0.18874
2964.44827,0.18915
2962.51955,0.18945
2960.59083,0.18949
2958.66210,0.18925
2956.73338,0.18884
2954.80466,0.18844
2952.87593,0.18802
2950.94721,0.18753
2949.01848,0.18710
2947.08976,0.18692
2945.16104,0.18710
2943.23231,0.18771
2941.30359,0.18869
2939.37487,0.18983
2937.44614,0.19106
2935.51742,0.19237
2933.58869,0.19366
2931.65997,0.19484
2929.73125,0.19585
2927.80252,0.19653
2925.87380,0.19672
2923.94508,0.19620
2922.01635,0.19478
2920.08763,0.19261
2918.15891,0.18997
2916.23018,0.18682
2914.30146,0.18316
2912.37273,0.17943
2910.44401,0.17608
2908.51529,0.17325
2906.58656,0.17081
2904.65784,0.16857
2902.72912,0.16657
2900.80039,0.16483
2898.87167,0.16309
2896.94295,0.16124
2895.01422,0.15947
2893.08550,0.15786
2891.15677,0.15631
2889.22805,0.15480
2887.29933,0.15338
2885.37060,0.15201
2883.44188,0.15073
2881.51316,0.14972
2879.58443,0.14898
2877.65571,0.14832
2875.72698,0.14773
2873.79826,0.14715
2871.86954,0.14635
2869.94081,0.14546
2868.01209,0.14483
2866.08337,0.14446
2864.15464,0.14434
2862.22592,0.14461
2860.29720,0.14533
2858.36847,0.14643
2856.43975,0.14762
2854.51102,0.14827
2852.58230,0.14774
2850.65358,0.14564
2848.72485,0.14212
2846.79613,0.13772
2844.86741,0.13320
2842.93868,0.12918
2841.00996,0.12587
2839.08124,0.12312
2837.15251,0.12082
2835.22379,0.11886
2833.29506,0.11714
2831.36634,0.11559
2829.43762,0.11425
2827.50889,0.11306
2825.58017,0.11191
2823.65145,0.11075
2821.72272,0.10959
2819.79400,0.10841
2817.86527,0.10723
2815.93655,0.10611
2814.00783,0.10512
2812.07910,0.10426
2810.15038,0.10333
2808.22166,0.10223
2806.29293,0.10108
2804.36421,0.10007
2802.43549,0.09926
2800.50676,0.09849
2798.57804,0.09761
2796.64931,0.09661
2794.72059,0.09561
2792.79187,0.09467
2790.86314,0.09374
2788.93442,0.09279
2787.00570,0.09197
2785.07697,0.09127
2783.14825,0.09048
2781.21953,0.08957
2779.29080,0.08870
2777.36208,0.08794
2775.43335,0.08721
2773.50463,0.08643
2771.57591,0.08567
2769.64718,0.08498
2767.71846,0.08426
2765.78974,0.08341
2763.86101,0.08250
2761.93229,0.08163
2760.00356,0.08083
2758.07484,0.08008
2756.14612,0.07936
2754.21739,0.07866
2752.28867,0.07799
2750.35995,0.07739
2748.43122,0.07679
2746.50250,0.07608
2744.57378,0.07532
2742.64505,0.07456
2740.71633,0.07383
2738.78760,0.07317
2736.85888,0.07255
2734.93016,0.07183
2733.00143,0.07110
2731.07271,0.07045
2729.14399,0.06983
2727.21526,0.06919
2725.28654,0.06852
2723.35782,0.06778
2721.42909,0.06702
2719.50037,0.06635
2717.57164,0.06576
2715.64292,0.06519
2713.71420,0.06456
2711.78547,0.06384
2709.85675,0.06307
2707.92803,0.06236
2705.99930,0.06172
2704.07058,0.06115
2702.14185,0.06059
2700.21313,0.05997
2698.28441,0.05934
2696.35568,0.05875
2694.42696,0.05812
2692.49824,0.05745
2690.56951,0.05677
2688.64079,0.05610
2686.71207,0.05548
2684.78334,0.05495
2682.85462,0.05447
2680.92589,0.05397
2678.99717,0.05342
2677.06845,0.05287
2675.13972,0.05235
2673.21100,0.05178
2671.28228,0.05118
2669.35355,0.05062
2667.42483,0.05009
2665.49611,0.04953
2663.56738,0.04897
2661.63866,0.04840
2659.70993,0.04775
2657.78121,0.04714
2655.85249,0.04661
2653.92376,0.04608
2651.99504,0.04554
2650.06632,0.04505
2648.13759,0.04458
2646.20887,0.04411
2644.28014,0.04366
2642.35142,0.04320
2640.42270,0.04275
2638.49397,0.04228
2636.56525,0.04182
2634.63653,0.04138
2632.70780,0.04094
2630.77908,0.04047
2628.85036,0.03998
2626.92163,0.03945
2624.99291,0.03889
2623.06418,0.03840
2621.13546,0.03796
2619.20674,0.03750
2617.27801,0.03701
2615.34929,0.03656
2613.42057,0.03616
2611.49184,0.03574
2609.56312,0.03530
2607.63440,0.03490
2605.70567,0.03453
2603.77695,0.03418
2601.84822,0.03381
2599.91950,0.03339
2597.99078,0.03297
2596.06205,0.03256
2594.13333,0.03221
2592.20461,0.03189
2590.27588,0.03150
2588.34716,0.03105
2586.41843,0.03064
2584.48971,0.03028
2582.56099,0.02995
2580.63226,0.02963
2578.70354,0.02928
2576.77482,0.02891
2574.84609,0.02858
2572.91737,0.02828
2570.98865,0.02798
2569.05992,0.02764
2567.13120,0.02727
2565.20247,0.02693
2563.27375,0.02665
2561.34503,0.02641
2559.41630,0.02616
2557.48758,0.02587
2555.55886,0.02559
2553.63013,0.02532
2551.70141,0.02501
2549.77269,0.02465
2547.84396,0.02431
2545.91524,0.02402
2543.98651,0.02381
2542.05779,0.02368
2540.12907,0.02349
2538.20034,0.02319
2536.27162,0.02287
2534.34290,0.02254
2532.41417,0.02221
2530.48545,0.02196
2528.55673,0.02176
2526.62800,0.02152
2524.69928,0.02131
2522.77055,0.02116
2520.84183,0.02099
2518.91311,0.02078
2516.98438,0.02052
2515.05566,0.02029
2513.12694,0.02010
2511.19821,0.01983
2509.26949,0.01946
2507.34076,0.01912
2505.41204,0.01888
2503.48332,0.01871
2501.55459,0.01851
2499.62587,0.01828
2497.69715,0.01807
2495.76842,0.01786
2493.83970,0.01759
2491.91098,0.01726
2489.98225,0.01694
2488.05353,0.01667
2486.12480,0.01648
2484.19608,0.01633
2482.26736,0.01614
2480.33863,0.01587
2478.40991,0.01557
2476.48119,0.01528
2474.55246,0.01505
2472.62374,0.01487
2470.69502,0.01463
2468.76629,0.01434
2466.83757,0.01410
2464.90884,0.01394
2462.98012,0.01380
2461.05140,0.01360
2459.12267,0.01329
2457.19395,0.01296
2455.26523,0.01272
2453.33650,0.01256
2451.40778,0.01239
2449.47905,0.01218
2447.55033,0.01197
2445.62161,0.01179
2443.69288,0.01166
2441.76416,0.01148
2439.83544,0.01121
2437.90671,0.01095
2435.97799,0.01080
2434.04927,0.01064
2432.12054,0.01039
2430.19182,0.01014
2428.26309,0.00991
2426.33437,0.00971
2424.40565,0.00950
2422.47692,0.00925
2420.54820,0.00907
2418.61948,0.00900
2416.69075,0.00888
2414.76203,0.00869
2412.83331,0.00849
2410.90458,0.00830
2408.97586,0.00809
2407.04713,0.00792
2405.11841,0.00782
2403.18969,0.00765
2401.26096,0.00735
2399.33224,0.00704
2397.40352,0.00684
2395.47479,0.00672
2393.54607,0.00661
2391.61734,0.00648
2389.68862,0.00636
2387.75990,0.00626
2385.83117,0.00618
2383.90245,0.00612
2381.97373,0.00604
2380.04500,0.00596
2378.11628,0.00589
2376.18756,0.00584
2374.25883,0.00581
2372.33011,0.00580
2370.40138,0.00575
2368.47266,0.00564
2366.54394,0.00558
2364.61521,0.00570
2362.68649,0.00592
2360.75777,0.00602
2358.82904,0.00588
2356.90032,0.00560
2354.97160,0.00537
2353.04287,0.00528
2351.11415,0.00513
2349.18542,0.00484
2347.25670,0.00460
2345.32798,0.00456
2343.39925,0.00464
2341.47053,0.00468
2339.54181,0.00470
2337.61308,0.00466
2335.68436,0.00449
2333.75563,0.00427
2331.82691,0.00410
2329.89819,0.00394
2327.96946,0.00374
2326.04074,0.00355
2324.11202,0.00344
2322.18329,0.00334
2320.25457,0.00325
2318.32585,0.00319
2316.39712,0.00311
2314.46840,0.00301
2312.53967,0.00293
2310.61095,0.00289
2308.68223,0.00286
2306.75350,0.00279
2304.82478,0.00262
2302.89606,0.00239
2300.96733,0.00218
2299.03861,0.00205
2297.10989,0.00199
2295.18116,0.00196
2293.25244,0.00192
2291.32371,0.00185
2289.39499,0.00179
2287.46627,0.00171
2285.53754,0.00161
2283.60882,0.00148
2281.68010,0.00135
2279.75137,0.00123
2277.82265,0.00115
2275.89392,0.00114
2273.96520,0.00117
2272.03648,0.00117
2270.10775,0.00109
2268.17903,0.00096
2266.25031,0.00087
2264.32158,0.00087
2262.39286,0.00089
2260.46414,0.00088
2258.53541,0.00090
2256.60669,0.00094
2254.67796,0.00092
2252.74924,0.00083
2250.82052,0.00071
2248.89179,0.00064
2246.96307,0.00059
2245.03435,0.00057
2243.10562,0.00050
2241.17690,0.00041
2239.24818,0.00039
2237.31945,0.00042
2235.39073,0.00043
2233.46200,0.00042
2231.53328,0.00041
2229.60456,0.00039
2227.67583,0.00035
2225.74711,0.00030
2223.81839,0.00027
2221.88966,0.00030
2219.96094,0.00034
2218.03221,0.00031
2216.10349,0.00027
2214.17477,0.00023
2212.24604,0.00020
2210.31732,0.00016
2208.38860,0.00014
2206.45987,0.00016
2204.53115,0.00018
2202.60243,0.00015
2200.67370,0.00008
2198.74498,0.00001
2196.81625,0.00001
2194.88753,0.00007
2192.95881,0.00014
2191.03008,0.00018
2189.10136,0.00018
2187.17264,0.00015
2185.24391,0.00011
2183.31519,0.00008
2181.38647,0.00013
2179.45774,0.00022
2177.52902,0.00025
2175.60029,0.00021
2173.67157,0.00019
2171.74285,0.00022
2169.81412,0.00025
2167.88540,0.00024
2165.95668,0.00024
2164.02795,0.00023
2162.09923,0.00021
2160.17050,0.00021
2158.24178,0.00025
2156.31306,0.00030
2154.38433,0.00038
2152.45561,0.00044
2150.52689,0.00044
2148.59816,0.00040
2146.66944,0.00037
2144.74072,0.00037
2142.81199,0.00038
2140.88327,0.00034
2138.95454,0.00032
2137.02582,0.00037
2135.09710,0.00041
2133.16837,0.00039
2131.23965,0.00041
2129.31093,0.00046
2127.38220,0.00048
2125.45348,0.00047
2123.52476,0.00046
2121.59603,0.00039
2119.66731,0.00029
2117.73858,0.00024
2115.80986,0.00028
2113.88114,0.00031
2111.95241,0.00022
2110.02369,0.00005
2108.09497,-0.00005
2106.16624,-0.00008
2104.23752,-0.00007
2102.30880,-0.00002
2100.38007,0.00005
2098.45135,0.00005
2096.52262,0.00001
2094.59390,0.00000
2092.66518,-0.00001
2090.73645,-0.00005
2088.80773,-0.00012
2086.87901,-0.00014
2084.95028,-0.00011
2083.02156,-0.00009
2081.09283,-0.00009
2079.16411,-0.00010
2077.23539,-0.00017
2075.30666,-0.00026
2073.37794,-0.00028
2071.44922,-0.00017
2069.52049,-0.00007
2067.59177,-0.00007
2065.66305,-0.00012
2063.73432,-0.00014
2061.80560,-0.00007
2059.87687,0.00006
2057.94815,0.00019
2056.01943,0.00027
2054.09070,0.00030
2052.16198,0.00037
2050.23326,0.00052
2048.30453,0.00069
2046.37581,0.00086
2044.44709,0.00109
2042.51836,0.00131
2040.58964,0.00144
2038.66091,0.00156
2036.73219,0.00172
2034.80347,0.00194
2032.87474,0.00220
2030.94602,0.00246
2029.01730,0.00265
2027.08857,0.00280
2025.15985,0.00300
2023.23112,0.00328
2021.30240,0.00356
2019.37368,0.00378
2017.44495,0.00389
2015.51623,0.00391
2013.58751,0.00390
2011.65878,0.00395
2009.73006,0.00409
2007.80134,0.00422
2005.87261,0.00429
2003.94389,0.00438
2002.01516,0.00448
2000.08644,0.00447
1998.15772,0.00437
1996.22899,0.00427
1994.30027,0.00427
1992.37155,0.00436
1990.44282,0.00445
1988.51410,0.00445
1986.58538,0.00436
1984.65665,0.00420
1982.72793,0.00401
1980.79920,0.00386
1978.87048,0.00376
1976.94176,0.00363
1975.01303,0.00346
1973.08431,0.00331
1971.15559,0.00318
1969.22686,0.00302
1967.29814,0.00284
1965.36941,0.00268
1963.44069,0.00255
1961.51197,0.00240
1959.58324,0.00223
1957.65452,0.00205
1955.72580,0.00184
1953.79707,0.00160
1951.86835,0.00135
1949.93963,0.00116
1948.01090,0.00104
1946.08218,0.00093
1944.15345,0.00083
1942.22473,0.00073
1940.29601,0.00059
1938.36728,0.00038
1936.43856,0.00020
1934.50984,0.00008
1932.58111,0.00001
1930.65239,-0.00004
1928.72367,-0.00004
1926.79494,0.00000
1924.86622,0.00005
1922.93749,0.00016
1921.00877,0.00029
1919.08005,0.00049
1917.15132,0.00080
1915.22260,0.00110
1913.29388,0.00140
1911.36515,0.00180
1909.43643,0.00229
1907.50770,0.00275
1905.57898,0.00317
1903.65026,0.00364
1901.72153,0.00418
1899.79281,0.00477
1897.86409,0.00537
1895.93536,0.00594
1894.00664,0.00641
1892.07792,0.00682
1890.14919,0.00731
1888.22047,0.00783
1886.29174,0.00824
1884.36302,0.00855
1882.43430,0.00883
1880.50557,0.00905
1878.57685,0.00920
1876.64813,0.00927
1874.71940,0.00931
1872.79068,0.00933
1870.86196,0.00940
1868.93323,0.00947
1867.00451,0.00935
1865.07578,0.00895
1863.14706,0.00840
1861.21834,0.00780
1859.28961,0.00721
1857.36089,0.00661
1855.43217,0.00602
1853.50344,0.00545
1851.57472,0.00490
1849.64599,0.00438
1847.71727,0.00388
1845.78855,0.00339
1843.85982,0.00293
1841.93110,0.00250
1840.00238,0.00208
1838.07365,0.00165
1836.14493,0.00127
1834.21621,0.00096
1832.28748,0.00076
1830.35876,0.00062
1828.43003,0.00041
1826.50131,0.00016
1824.57259,0.00000
1822.64386,-0.00010
1820.71514,-0.00013
1818.78642,-0.00009
1816.85769,-0.00005
1814.92897,0.00000
1813.00025,-0.00001
1811.07152,0.00005
1809.14280,0.00013
1807.21407,0.00023
1805.28535,0.00041
1803.35663,0.00071
1801.42790,0.00116
1799.49918,0.00168
1797.57046,0.00214
1795.64173,0.00258
1793.71301,0.00326
1791.78428,0.00422
1789.85556,0.00508
1787.92684,0.00563
1785.99811,0.00621
1784.06939,0.00706
1782.14067,0.00811
1780.21194,0.00923
1778.28322,0.01027
1776.35450,0.01117
1774.42577,0.01215
1772.49705,0.01342
1770.56832,0.01468
1768.63960,0.01567
1766.71088,0.01653
1764.78215,0.01743
1762.85343,0.01853
1760.92471,0.01986
1758.99598,0.02119
1757.06726,0.02254
1755.13854,0.02383
1753.20981,0.02505
1751.28109,0.02665
1749.35236,0.02875
1747.42364,0.03080
1745.49492,0.03258
1743.56619,0.03437
1741.63747,0.03642
1739.70875,0.03863
1737.78002,0.04058
1735.85130,0.04248
1733.92257,0.04508
1731.99385,0.04785
1730.06513,0.04999
1728.13640,0.05176
1726.20768,0.05354
1724.27896,0.05542
1722.35023,0.05720
1720.42151,0.05885
1718.49279,0.06106
1716.56406,0.06406
1714.63534,0.06680
1712.70661,0.06888
1710.77789,0.07072
1708.84917,0.07274
1706.92044,0.07531
1704.99172,0.07822
1703.06300,0.08094
1701.13427,0.08415
1699.20555,0.08843
1697.27683,0.09288
1695.34810,0.09703
1693.41938,0.10057
1691.49065,0.10369
1689.56193,0.10699
1687.63321,0.11033
1685.70448,0.11424
1683.77576,0.11954
1681.84704,0.12447
1679.91831,0.12786
1677.98959,0.13079
1676.06087,0.13430
1674.13214,0.13821
1672.20342,0.14177
1670.27469,0.14536
1668.34597,0.14906
1666.41725,0.15196
1664.48852,0.15445
1662.55980,0.15736
1660.63108,0.16015
1658.70235,0.16196
1656.77363,0.16298
1654.84490,0.16439
1652.91618,0.16700
1650.98746,0.16913
1649.05873,0.17005
1647.13001,0.17092
1645.20129,0.17205
1643.27256,0.17281
1641.34384,0.17320
1639.41512,0.17339
1637.48639,0.17360
1635.55767,0.17393
1633.62894,0.17389
1631.70022,0.17331
1629.77150,0.17242
1627.84277,0.17134
1625.91405,0.16998
1623.98533,0.16825
1622.05660,0.16627
1620.12788,0.16417
1618.19916,0.16168
1616.27043,0.15867
1614.34171,0.15573
1612.41298,0.15308
1610.48426,0.15040
1608.55554,0.14756
1606.62681,0.14473
1604.69809,0.14201
1602.76937,0.13934
1600.84064,0.13675
1598.91192,0.13435
1596.98319,0.13217
1595.05447,0.13006
1593.12575,0.12790
1591.19702,0.12571
1589.26830,0.12355
1587.33958,0.12146
1585.41085,0.11950
1583.48213,0.11764
1581.55341,0.11589
1579.62468,0.11429
1577.69596,0.11279
1575.76723,0.11135
1573.83851,0.11006
1571.90979,0.10886
1569.98106,0.10765
1568.05234,0.10647
1566.12362,0.10538
1564.19489,0.10433
1562.26617,0.10327
1560.33745,0.10235
1558.40872,0.10166
1556.48000,0.10093
1554.55127,0.10011
1552.62255,0.09928
1550.69383,0.09836
1548.76510,0.09723
1546.83638,0.09601
1544.90766,0.09480
1542.97893,0.09342
1541.05021,0.09156
1539.12148,0.08946
1537.19276,0.08773
1535.26404,0.08607
1533.33531,0.08406
1531.40659,0.08194
1529.47787,0.07994
1527.54914,0.07787
1525.62042,0.07565
1523.69170,0.07334
1521.76297,0.07080
1519.83425,0.06813
1517.90552,0.06554
1515.97680,0.06295
1514.04808,0.06051
1512.11935,0.05832
1510.19063,0.05620
1508.26191,0.05358
1506.33318,0.05022
1504.40446,0.04729
1502.47574,0.04513
1500.54701,0.04306
1498.61829,0.04076
1496.68956,0.03850
1494.76084,0.03668
1492.83212,0.03536
1490.90339,0.03440
1488.97467,0.03382
1487.04595,0.03361
1485.11722,0.03362
1483.18850,0.03391
1481.25977,0.03457
1479.33105,0.03558
1477.40233,0.03694
1475.47360,0.03901
1473.54488,0.04231
1471.61616,0.04635
1469.68743,0.04949
1467.75871,0.05149
1465.82999,0.05316
1463.90126,0.05459
1461.97254,0.05538
1460.04381,0.05580
1458.11509,0.05667
1456.18637,0.05792
1454.25764,0.05856
1452.32892,0.05861
1450.40020,0.05856
1448.47147,0.05866
1446.54275,0.05891
1444.61403,0.05923
1442.68530,0.05955
1440.75658,0.05985
1438.82785,0.06024
1436.89913,0.06088
1434.97041,0.06157
1433.04168,0.06201
1431.11296,0.06241
1429.18424,0.06301
1427.25551,0.06373
1425.32679,0.06453
1423.39806,0.06533
1421.46934,0.06609
1419.54062,0.06703
1417.61189,0.06809
1415.68317,0.06882
1413.75445,0.06940
1411.82572,0.07015
1409.89700,0.07107
1407.96828,0.07198
1406.03955,0.07285
1404.11083,0.07353
1402.18210,0.07370
1400.25338,0.07316
1398.32466,0.07195
1396.39593,0.07023
1394.46721,0.06823
1392.53849,0.06622
1390.60976,0.06439
1388.68104,0.06277
1386.75232,0.06140
1384.82359,0.06031
1382.89487,0.05932
1380.96614,0.05823
1379.03742,0.05699
1377.10870,0.05557
1375.17997,0.05406
1373.25125,0.05263
1371.32253,0.05136
1369.39380,0.05008
1367.46508,0.04867
1365.53635,0.04718
1363.60763,0.04575
1361.67891,0.04447
1359.75018,0.04335
1357.82146,0.04237
1355.89274,0.04148
1353.96401,0.04066
1352.03529,0.03990
1350.10657,0.03928
1348.17784,0.03879
1346.24912,0.03833
1344.32039,0.03782
1342.39167,0.03732
1340.46295,0.03692
1338.53422,0.03663
1336.60550,0.03637
1334.67678,0.03612
1332.74805,0.03589
1330.81933,0.03571
1328.89061,0.03564
1326.96188,0.03571
1325.03316,0.03581
1323.10443,0.03586
1321.17571,0.03594
1319.24699,0.03616
1317.31826,0.03645
1315.38954,0.03669
1313.46082,0.03691
1311.53209,0.03715
1309.60337,0.03749
1307.67464,0.03799
1305.74592,0.03864
1303.81720,0.03945
1301.88847,0.04041
1299.95975,0.04142
1298.03103,0.04250
1296.10230,0.04378
1294.17358,0.04529
1292.24486,0.04697
1290.31613,0.04881
1288.38741,0.05094
1286.45868,0.05346
1284.52996,0.05625
1282.60124,0.05915
1280.67251,0.06225
1278.74379,0.06567
1276.81507,0.06941
1274.88634,0.07353
1272.95762,0.07827
1271.02890,0.08368
1269.10017,0.08958
1267.17145,0.09599
1265.24272,0.10307
1263.31400,0.11102
1261.38528,0.12006
1259.45655,0.13030
1257.52783,0.14142
1255.59911,0.15304
1253.67038,0.16494
1251.74166,0.17683
1249.81294,0.18835
1247.88421,0.19932
1245.95549,0.20960
1244.02676,0.21905
1242.09804,0.22771
1240.16932,0.23562
1238.24059,0.24266
1236.31187,0.24867
1234.38315,0.25400
1232.45442,0.25915
1230.52570,0.26399
1228.59697,0.26827
1226.66825,0.27209
1224.73953,0.27562
1222.81080,0.27884
1220.88208,0.28188
1218.95336,0.28474
1217.02463,0.28732
1215.09591,0.28981
1213.16719,0.29234
1211.23846,0.29466
1209.30974,0.29674
1207.38101,0.29891
1205.45229,0.30143
1203.52357,0.30416
1201.59484,0.30677
1199.66612,0.30906
1197.73740,0.31099
1195.80867,0.31272
1193.87995,0.31470
1191.95123,0.31707
1190.02250,0.31939
1188.09378,0.32131
1186.16505,0.32314
1184.23633,0.32509
1182.30761,0.32667
1180.37888,0.32794
1178.45016,0.32939
1176.52144,0.33112
1174.59271,0.33311
1172.66399,0.33540
1170.73526,0.33770
1168.80654,0.33964
1166.87782,0.34130
1164.94909,0.34314
1163.02037,0.34516
1161.09165,0.34695
1159.16292,0.34851
1157.23420,0.35018
1155.30548,0.35203
1153.37675,0.35392
1151.44803,0.35569
1149.51930,0.35714
1147.59058,0.35854
1145.66186,0.36042
1143.73313,0.36269
1141.80441,0.36466
1139.87569,0.36633
1137.94696,0.36813
1136.01824,0.37011
1134.08952,0.37230
1132.16079,0.37484
1130.23207,0.37773
1128.30334,0.38070
1126.37462,0.38361
1124.44590,0.38671
1122.51717,0.39046
1120.58845,0.39527
1118.65973,0.40063
1116.73100,0.40594
1114.80228,0.41155
1112.87355,0.41773
1110.94483,0.42456
1109.01611,0.43197
1107.08738,0.43952
1105.15866,0.44693
1103.22994,0.45397
1101.30121,0.46015
1099.37249,0.46539
1097.44377,0.46936
1095.51504,0.47161
1093.58632,0.47291
1091.65759,0.47415
1089.72887,0.47516
1087.80015,0.47539
1085.87142,0.47502
1083.94270,0.47422
1082.01398,0.47278
1080.08525,0.47064
1078.15653,0.46790
1076.22781,0.46497
1074.29908,0.46162
1072.37036,0.45775
1070.44163,0.45416
1068.51291,0.45051
1066.58419,0.44599
1064.65546,0.44110
1062.72674,0.43613
1060.79802,0.43083
1058.86929,0.42519
1056.94057,0.41910
1055.01184,0.41261
1053.08312,0.40581
1051.15440,0.39826
1049.22567,0.39004
1047.29695,0.38194
1045.36823,0.37409
1043.43950,0.36616
1041.51078,0.35846
1039.58206,0.35124
1037.65333,0.34389
1035.72461,0.33600
1033.79588,0.32782
1031.86716,0.31971
1029.93844,0.31175
1028.00971,0.30391
1026.08099,0.29653
1024.15227,0.28981
1022.22354,0.28344
1020.29482,0.27727
1018.36610,0.27156
1016.43737,0.26631
1014.50865,0.26147
1012.57992,0.25716
1010.65120,0.25319
1008.72248,0.24911
1006.79375,0.24490
1004.86503,0.24090
1002.93631,0.23726
1001.00758,0.23394
999.07886,0.23105
997.15013,0.22846
995.22141,0.22584
993.29269,0.22323
991.36396,0.22090
989.43524,0.21883
987.50652,0.21688
985.57779,0.21506
983.64907,0.21357
981.72035,0.21252
979.79162,0.21166
977.86290,0.21091
975.93417,0.21068
974.00545,0.21100
972.07673,0.21121
970.14800,0.21110
968.21928,0.21092
966.29056,0.21067
964.36183,0.21021
962.43311,0.20973
960.50439,0.20938
958.57566,0.20870
956.64694,0.20755
954.71821,0.20642
952.78949,0.20556
950.86077,0.20464
948.93204,0.20326
947.00332,0.20154
945.07460,0.19985
943.14587,0.19812
941.21715,0.19593
939.28842,0.19331
937.35970,0.19063
935.43098,0.18799
933.50225,0.18517
931.57353,0.18202
929.64481,0.17853
927.71608,0.17496
925.78736,0.17135
923.85864,0.16735
921.92991,0.16315
920.00119,0.15926
918.07246,0.15546
916.14374,0.15142
914.21502,0.14727
912.28629,0.14310
910.35757,0.13888
908.42885,0.13462
906.50012,0.13025
904.57140,0.12592
902.64268,0.12198
900.71395,0.11833
898.78523,0.11466
896.85650,0.11100
894.92778,0.10761
892.99906,0.10442
891.07033,0.10113
889.14161,0.09789
887.21289,0.09492
885.28416,0.09194
883.35544,0.08888
881.42671,0.08623
879.49799,0.08409
877.56927,0.08183
875.64054,0.07940
873.71182,0.07748
871.78310,0.07580
869.85437,0.07363
867.92565,0.07133
865.99693,0.06952
864.06820,0.06810
862.13948,0.06674
860.21075,0.06531
858.28203,0.06389
856.35331,0.06261
854.42458,0.06155
852.49586,0.06082
850.56714,0.06044
848.63841,0.06065
846.70969,0.06167
844.78097,0.06327
842.85224,0.06518
840.92352,0.06733
838.99479,0.06973
837.06607,0.07246
835.13735,0.07560
833.20862,0.07927
831.27990,0.08321
829.35118,0.08675
827.42245,0.08978
825.49373,0.09286
823.56501,0.09612
821.63628,0.09919
819.70756,0.10217
817.77883,0.10535
815.85011,0.10873
813.92139,0.11222
811.99266,0.11559
810.06394,0.11845
808.13522,0.12092
806.20649,0.12327
804.27777,0.12526
802.34904,0.12667
800.42032,0.12750
798.49160,0.12771
796.56287,0.12736
794.63415,0.12666
792.70543,0.12563
790.77670,0.12422
788.84798,0.12235
786.91926,0.12005
784.99053,0.11730
783.06181,0.11393
781.13308,0.11015
779.20436,0.10617
777.27564,0.10189
775.34691,0.09759
773.41819,0.09381
771.48947,0.09070
769.56074,0.08809
767.63202,0.08592
765.70330,0.08423
763.77457,0.08305
761.84585,0.08217
759.91712,0.08145
757.98840,0.08075
756.05968,0.07997
754.13095,0.07952
752.20223,0.07976
750.27351,0.08024
748.34478,0.08021
746.41606,0.07949
744.48733,0.07889
742.55861,0.07894
740.62989,0.07932
738.70116,0.07962
736.77244,0.07989
734.84372,0.08017
732.91499,0.08007
730.98627,0.07972
729.05755,0.07993
727.12882,0.08074
725.20010,0.08152
723.27137,0.08217
721.34265,0.08261
719.41393,0.08287
717.48520,0.08295
715.55648,0.08304
713.62776,0.08357
711.69903,0.08472
709.77031,0.08622
707.84159,0.08766
705.91286,0.08876
703.98414,0.08964
702.05541,0.09074
700.12669,0.09227
698.19797,0.09378
696.26924,0.09478
694.34052,0.09559
692.41180,0.09647
690.48307,0.09695
688.55435,0.09697
686.62562,0.09713
684.69690,0.09744
682.76818,0.09750
680.83945,0.09745
678.91073,0.09757
676.98201,0.09793
675.05328,0.09834
673.12456,0.09839
671.19584,0.09791
669.26711,0.09729
667.33839,0.09724
665.40966,0.09793
663.48094,0.09905
661.55222,0.10028
659.62349,0.10136
657.69477,0.10247
655.76605,0.10383
653.83732,0.10528
651.90860,0.10650
649.97988,0.10750
648.05115,0.10861
646.12243,0.11000
644.19370,0.11138
642.26498,0.11246
640.33626,0.11345
638.40753,0.11475
636.47881,0.11643
634.55009,0.11804
632.62136,0.11914
630.69264,0.11970
628.76391,0.11994
626.83519,0.12006
624.90647,0.12034
622.97774,0.12091
621.04902,0.12196
619.12030,0.12390
617.19157,0.12600
615.26285,0.12694
613.33413,0.12709
611.40540,0.12793
609.47668,0.12986
607.54795,0.13191
605.61923,0.13357
603.69051,0.13497
601.76178,0.13625
599.83306,0.13757
597.90434,0.13895
595.97561,0.14053
594.04689,0.14251
592.11817,0.14433
590.18944,0.14548
588.26072,0.14603
586.33199,0.14606
584.40327,0.14633
582.47455,0.14804
580.54582,0.15043
578.61710,0.15202
576.68838,0.15284
574.75965,0.15297
572.83093,0.15229
570.90220,0.15148
568.97348,0.15119
567.04476,0.15175
565.11603,0.15275
563.18731,0.15306
561.25859,0.15276
559.32986,0.15264
557.40114,0.15291
555.47242,0.15407
553.54369,0.15591
551.61497,0.15728
549.68624,0.15820
547.75752,0.15890
545.82880,0.15882
543.90007,0.15822
541.97135,0.15759
540.04263,0.15703
538.11390,0.15702
536.18518,0.15721
534.25646,0.15596
532.32773,0.15345
530.39901,0.15235
528.47028,0.15351
526.54156,0.15468
524.61284,0.15428
522.68411,0.15342
520.75539,0.15382
518.82667,0.15586
516.89794,0.15807
514.96922,0.15869
513.04049,0.15890
511.11177,0.16083
509.18305,0.16371
507.25432,0.16629
505.32560,0.16936
503.39688,0.17434
501.46815,0.18212
499.53943,0.19167
497.61071,0.20001
495.68198,0.20573
493.75326,0.21124
491.82453,0.21843
489.89581,0.22505
487.96709,0.23016
486.03836,0.23704
484.10964,0.24612
482.18092,0.25295
480.25219,0.25742
478.32347,0.26335
476.39475,0.26987
474.46602,0.27499
472.53730,0.28131
470.60857,0.29075
468.67985,0.30007
466.75113,0.30464
464.82240,0.30440
462.89368,0.30263
460.96496,0.29884
459.03623,0.29168
457.10751,0.28518
455.17878,0.28172
453.25006,0.27692
451.32134,0.26854
449.39261,0.26042
447.46389,0.25585
445.53517,0.25322
443.60644,0.24975
441.67772,0.24365
439.74900,0.23522
437.82027,0.22792
435.89155,0.22277
433.96282,0.21731
432.03410,0.21147
430.10538,0.20586
428.17665,0.19975
426.24793,0.19418
424.31921,0.18987
422.39048,0.18389
420.46176,0.17300
418.53304,0.15903
416.60431,0.14811
414.67559,0.14252
412.74686,0.14096
410.81814,0.13972
408.88942,0.13333
406.96069,0.12471
405.03197,0.12304
403.10325,0.12554
401.17452,0.12603
399.24580,0.13669
397.31708,0.15988
395.38835,0.15955
393.45963,0.13033
391.53090,0.10352
389.60218,0.08634
387.67346,0.07296
385.74473,0.07449
383.81601,0.08948
381.88729,0.08762
379.95856,0.06232
378.02984,0.03061
376.10111,0.00000
374.17239,-0.03267
372.24367,-0.00682
370.31494,0.02011
368.38622,0.00000
