3996.31543,0.00004
3994.38671,0.00000
3992.45799,0.00011
3990.52926,0.00028
3988.60054,0.00033
3986.67182,0.00025
3984.74309,0.00016
3982.81437,0.00016
3980.88564,0.00026
3978.95692,0.00038
3977.02820,0.00047
3975.09947,0.00053
3973.17075,0.00059
3971.24203,0.00067
3969.31330,0.00071
3967.38458,0.00072
3965.45586,0.00071
3963.52713,0.00064
3961.59841,0.00053
3959.66968,0.00056
3957.74096,0.00076
3955.81224,0.00086
3953.88351,0.00073
3951.95479,0.00057
3950.02607,0.00066
3948.09734,0.00092
3946.16862,0.00105
3944.23990,0.00093
3942.31117,0.00076
3940.38245,0.00062
3938.45372,0.00050
3936.52500,0.00047
3934.59628,0.00060
3932.66755,0.00096
3930.73883,0.00130
3928.81011,0.00128
3926.88138,0.00101
3924.95266,0.00086
3923.02393,0.00082
3921.09521,0.00069
3919.16649,0.00067
3917.23776,0.00097
3915.30904,0.00125
3913.38032,0.00109
3911.45159,0.00066
3909.52287,0.00030
3907.59415,0.00016
3905.66542,0.00029
3903.73670,0.00060
3901.80797,0.00077
3899.87925,0.00080
3897.95053,0.00078
3896.02180,0.00060
3894.09308,0.00044
3892.16436,0.00057
3890.23563,0.00074
3888.30691,0.00067
3886.37819,0.00059
3884.44946,0.00060
3882.52074,0.00060
3880.59201,0.00074
3878.66329,0.00091
3876.73457,0.00082
3874.80584,0.00064
3872.87712,0.00054
3870.94840,0.00056
3869.01967,0.00068
3867.09095,0.00074
3865.16222,0.00089
3863.23350,0.00124
3861.30478,0.00137
3859.37605,0.00104
3857.44733,0.00041
3855.51861,0.00000
3853.58988,0.00046
3851.66116,0.00137
3849.73244,0.00157
3847.80371,0.00113
3845.87499,0.00058
3843.94626,0.00026
3842.01754,0.00028
3840.08882,0.00060
3838.16009,0.00113
3836.23137,0.00143
3834.30265,0.00127
3832.37392,0.00102
3830.44520,0.00099
3828.51648,0.00110
3826.58775,0.00121
3824.65903,0.00121
3822.73030,0.00124
3820.80158,0.00153
3818.87286,0.00174
3816.94413,0.00184
3815.01541,0.00202
3813.08669,0.00192
3811.15796,0.00149
3809.22924,0.00123
3807.30052,0.00148
3805.37179,0.00181
3803.44307,0.00204
3801.51434,0.00247
3799.58562,0.00285
3797.65690,0.00287
3795.72817,0.00285
3793.79945,0.00282
3791.87073,0.00265
3789.94200,0.00255
3788.01328,0.00269
3786.08455,0.00301
3784.15583,0.00330
3782.22711,0.00347
3780.29838,0.00370
3778.36966,0.00401
3776.44094,0.00413
3774.51221,0.00410
3772.58349,0.00424
3770.65477,0.00471
3768.72604,0.00532
3766.79732,0.00584
3764.86859,0.00624
3762.93987,0.00646
3761.01115,0.00646
3759.08242,0.00646
3757.15370,0.00653
3755.22498,0.00669
3753.29625,0.00727
3751.36753,0.00847
3749.43881,0.00947
3747.51008,0.00968
3745.58136,0.01004
3743.65263,0.01096
3741.72391,0.01146
3739.79519,0.01139
3737.86646,0.01162
3735.93774,0.01272
3734.00902,0.01437
3732.08029,0.01589
3730.15157,0.01694
3728.22284,0.01774
3726.29412,0.01872
3724.36540,0.02009
3722.43667,0.02191
3720.50795,0.02404
3718.57923,0.02600
3716.65050,0.02743
3714.72178,0.02882
3712.79306,0.03127
3710.86433,0.03505
3708.93561,0.03866
3707.00688,0.04119
3705.07816,0.04336
3703.14944,0.04621
3701.22071,0.04988
3699.29199,0.05353
3697.36327,0.05672
3695.43454,0.05961
3693.50582,0.06226
3691.57710,0.06516
3689.64837,0.06914
3687.71965,0.07381
3685.79092,0.07790
3683.86220,0.08139
3681.93348,0.08488
3680.00475,0.08844
3678.07603,0.09235
3676.14731,0.09743
3674.21858,0.10284
3672.28986,0.10698
3670.36113,0.11107
3668.43241,0.11564
3666.50369,0.11933
3664.57496,0.12226
3662.64624,0.12529
3660.71752,0.12847
3658.78879,0.13179
3656.86007,0.13553
3654.93135,0.13910
3653.00262,0.14163
3651.07390,0.14417
3649.14517,0.14819
3647.21645,0.15250
3645.28773,0.15531
3643.35900,0.15717
3641.43028,0.15917
3639.50156,0.16150
3637.57283,0.16385
3635.64411,0.16611
3633.71539,0.16822
3631.78666,0.17030
3629.85794,0.17328
3627.92921,0.17718
3626.00049,0.17991
3624.07177,0.18101
3622.14304,0.18190
3620.21432,0.18358
3618.28560,0.18563
3616.35687,0.18696
3614.42815,0.18770
3612.49942,0.18861
3610.57070,0.18984
3608.64198,0.19141
3606.71325,0.19327
3604.78453,0.19488
3602.85581,0.19608
3600.92708,0.19712
3598.99836,0.19811
3597.06964,0.19919
3595.14091,0.20066
3593.21219,0.20220
3591.28346,0.20332
3589.35474,0.20452
3587.42602,0.20649
3585.49729,0.20846
3583.56857,0.20963
3581.63985,0.21044
3579.71112,0.21136
3577.78240,0.21236
3575.85368,0.21336
3573.92495,0.21437
3571.99623,0.21528
3570.06750,0.21612
3568.13878,0.21742
3566.21006,0.21934
3564.28133,0.22087
3562.35261,0.22152
3560.42389,0.22206
3558.49516,0.22295
3556.56644,0.22393
3554.63771,0.22485
3552.70899,0.22581
3550.78027,0.22661
3548.85154,0.22726
3546.92282,0.22824
3544.99410,0.22962
3543.06537,0.23076
3541.13665,0.23136
3539.20793,0.23183
3537.27920,0.23255
3535.35048,0.23340
3533.42175,0.23410
3531.49303,0.23467
3529.56431,0.23527
3527.63558,0.23595
3525.70686,0.23669
3523.77814,0.23749
3521.84941,0.23834
3519.92069,0.23914
3517.99197,0.23981
3516.06324,0.24039
3514.13452,0.24093
3512.20579,0.24152
3510.27707,0.24232
3508.34835,0.24332
3506.41962,0.24427
3504.49090,0.24518
3502.56218,0.24605
3500.63345,0.24663
3498.70473,0.24696
3496.77600,0.24728
3494.84728,0.24770
3492.91856,0.24834
3490.98983,0.24915
3489.06111,0.24996
3487.13239,0.25061
3485.20366,0.25116
3483.27494,0.25169
3481.34622,0.25221
3479.41749,0.25277
3477.48877,0.25340
3475.56004,0.25399
3473.63132,0.25449
3471.70260,0.25506
3469.77387,0.25569
3467.84515,0.25629
3465.91643,0.25687
3463.98770,0.25735
3462.05898,0.25760
3460.13026,0.25785
3458.20153,0.25826
3456.27281,0.25870
3454.34408,0.25903
3452.41536,0.25929
3450.48664,0.25965
3448.55791,0.26019
3446.62919,0.26078
3444.70047,0.26128
3442.77174,0.26167
3440.84302,0.26188
3438.91429,0.26198
3436.98557,0.26215
3435.05685,0.26242
3433.12812,0.26282
3431.19940,0.26325
3429.27068,0.26351
3427.34195,0.26357
3425.41323,0.26357
3423.48451,0.26365
3421.55578,0.26390
3419.62706,0.26428
3417.69833,0.26446
3415.76961,0.26441
3413.84089,0.26454
3411.91216,0.26483
3409.98344,0.26492
3408.05472,0.26477
3406.12599,0.26457
3404.19727,0.26435
3402.26855,0.26425
3400.33982,0.26443
3398.41110,0.26467
3396.48237,0.26469
3394.55365,0.26448
3392.62493,0.26410
3390.69620,0.26362
3388.76748,0.26315
3386.83876,0.26271
3384.91003,0.26235
3382.98131,0.26215
3381.05259,0.26194
3379.12386,0.26156
3377.19514,0.26107
3375.26641,0.26080
3373.33769,0.26089
3371.40897,0.26097
3369.48024,0.26072
3367.55152,0.26016
3365.62280,0.25950
3363.69407,0.25891
3361.76535,0.25835
3359.83662,0.25775
3357.90790,0.25721
3355.97918,0.25671
3354.05045,0.25619
3352.12173,0.25581
3350.19301,0.25563
3348.26428,0.25532
3346.33556,0.25473
3344.40684,0.25411
3342.47811,0.25356
3340.54939,0.25291
3338.62066,0.25219
3336.69194,0.25167
3334.76322,0.25139
3332.83449,0.25110
3330.90577,0.25066
3328.97705,0.25017
3327.04832,0.24967
3325.11960,0.24913
3323.19088,0.24858
3321.26215,0.24810
3319.33343,0.24768
3317.40470,0.24719
3315.47598,0.24663
3313.54726,0.24617
3311.61853,0.24581
3309.68981,0.24540
3307.76109,0.24496
3305.83236,0.24458
3303.90364,0.24416
3301.97491,0.24365
3300.04619,0.24312
3298.11747,0.24255
3296.18874,0.24191
3294.26002,0.24133
3292.33130,0.24090
3290.40257,0.24051
3288.47385,0.24002
3286.54513,0.23959
3284.61640,0.23932
3282.68768,0.23902
3280.75895,0.23856
3278.83023,0.23804
3276.90151,0.23754
3274.97278,0.23710
3273.04406,0.23667
3271.11534,0.23622
3269.18661,0.23568
3267.25789,0.23510
3265.32917,0.23472
3263.40044,0.23457
3261.47172,0.23435
3259.54299,0.23387
3257.61427,0.23327
3255.68555,0.23274
3253.75682,0.23237
3251.82810,0.23206
3249.89938,0.23163
3247.97065,0.23101
3246.04193,0.23037
3244.11320,0.22981
3242.18448,0.22933
3240.25576,0.22883
3238.32703,0.22824
3236.39831,0.22758
3234.46959,0.22697
3232.54086,0.22643
3230.61214,0.22581
3228.68342,0.22507
3226.75469,0.22428
3224.82597,0.22356
3222.89724,0.22299
3220.96852,0.22251
3219.03980,0.22202
3217.11107,0.22136
3215.18235,0.22047
3213.25363,0.21956
3211.32490,0.21883
3209.39618,0.21813
3207.46746,0.21726
3205.53873,0.21633
3203.61001,0.21556
3201.68128,0.21498
3199.75256,0.21440
3197.82384,0.21356
3195.89511,0.21255
3193.96639,0.21158
3192.03767,0.21073
3190.10894,0.20988
3188.18022,0.20907
3186.25149,0.20839
3184.32277,0.20768
3182.39405,0.20680
3180.46532,0.20583
3178.53660,0.20492
3176.60788,0.20411
3174.67915,0.20342
3172.75043,0.20272
3170.82171,0.20193
3168.89298,0.20100
3166.96426,0.19988
3165.03553,0.19883
3163.10681,0.19800
3161.17809,0.19722
3159.24936,0.19635
3157.32064,0.19554
3155.39192,0.19483
3153.46319,0.19407
3151.53447,0.19317
3149.60575,0.19231
3147.67702,0.19153
3145.74830,0.19068
3143.81957,0.18965
3141.89085,0.18863
3139.96213,0.18775
3138.03340,0.18690
3136.10468,0.18601
3134.17596,0.18507
3132.24723,0.18410
3130.31851,0.18319
3128.38978,0.18231
3126.46106,0.18133
3124.53234,0.18036
3122.60361,0.17950
3120.67489,0.17875
3118.74617,0.17808
3116.81744,0.17733
3114.88872,0.17626
3112.96000,0.17503
3111.03127,0.17394
3109.10255,0.17306
3107.17382,0.17227
3105.24510,0.17147
3103.31638,0.17057
3101.38765,0.16947
3099.45893,0.16827
3097.53021,0.16722
3095.60148,0.16633
3093.67276,0.16543
3091.74404,0.16440
3089.81531,0.16331
3087.88659,0.16236
3085.95786,0.16155
3084.02914,0.16070
3082.10042,0.15967
3080.17169,0.15854
3078.24297,0.15745
3076.31425,0.15644
3074.38552,0.15542
3072.45680,0.15426
3070.52807,0.15297
3068.59935,0.15178
3066.67063,0.15089
3064.74190,0.15012
3062.81318,0.14928
3060.88446,0.14839
3058.95573,0.14744
3057.02701,0.14637
3055.09829,0.14530
3053.16956,0.14431
3051.24084,0.14331
3049.31211,0.14224
3047.38339,0.14120
3045.45467,0.14038
3043.52594,0.13972
3041.59722,0.13898
3039.66850,0.13800
3037.73977,0.13687
3035.81105,0.13579
3033.88233,0.13484
3031.95360,0.13399
3030.02488,0.13331
3028.09615,0.13268
3026.16743,0.13191
3024.23871,0.13107
3022.30998,0.13022
3020.38126,0.12930
3018.45254,0.12832
3016.52381,0.12744
3014.59509,0.12669
3012.66636,0.12597
3010.73764,0.12527
3008.80892,0.12459
3006.88019,0.12389
3004.95147,0.12312
3003.02275,0.12236
3001.09402,0.12167
2999.16530,0.12097
2997.23658,0.12021
2995.30785,0.11958
2993.37913,0.11910
2991.45040,0.11854
2989.52168,0.11788
2987.59296,0.11732
2985.66423,0.11687
2983.73551,0.11651
2981.80679,0.11628
2979.87806,0.11612
2977.94934,0.11578
2976.02062,0.11535
2974.09189,0.11518
2972.16317,0.11532
2970.23444,0.11562
2968.30572,0.11594
2966.37700,0.11613
2964.44827,0.11609
2962.51955,0.11581
2960.59083,0.11539
2958.66210,0.11491
2956.73338,0.11428
2954.80466,0.11347
2952.87593,0.11259
2950.94721,0.11176
2949.01848,0.11115
2947.08976,0.11082
2945.16104,0.11070
2943.23231,0.11073
2941.30359,0.11085
2939.37487,0.11103
2937.44614,0.11140
2935.51742,0.11191
2933.58869,0.11235
2931.65997,0.11265
2929.73125,0.11281
2927.80252,0.11273
2925.87380,0.11229
2923.94508,0.11131
2922.01635,0.10971
2920.08763,0.10778
2918.15891,0.10584
2916.23018,0.10402
2914.30146,0.10222
2912.37273,0.10045
2910.44401,0.09886
2908.51529,0.09742
2906.58656,0.09598
2904.65784,0.09456
2902.72912,0.09319
2900.80039,0.09187
2898.87167,0.09069
2896.94295,0.08959
2895.01422,0.08841
2893.08550,0.08718
2891.15677,0.08602
2889.22805,0.08499
2887.29933,0.08407
2885.37060,0.08325
2883.44188,0.08253
2881.51316,0.08187
2879.58443,0.08132
2877.65571,0.08095
2875.72698,0.08065
2873.79826,0.08025
2871.86954,0.07970
2869.94081,0.07910
2868.01209,0.07855
2866.08337,0.07809
2864.15464,0.07781
2862.22592,0.07781
2860.29720,0.07800
2858.36847,0.07815
2856.43975,0.07814
2854.51102,0.07794
2852.58230,0.07727
2850.65358,0.07583
2848.72485,0.07377
2846.79613,0.07155
2844.86741,0.06940
2842.93868,0.06744
2841.00996,0.06574
2839.08124,0.06420
2837.15251,0.06270
2835.22379,0.06132
2833.29506,0.06027
2831.36634,0.05946
2829.43762,0.05873
2827.50889,0.05802
2825.58017,0.05725
2823.65145,0.05631
2821.72272,0.05544
2819.79400,0.05478
2817.86527,0.05416
2815.93655,0.05350
2814.00783,0.05292
2812.07910,0.05245
2810.15038,0.05197
2808.22166,0.05133
2806.29293,0.05063
2804.36421,0.05008
2802.43549,0.04955
2800.50676,0.04887
2798.57804,0.04817
2796.64931,0.04754
2794.72059,0.04694
2792.79187,0.04639
2790.86314,0.04592
2788.93442,0.04544
2787.00570,0.04489
2785.07697,0.04431
2783.14825,0.04371
2781.21953,0.04308
2779.29080,0.04258
2777.36208,0.04221
2775.43335,0.04180
2773.50463,0.04128
2771.57591,0.04071
2769.64718,0.04017
2767.71846,0.03970
2765.78974,0.03921
2763.86101,0.03866
2761.93229,0.03811
2760.00356,0.03765
2758.07484,0.03725
2756.14612,0.03684
2754.21739,0.03640
2752.28867,0.03591
2750.35995,0.03545
2748.43122,0.03504
2746.50250,0.03454
2744.57378,0.03395
2742.64505,0.03346
2740.71633,0.03313
2738.78760,0.03283
2736.85888,0.03244
2734.93016,0.03197
2733.00143,0.03145
2731.07271,0.03097
2729.14399,0.03056
2727.21526,0.03018
2725.28654,0.02980
2723.35782,0.02942
2721.42909,0.02904
2719.50037,0.02866
2717.57164,0.02822
2715.64292,0.02771
2713.71420,0.02722
2711.78547,0.02681
2709.85675,0.02647
2707.92803,0.02613
2705.99930,0.02575
2704.07058,0.02533
2702.14185,0.02491
2700.21313,0.02456
2698.28441,0.02423
2696.35568,0.02387
2694.42696,0.02352
2692.49824,0.02324
2690.56951,0.02301
2688.64079,0.02270
2686.71207,0.02229
2684.78334,0.02183
2682.85462,0.02150
2680.92589,0.02129
2678.99717,0.02101
2677.06845,0.02062
2675.13972,0.02023
2673.21100,0.01989
2671.28228,0.01956
2669.35355,0.01918
2667.42483,0.01878
2665.49611,0.01842
2663.56738,0.01807
2661.63866,0.01778
2659.70993,0.01754
2657.78121,0.01726
2655.85249,0.01696
2653.92376,0.01668
2651.99504,0.01636
2650.06632,0.01599
2648.13759,0.01565
2646.20887,0.01536
2644.28014,0.01509
2642.35142,0.01486
2640.42270,0.01464
2638.49397,0.01434
2636.56525,0.01400
2634.63653,0.01368
2632.70780,0.01342
2630.77908,0.01323
2628.85036,0.01303
2626.92163,0.01279
2624.99291,0.01252
2623.06418,0.01223
2621.13546,0.01197
2619.20674,0.01177
2617.27801,0.01155
2615.34929,0.01130
2613.42057,0.01107
2611.49184,0.01088
2609.56312,0.01063
2607.63440,0.01034
2605.70567,0.01014
2603.77695,0.00994
2601.84822,0.00974
2599.91950,0.00958
2597.99078,0.00936
2596.06205,0.00908
2594.13333,0.00883
2592.20461,0.00864
2590.27588,0.00841
2588.34716,0.00811
2586.41843,0.00783
2584.48971,0.00765
2582.56099,0.00754
2580.63226,0.00744
2578.70354,0.00729
2576.77482,0.00711
2574.84609,0.00692
2572.91737,0.00673
2570.98865,0.00655
2569.05992,0.00639
2567.13120,0.00620
2565.20247,0.00595
2563.27375,0.00577
2561.34503,0.00568
2559.41630,0.00550
2557.48758,0.00527
2555.55886,0.00512
2553.63013,0.00498
2551.70141,0.00480
2549.77269,0.00459
2547.84396,0.00442
2545.91524,0.00430
2543.98651,0.00418
2542.05779,0.00397
2540.12907,0.00374
2538.20034,0.00361
2536.27162,0.00360
2534.34290,0.00358
2532.41417,0.00349
2530.48545,0.00333
2528.55673,0.00317
2526.62800,0.00305
2524.69928,0.00293
2522.77055,0.00283
2520.84183,0.00274
2518.91311,0.00264
2516.98438,0.00252
2515.05566,0.00245
2513.12694,0.00239
2511.19821,0.00235
2509.26949,0.00229
2507.34076,0.00217
2505.41204,0.00204
2503.48332,0.00192
2501.55459,0.00180
2499.62587,0.00174
2497.69715,0.00175
2495.76842,0.00171
2493.83970,0.00159
2491.91098,0.00149
2489.98225,0.00145
2488.05353,0.00143
2486.12480,0.00139
2484.19608,0.00131
2482.26736,0.00122
2480.33863,0.00114
2478.40991,0.00102
2476.48119,0.00086
2474.55246,0.00076
2472.62374,0.00078
2470.69502,0.00084
2468.76629,0.00080
2466.83757,0.00069
2464.90884,0.00063
2462.98012,0.00066
2461.05140,0.00067
2459.12267,0.00057
2457.19395,0.00041
2455.26523,0.00030
2453.33650,0.00023
2451.40778,0.00017
2449.47905,0.00016
2447.55033,0.00015
2445.62161,0.00014
2443.69288,0.00016
2441.76416,0.00021
2439.83544,0.00020
2437.90671,0.00010
2435.97799,0.00003
2434.04927,0.00005
2432.12054,0.00020
2430.19182,0.00036
2428.26309,0.00040
2426.33437,0.00034
2424.40565,0.00029
2422.47692,0.00021
2420.54820,0.00008
2418.61948,0.00000
2416.69075,0.00003
2414.76203,0.00009
2412.83331,0.00005
2410.90458,-0.00002
2408.97586,-0.00003
2407.04713,-0.00000
2405.11841,0.00000
2403.18969,-0.00006
2401.26096,-0.00015
2399.33224,-0.00013
2397.40352,-0.00005
2395.47479,-0.00002
2393.54607,-0.00008
2391.61734,-0.00020
2389.68862,-0.00030
2387.75990,-0.00036
2385.83117,-0.00038
2383.90245,-0.00031
2381.97373,-0.00019
2380.04500,-0.00012
2378.11628,-0.00010
2376.18756,-0.00005
2374.25883,0.00000
2372.33011,-0.00001
2370.40138,-0.00002
2368.47266,0.00003
2366.54394,0.00014
2364.61521,0.00030
2362.68649,0.00044
2360.75777,0.00058
2358.82904,0.00072
2356.90032,0.00072
2354.97160,0.00060
2353.04287,0.00057
2351.11415,0.00054
2349.18542,0.00035
2347.25670,0.00012
2345.32798,0.00006
2343.39925,0.00014
2341.47053,0.00024
2339.54181,0.00035
2337.61308,0.00039
2335.68436,0.00039
2333.75563,0.00047
2331.82691,0.00060
2329.89819,0.00061
2327.96946,0.00052
2326.04074,0.00050
2324.11202,0.00056
2322.18329,0.00057
2320.25457,0.00056
2318.32585,0.00054
2316.39712,0.00048
2314.46840,0.00040
2312.53967,0.00032
2310.61095,0.00020
2308.68223,0.00007
2306.75350,0.00000
2304.82478,0.00000
2302.89606,0.00003
2300.96733,0.00008
2299.03861,0.00016
2297.10989,0.00028
2295.18116,0.00033
2293.25244,0.00025
2291.32371,0.00016
2289.39499,0.00017
2287.46627,0.00025
2285.53754,0.00027
2283.60882,0.00023
2281.68010,0.00017
2279.75137,0.00016
2277.82265,0.00018
2275.89392,0.00019
2273.96520,0.00020
2272.03648,0.00020
2270.10775,0.00022
2268.17903,0.00023
2266.25031,0.00022
2264.32158,0.00027
2262.39286,0.00038
2260.46414,0.00044
2258.53541,0.00043
2256.60669,0.00039
2254.67796,0.00034
2252.74924,0.00029
2250.82052,0.00027
2248.89179,0.00035
2246.96307,0.00042
2245.03435,0.00049
2243.10562,0.00052
2241.17690,0.00045
2239.24818,0.00033
2237.31945,0.00026
2235.39073,0.00027
2233.46200,0.00035
2231.53328,0.00036
2229.60456,0.00024
2227.67583,0.00011
2225.74711,0.00011
2223.81839,0.00014
2221.88966,0.00011
2219.96094,0.00008
2218.03221,0.00007
2216.10349,0.00009
2214.17477,0.00010
2212.24604,0.00007
2210.31732,0.00001
2208.38860,-0.00003
2206.45987,0.00000
2204.53115,0.00002
2202.60243,0.00003
2200.67370,-0.00001
2198.74498,-0.00007
2196.81625,-0.00013
2194.88753,-0.00017
2192.95881,-0.00015
2191.03008,-0.00011
2189.10136,-0.00014
2187.17264,-0.00019
2185.24391,-0.00015
2183.31519,-0.00006
2181.38647,-0.00007
2179.45774,-0.00015
2177.52902,-0.00019
2175.60029,-0.00018
2173.67157,-0.00016
2171.74285,-0.00012
2169.81412,-0.00006
2167.88540,-0.00002
2165.95668,-0.00005
2164.02795,-0.00004
2162.09923,0.00010
2160.17050,0.00030
2158.24178,0.00041
2156.31306,0.00039
2154.38433,0.00029
2152.45561,0.00021
2150.52689,0.00020
2148.59816,0.00024
2146.66944,0.00025
2144.74072,0.00028
2142.81199,0.00041
2140.88327,0.00055
2138.95454,0.00056
2137.02582,0.00048
2135.09710,0.00040
2133.16837,0.00034
2131.23965,0.00029
2129.31093,0.00021
2127.38220,0.00015
2125.45348,0.00015
2123.52476,0.00018
2121.59603,0.00019
2119.66731,0.00018
2117.73858,0.00012
2115.80986,0.00004
2113.88114,-0.00000
2111.95241,0.00001
2110.02369,0.00005
2108.09497,0.00011
2106.16624,0.00014
2104.23752,0.00014
2102.30880,0.00010
2100.38007,0.00006
2098.45135,0.00004
2096.52262,0.00004
2094.59390,0.00000
2092.66518,-0.00016
2090.73645,-0.00027
2088.80773,-0.00032
2086.87901,-0.00033
2084.95028,-0.00036
2083.02156,-0.00043
2081.09283,-0.00054
2079.16411,-0.00066
2077.23539,-0.00072
2075.30666,-0.00072
2073.37794,-0.00072
2071.44922,-0.00072
2069.52049,-0.00072
2067.59177,-0.00073
2065.66305,-0.00073
2063.73432,-0.00073
2061.80560,-0.00072
2059.87687,-0.00067
2057.94815,-0.00055
2056.01943,-0.00035
2054.09070,-0.00015
2052.16198,-0.00003
2050.23326,0.00010
2048.30453,0.00029
2046.37581,0.00053
2044.44709,0.00079
2042.51836,0.00106
2040.58964,0.00139
2038.66091,0.00173
2036.73219,0.00203
2034.80347,0.00236
2032.87474,0.00275
2030.94602,0.00310
2029.01730,0.00337
2027.08857,0.00360
2025.15985,0.00385
2023.23112,0.00413
2021.30240,0.00440
2019.37368,0.00460
2017.44495,0.00477
2015.51623,0.00496
2013.58751,0.00519
2011.65878,0.00547
2009.73006,0.00573
2007.80134,0.00592
2005.87261,0.00606
2003.94389,0.00615
2002.01516,0.00618
2000.08644,0.00617
1998.15772,0.00622
1996.22899,0.00627
1994.30027,0.00629
1992.37155,0.00628
1990.44282,0.00624
1988.51410,0.00616
1986.58538,0.00605
1984.65665,0.00592
1982.72793,0.00577
1980.79920,0.00557
1978.87048,0.00541
1976.94176,0.00535
1975.01303,0.00527
1973.08431,0.00510
1971.15559,0.00492
1969.22686,0.00474
1967.29814,0.00452
1965.36941,0.00424
1963.44069,0.00392
1961.51197,0.00359
1959.58324,0.00329
1957.65452,0.00303
1955.72580,0.00282
1953.79707,0.00268
1951.86835,0.00259
1949.93963,0.00250
1948.01090,0.00233
1946.08218,0.00215
1944.15345,0.00206
1942.22473,0.00205
1940.29601,0.00196
1938.36728,0.00176
1936.43856,0.00152
1934.50984,0.00136
1932.58111,0.00132
1930.65239,0.00133
1928.72367,0.00126
1926.79494,0.00115
1924.86622,0.00121
1922.93749,0.00148
1921.00877,0.00172
1919.08005,0.00194
1917.15132,0.00233
1915.22260,0.00278
1913.29388,0.00310
1911.36515,0.00345
1909.43643,0.00401
1907.50770,0.00473
1905.57898,0.00540
1903.65026,0.00598
1901.72153,0.00655
1899.79281,0.00715
1897.86409,0.00774
1895.93536,0.00833
1894.00664,0.00887
1892.07792,0.00934
1890.14919,0.00984
1888.22047,0.01036
1886.29174,0.01074
1884.36302,0.01100
1882.43430,0.01122
1880.50557,0.01139
1878.57685,0.01154
1876.64813,0.01168
1874.71940,0.01175
1872.79068,0.01167
1870.86196,0.01153
1868.93323,0.01142
1867.00451,0.01123
1865.07578,0.01076
1863.14706,0.01013
1861.21834,0.00950
1859.28961,0.00889
1857.36089,0.00826
1855.43217,0.00760
1853.50344,0.00687
1851.57472,0.00601
1849.64599,0.00512
1847.71727,0.00436
1845.78855,0.00382
1843.85982,0.00343
1841.93110,0.00300
1840.00238,0.00245
1838.07365,0.00194
1836.14493,0.00157
1834.21621,0.00127
1832.28748,0.00103
1830.35876,0.00088
1828.43003,0.00077
1826.50131,0.00058
1824.57259,0.00035
1822.64386,0.00017
1820.71514,0.00004
1818.78642,0.00001
1816.85769,0.00002
1814.92897,0.00000
1813.00025,-0.00002
1811.07152,0.00007
1809.14280,0.00020
1807.21407,0.00024
1805.28535,0.00024
1803.35663,0.00033
1801.42790,0.00054
1799.49918,0.00078
1797.57046,0.00089
1795.64173,0.00092
1793.71301,0.00110
1791.78428,0.00150
1789.85556,0.00184
1787.92684,0.00194
1785.99811,0.00200
1784.06939,0.00212
1782.14067,0.00224
1780.21194,0.00239
1778.28322,0.00254
1776.35450,0.00259
1774.42577,0.00270
1772.49705,0.00312
1770.56832,0.00361
1768.63960,0.00382
1766.71088,0.00385
1764.78215,0.00388
1762.85343,0.00403
1760.92471,0.00428
1758.99598,0.00450
1757.06726,0.00476
1755.13854,0.00500
1753.20981,0.00513
1751.28109,0.00536
1749.35236,0.00586
1747.42364,0.00645
1745.49492,0.00698
1743.56619,0.00751
1741.63747,0.00817
1739.70875,0.00901
1737.78002,0.00975
1735.85130,0.01057
1733.92257,0.01202
1731.99385,0.01375
1730.06513,0.01513
1728.13640,0.01635
1726.20768,0.01768
1724.27896,0.01914
1722.35023,0.02051
1720.42151,0.02174
1718.49279,0.02347
1716.56406,0.02608
1714.63534,0.02861
1712.70661,0.03045
1710.77789,0.03199
1708.84917,0.03368
1706.92044,0.03578
1704.99172,0.03808
1703.06300,0.04013
1701.13427,0.04243
1699.20555,0.04538
1697.27683,0.04845
1695.34810,0.05150
1693.41938,0.05411
1691.49065,0.05623
1689.56193,0.05834
1687.63321,0.06050
1685.70448,0.06328
1683.77576,0.06730
1681.84704,0.07099
1679.91831,0.07331
1677.98959,0.07517
1676.06087,0.07744
1674.13214,0.08000
1672.20342,0.08232
1670.27469,0.08486
1668.34597,0.08773
1666.41725,0.08997
1664.48852,0.09176
1662.55980,0.09396
1660.63108,0.09627
1658.70235,0.09786
1656.77363,0.09875
1654.84490,0.10012
1652.91618,0.10284
1650.98746,0.10524
1649.05873,0.10647
1647.13001,0.10785
1645.20129,0.10953
1643.27256,0.11055
1641.34384,0.11101
1639.41512,0.11133
1637.48639,0.11183
1635.55767,0.11271
1633.62894,0.11337
1631.70022,0.11332
1629.77150,0.11290
1627.84277,0.11237
1625.91405,0.11162
1623.98533,0.11048
1622.05660,0.10899
1620.12788,0.10719
1618.19916,0.10493
1616.27043,0.10221
1614.34171,0.09950
1612.41298,0.09695
1610.48426,0.09430
1608.55554,0.09142
1606.62681,0.08839
1604.69809,0.08530
1602.76937,0.08220
1600.84064,0.07926
1598.91192,0.07657
1596.98319,0.07407
1595.05447,0.07162
1593.12575,0.06925
1591.19702,0.06705
1589.26830,0.06501
1587.33958,0.06306
1585.41085,0.06119
1583.48213,0.05940
1581.55341,0.05765
1579.62468,0.05589
1577.69596,0.05417
1575.76723,0.05263
1573.83851,0.05131
1571.90979,0.04996
1569.98106,0.04848
1568.05234,0.04705
1566.12362,0.04578
1564.19489,0.04454
1562.26617,0.04325
1560.33745,0.04205
1558.40872,0.04120
1556.48000,0.04046
1554.55127,0.03950
1552.62255,0.03839
1550.69383,0.03724
1548.76510,0.03606
1546.83638,0.03481
1544.90766,0.03350
1542.97893,0.03226
1541.05021,0.03129
1539.12148,0.03043
1537.19276,0.02935
1535.26404,0.02808
1533.33531,0.02678
1531.40659,0.02554
1529.47787,0.02430
1527.54914,0.02299
1525.62042,0.02159
1523.69170,0.02009
1521.76297,0.01858
1519.83425,0.01718
1517.90552,0.01594
1515.97680,0.01479
1514.04808,0.01369
1512.11935,0.01249
1510.19063,0.01105
1508.26191,0.00946
1506.33318,0.00795
1504.40446,0.00660
1502.47574,0.00529
1500.54701,0.00401
1498.61829,0.00294
1496.68956,0.00217
1494.76084,0.00153
1492.83212,0.00085
1490.90339,0.00026
1488.97467,0.00000
1487.04595,-0.00001
1485.11722,0.00003
1483.18850,0.00013
1481.25977,0.00036
1479.33105,0.00059
1477.40233,0.00076
1475.47360,0.00118
1473.54488,0.00236
1471.61616,0.00421
1469.68743,0.00579
1467.75871,0.00681
1465.82999,0.00772
1463.90126,0.00854
1461.97254,0.00882
1460.04381,0.00870
1458.11509,0.00892
1456.18637,0.00973
1454.25764,0.01032
1452.32892,0.01047
1450.40020,0.01054
1448.47147,0.01077
1446.54275,0.01116
1444.61403,0.01152
1442.68530,0.01172
1440.75658,0.01176
1438.82785,0.01190
1436.89913,0.01243
1434.97041,0.01302
1433.04168,0.01332
1431.11296,0.01362
1429.18424,0.01418
1427.25551,0.01473
1425.32679,0.01513
1423.39806,0.01549
1421.46934,0.01595
1419.54062,0.01672
1417.61189,0.01774
1415.68317,0.01859
1413.75445,0.01931
1411.82572,0.02013
1409.89700,0.02109
1407.96828,0.02210
1406.03955,0.02313
1404.11083,0.02399
1402.18210,0.02435
1400.25338,0.02418
1398.32466,0.02358
1396.39593,0.02251
1394.46721,0.02108
1392.53849,0.01966
1390.60976,0.01874
1388.68104,0.01905
1386.75232,0.02061
1384.82359,0.02165
1382.89487,0.02035
1380.96614,0.01723
1379.03742,0.01409
1377.10870,0.01187
1375.17997,0.01034
1373.25125,0.00911
1371.32253,0.00803
1369.39380,0.00703
1367.46508,0.00607
1365.53635,0.00520
1363.60763,0.00443
1361.67891,0.00377
1359.75018,0.00311
1357.82146,0.00241
1355.89274,0.00183
1353.96401,0.00148
1352.03529,0.00124
1350.10657,0.00096
1348.17784,0.00062
1346.24912,0.00029
1344.32039,0.00000
1342.39167,-0.00026
1340.46295,-0.00039
1338.53422,-0.00032
1336.60550,-0.00013
1334.67678,0.00003
1332.74805,0.00009
1330.81933,0.00015
1328.89061,0.00034
1326.96188,0.00072
1325.03316,0.00120
1323.10443,0.00171
1321.17571,0.00221
1319.24699,0.00278
1317.31826,0.00334
1315.38954,0.00375
1313.46082,0.00404
1311.53209,0.00430
1309.60337,0.00454
1307.67464,0.00489
1305.74592,0.00552
1303.81720,0.00634
1301.88847,0.00722
1299.95975,0.00814
1298.03103,0.00921
1296.10230,0.01046
1294.17358,0.01194
1292.24486,0.01359
1290.31613,0.01522
1288.38741,0.01686
1286.45868,0.01876
1284.52996,0.02096
1282.60124,0.02328
1280.67251,0.02583
1278.74379,0.02879
1276.81507,0.03214
1274.88634,0.03578
1272.95762,0.03978
1271.02890,0.04431
1269.10017,0.04951
1267.17145,0.05542
1265.24272,0.06207
1263.31400,0.06959
1261.38528,0.07807
1259.45655,0.08729
1257.52783,0.09677
1255.59911,0.10643
1253.67038,0.11630
1251.74166,0.12616
1249.81294,0.13563
1247.88421,0.14446
1245.95549,0.15259
1244.02676,0.16000
1242.09804,0.16662
1240.16932,0.17251
1238.24059,0.17790
1236.31187,0.18296
1234.38315,0.18766
1232.45442,0.19180
1230.52570,0.19538
1228.59697,0.19868
1226.66825,0.20208
1224.73953,0.20560
1222.81080,0.20892
1220.88208,0.21205
1218.95336,0.21508
1217.02463,0.21799
1215.09591,0.22087
1213.16719,0.22383
1211.23846,0.22684
1209.30974,0.22973
1207.38101,0.23244
1205.45229,0.23510
1203.52357,0.23775
1201.59484,0.24036
1199.66612,0.24299
1197.73740,0.24568
1195.80867,0.24829
1193.87995,0.25079
1191.95123,0.25336
1190.02250,0.25599
1188.09378,0.25841
1186.16505,0.26068
1184.23633,0.26327
1182.30761,0.26609
1180.37888,0.26858
1178.45016,0.27070
1176.52144,0.27277
1174.59271,0.27476
1172.66399,0.27680
1170.73526,0.27926
1168.80654,0.28173
1166.87782,0.28385
1164.94909,0.28594
1163.02037,0.28814
1161.09165,0.29015
1159.16292,0.29185
1157.23420,0.29370
1155.30548,0.29594
1153.37675,0.29812
1151.44803,0.30003
1149.51930,0.30197
1147.59058,0.30399
1145.66186,0.30593
1143.73313,0.30778
1141.80441,0.30958
1139.87569,0.31157
1137.94696,0.31391
1136.01824,0.31654
1134.08952,0.31935
1132.16079,0.32197
1130.23207,0.32436
1128.30334,0.32704
1126.37462,0.33027
1124.44590,0.33383
1122.51717,0.33751
1120.58845,0.34119
1118.65973,0.34454
1116.73100,0.34780
1114.80228,0.35219
1112.87355,0.35801
1110.94483,0.36386
1109.01611,0.36883
1107.08738,0.37328
1105.15866,0.37769
1103.22994,0.38214
1101.30121,0.38606
1099.37249,0.38918
1097.44377,0.39190
1095.51504,0.39407
1093.58632,0.39532
1091.65759,0.39599
1089.72887,0.39648
1087.80015,0.39647
1085.87142,0.39590
1083.94270,0.39514
1082.01398,0.39428
1080.08525,0.39343
1078.15653,0.39254
1076.22781,0.39145
1074.29908,0.39014
1072.37036,0.38868
1070.44163,0.38686
1068.51291,0.38456
1066.58419,0.38209
1064.65546,0.37953
1062.72674,0.37686
1060.79802,0.37398
1058.86929,0.37062
1056.94057,0.36672
1055.01184,0.36265
1053.08312,0.35896
1051.15440,0.35564
1049.22567,0.35204
1047.29695,0.34776
1045.36823,0.34315
1043.43950,0.33846
1041.51078,0.33347
1039.58206,0.32825
1037.65333,0.32306
1035.72461,0.31797
1033.79588,0.31283
1031.86716,0.30773
1029.93844,0.30282
1028.00971,0.29798
1026.08099,0.29335
1024.15227,0.28901
1022.22354,0.28468
1020.29482,0.28032
1018.36610,0.27604
1016.43737,0.27174
1014.50865,0.26745
1012.57992,0.26352
1010.65120,0.25994
1008.72248,0.25629
1006.79375,0.25215
1004.86503,0.24763
1002.93631,0.24324
1001.00758,0.23906
999.07886,0.23496
997.15013,0.23101
995.22141,0.22709
993.29269,0.22325
991.36396,0.21957
989.43524,0.21582
987.50652,0.21204
985.57779,0.20857
983.64907,0.20552
981.72035,0.20262
979.79162,0.19965
977.86290,0.19692
975.93417,0.19457
974.00545,0.19247
972.07673,0.19062
970.14800,0.18902
968.21928,0.18753
966.29056,0.18571
964.36183,0.18341
962.43311,0.18115
960.50439,0.17945
958.57566,0.17818
956.64694,0.17677
954.71821,0.17499
952.78949,0.17306
950.86077,0.17111
948.93204,0.16924
947.00332,0.16738
945.07460,0.16530
943.14587,0.16299
941.21715,0.16061
939.28842,0.15813
937.35970,0.15539
935.43098,0.15241
933.50225,0.14947
931.57353,0.14684
929.64481,0.14442
927.71608,0.14184
925.78736,0.13899
923.85864,0.13613
921.92991,0.13334
920.00119,0.13024
918.07246,0.12696
916.14374,0.12403
914.21502,0.12135
912.28629,0.11838
910.35757,0.11505
908.42885,0.11149
906.50012,0.10773
904.57140,0.10413
902.64268,0.10088
900.71395,0.09772
898.78523,0.09433
896.85650,0.09061
894.92778,0.08689
892.99906,0.08352
891.07033,0.08046
889.14161,0.07759
887.21289,0.07494
885.28416,0.07241
883.35544,0.06971
881.42671,0.06685
879.49799,0.06427
877.56927,0.06219
875.64054,0.06023
873.71182,0.05824
871.78310,0.05627
869.85437,0.05429
867.92565,0.05220
865.99693,0.05007
864.06820,0.04819
862.13948,0.04654
860.21075,0.04478
858.28203,0.04285
856.35331,0.04120
854.42458,0.04017
852.49586,0.03945
850.56714,0.03883
848.63841,0.03826
846.70969,0.03786
844.78097,0.03831
842.85224,0.03992
840.92352,0.04207
838.99479,0.04412
837.06607,0.04630
835.13735,0.04882
833.20862,0.05140
831.27990,0.05391
829.35118,0.05651
827.42245,0.05936
825.49373,0.06232
823.56501,0.06523
821.63628,0.06823
819.70756,0.07137
817.77883,0.07435
815.85011,0.07703
813.92139,0.08004
811.99266,0.08374
810.06394,0.08744
808.13522,0.09059
806.20649,0.09350
804.27777,0.09625
802.34904,0.09853
800.42032,0.10033
798.49160,0.10151
796.56287,0.10188
794.63415,0.10143
792.70543,0.10024
790.77670,0.09895
788.84798,0.09799
786.91926,0.09679
784.99053,0.09476
783.06181,0.09228
781.13308,0.08962
779.20436,0.08634
777.27564,0.08264
775.34691,0.07916
773.41819,0.07593
771.48947,0.07288
769.56074,0.07050
767.63202,0.06904
765.70330,0.06803
763.77457,0.06731
761.84585,0.06694
759.91712,0.06651
757.98840,0.06583
756.05968,0.06523
754.13095,0.06485
752.20223,0.06437
750.27351,0.06356
748.34478,0.06273
746.41606,0.06230
744.48733,0.06225
742.55861,0.06214
740.62989,0.06167
738.70116,0.06099
736.77244,0.06053
734.84372,0.06061
732.91499,0.06099
730.98627,0.06110
729.05755,0.06060
727.12882,0.06017
725.20010,0.06069
723.27137,0.06134
721.34265,0.06097
719.41393,0.06029
717.48520,0.06041
715.55648,0.06104
713.62776,0.06121
711.69903,0.06080
709.77031,0.06065
707.84159,0.06106
705.91286,0.06138
703.98414,0.06134
702.05541,0.06153
700.12669,0.06228
698.19797,0.06321
696.26924,0.06387
694.34052,0.06402
692.41180,0.06371
690.48307,0.06345
688.55435,0.06359
686.62562,0.06388
684.69690,0.06431
682.76818,0.06504
680.83945,0.06564
678.91073,0.06556
676.98201,0.06509
675.05328,0.06466
673.12456,0.06411
671.19584,0.06330
669.26711,0.06280
667.33839,0.06329
665.40966,0.06420
663.48094,0.06494
661.55222,0.06575
659.62349,0.06659
657.69477,0.06725
655.76605,0.06805
653.83732,0.06899
651.90860,0.06977
649.97988,0.07083
648.05115,0.07279
646.12243,0.07526
644.19370,0.07696
642.26498,0.07751
640.33626,0.07809
638.40753,0.07930
636.47881,0.08036
634.55009,0.08092
632.62136,0.08141
630.69264,0.08175
628.76391,0.08186
626.83519,0.08218
624.90647,0.08302
622.97774,0.08394
621.04902,0.08493
619.12030,0.08611
617.19157,0.08747
615.26285,0.08884
613.33413,0.08992
611.40540,0.09087
609.47668,0.09179
607.54795,0.09229
605.61923,0.09293
603.69051,0.09499
601.76178,0.09839
599.83306,0.10185
597.90434,0.10442
595.97561,0.10564
594.04689,0.10554
592.11817,0.10562
590.18944,0.10726
588.26072,0.10931
586.33199,0.11041
584.40327,0.11078
582.47455,0.11070
580.54582,0.11051
578.61710,0.11088
576.68838,0.11147
574.75965,0.11216
572.83093,0.11339
570.90220,0.11416
568.97348,0.11378
567.04476,0.11358
565.11603,0.11452
563.18731,0.11584
561.25859,0.11706
559.32986,0.11868
557.40114,0.12050
555.47242,0.12191
553.54369,0.12336
551.61497,0.12487
549.68624,0.12576
547.75752,0.12603
545.82880,0.12638
543.90007,0.12731
541.97135,0.12820
540.04263,0.12854
538.11390,0.12939
536.18518,0.13111
534.25646,0.13249
532.32773,0.13311
530.39901,0.13334
528.47028,0.13275
526.54156,0.13137
524.61284,0.13098
522.68411,0.13244
520.75539,0.13417
518.82667,0.13509
516.89794,0.13578
514.96922,0.13658
513.04049,0.13801
511.11177,0.14097
509.18305,0.14496
507.25432,0.14883
505.32560,0.15278
503.39688,0.15772
501.46815,0.16354
499.53943,0.16910
497.61071,0.17335
495.68198,0.17745
493.75326,0.18359
491.82453,0.19117
489.89581,0.19916
487.96709,0.20816
486.03836,0.21757
484.10964,0.22606
482.18092,0.23273
480.25219,0.23773
478.32347,0.24298
476.39475,0.24833
474.46602,0.25188
472.53730,0.25582
470.60857,0.26182
468.67985,0.26539
466.75113,0.26458
464.82240,0.26320
462.89368,0.26396
460.96496,0.26503
459.03623,0.26247
457.10751,0.25539
455.17878,0.24836
453.25006,0.24525
451.32134,0.24382
449.39261,0.24027
447.46389,0.23462
445.53517,0.22663
443.60644,0.21601
441.67772,0.20756
439.74900,0.20412
437.82027,0.20173
435.89155,0.19787
433.96282,0.19427
432.03410,0.19211
430.10538,0.19010
428.17665,0.18619
426.24793,0.18079
424.31921,0.17523
422.39048,0.16737
420.46176,0.15650
418.53304,0.14808
416.60431,0.14535
414.67559,0.14560
412.74686,0.14642
410.81814,0.14391
408.88942,0.13547
406.96069,0.12513
405.03197,0.11892
403.10325,0.11994
401.17452,0.12389
399.24580,0.12094
397.31708,0.11254
395.38835,0.10810
393.45963,0.10167
391.53090,0.09105
389.60218,0.08528
387.67346,0.08737
385.74473,0.09483
383.81601,0.10119
381.88729,0.09328
379.95856,0.07165
378.02984,0.05880
376.10111,0.07776
374.17239,0.11487
372.24367,0.11621
370.31494,0.06688
368.38622,0.00000
