3996.31543,0.00000
3994.38671,0.00017
3992.45799,0.00025
3990.52926,0.00024
3988.60054,0.00022
3986.67182,0.00023
3984.74309,0.00021
3982.81437,0.00022
3980.88564,0.00029
3978.95692,0.00039
3977.02820,0.00055
3975.09947,0.00070
3973.17075,0.00071
3971.24203,0.00062
3969.31330,0.00058
3967.38458,0.00057
3965.45586,0.00051
3963.52713,0.00045
3961.59841,0.00049
3959.66968,0.00060
3957.74096,0.00067
3955.81224,0.00071
3953.88351,0.00082
3951.95479,0.00098
3950.02607,0.00101
3948.09734,0.00098
3946.16862,0.00106
3944.23990,0.00106
3942.31117,0.00079
3940.38245,0.00059
3938.45372,0.00074
3936.52500,0.00108
3934.59628,0.00130
3932.66755,0.00108
3930.73883,0.00066
3928.81011,0.00065
3926.88138,0.00104
3924.95266,0.00126
3923.02393,0.00126
3921.09521,0.00134
3919.16649,0.00144
3917.23776,0.00129
3915.30904,0.00106
3913.38032,0.00099
3911.45159,0.00108
3909.52287,0.00138
3907.59415,0.00192
3905.66542,0.00233
3903.73670,0.00214
3901.80797,0.00143
3899.87925,0.00068
3897.95053,0.00051
3896.02180,0.00109
3894.09308,0.00169
3892.16436,0.00156
3890.23563,0.00120
3888.30691,0.00140
3886.37819,0.00155
3884.44946,0.00131
3882.52074,0.00122
3880.59201,0.00113
3878.66329,0.00111
3876.73457,0.00172
3874.80584,0.00240
3872.87712,0.00255
3870.94840,0.00213
3869.01967,0.00151
3867.09095,0.00141
3865.16222,0.00155
3863.23350,0.00130
3861.30478,0.00126
3859.37605,0.00212
3857.44733,0.00355
3855.51861,0.00407
3853.58988,0.00230
3851.66116,0.00009
3849.73244,0.00000
3847.80371,0.00122
3845.87499,0.00229
3843.94626,0.00279
3842.01754,0.00285
3840.08882,0.00247
3838.16009,0.00163
3836.23137,0.00095
3834.30265,0.00099
3832.37392,0.00138
3830.44520,0.00178
3828.51648,0.00221
3826.58775,0.00265
3824.65903,0.00319
3822.73030,0.00348
3820.80158,0.00304
3818.87286,0.00264
3816.94413,0.00249
3815.01541,0.00211
3813.08669,0.00217
3811.15796,0.00299
3809.22924,0.00368
3807.30052,0.00368
3805.37179,0.00358
3803.44307,0.00368
3801.51434,0.00319
3799.58562,0.00256
3797.65690,0.00264
3795.72817,0.00297
3793.79945,0.00322
3791.87073,0.00355
3789.94200,0.00392
3788.01328,0.00427
3786.08455,0.00454
3784.15583,0.00471
3782.22711,0.00488
3780.29838,0.00482
3778.36966,0.00461
3776.44094,0.00489
3774.51221,0.00572
3772.58349,0.00648
3770.65477,0.00665
3768.72604,0.00647
3766.79732,0.00653
3764.86859,0.00694
3762.93987,0.00771
3761.01115,0.00849
3759.08242,0.00873
3757.15370,0.00891
3755.22498,0.00978
3753.29625,0.01082
3751.36753,0.01098
3749.43881,0.01086
3747.51008,0.01177
3745.58136,0.01276
3743.65263,0.01266
3741.72391,0.01286
3739.79519,0.01430
3737.86646,0.01575
3735.93774,0.01614
3734.00902,0.01606
3732.08029,0.01672
3730.15157,0.01828
3728.22284,0.02015
3726.29412,0.02172
3724.36540,0.02286
3722.43667,0.02387
3720.50795,0.02512
3718.57923,0.02698
3716.65050,0.02943
3714.72178,0.03201
3712.79306,0.03416
3710.86433,0.03587
3708.93561,0.03790
3707.00688,0.04066
3705.07816,0.04382
3703.14944,0.04690
3701.22071,0.04975
3699.29199,0.05257
3697.36327,0.05548
3695.43454,0.05841
3693.50582,0.06122
3691.57710,0.06365
3689.64837,0.06572
3687.71965,0.06811
3685.79092,0.07127
3683.86220,0.07486
3681.93348,0.07855
3680.00475,0.08225
3678.07603,0.08584
3676.14731,0.08918
3674.21858,0.09258
3672.28986,0.09641
3670.36113,0.10052
3668.43241,0.10467
3666.50369,0.10888
3664.57496,0.11305
3662.64624,0.11708
3660.71752,0.12102
3658.78879,0.12495
3656.86007,0.12887
3654.93135,0.13285
3653.00262,0.13684
3651.07390,0.14052
3649.14517,0.14387
3647.21645,0.14757
3645.28773,0.15194
3643.35900,0.15646
3641.43028,0.16067
3639.50156,0.16461
3637.57283,0.16845
3635.64411,0.17217
3633.71539,0.17573
3631.78666,0.17915
3629.85794,0.18231
3627.92921,0.18531
3626.00049,0.18862
3624.07177,0.19220
3622.14304,0.19543
3620.21432,0.19787
3618.28560,0.19978
3616.35687,0.20178
3614.42815,0.20405
3612.49942,0.20636
3610.57070,0.20857
3608.64198,0.21055
3606.71325,0.21250
3604.78453,0.21474
3602.85581,0.21705
3600.92708,0.21913
3598.99836,0.22108
3597.06964,0.22319
3595.14091,0.22545
3593.21219,0.22764
3591.28346,0.22962
3589.35474,0.23136
3587.42602,0.23286
3585.49729,0.23443
3583.56857,0.23631
3581.63985,0.23833
3579.71112,0.24024
3577.78240,0.24196
3575.85368,0.24347
3573.92495,0.24488
3571.99623,0.24641
3570.06750,0.24793
3568.13878,0.24898
3566.21006,0.24970
3564.28133,0.25086
3562.35261,0.25241
3560.42389,0.25375
3558.49516,0.25481
3556.56644,0.25581
3554.63771,0.25677
3552.70899,0.25767
3550.78027,0.25858
3548.85154,0.25940
3546.92282,0.25992
3544.99410,0.26029
3543.06537,0.26084
3541.13665,0.26150
3539.20793,0.26203
3537.27920,0.26242
3535.35048,0.26286
3533.42175,0.26341
3531.49303,0.26391
3529.56431,0.26419
3527.63558,0.26440
3525.70686,0.26481
3523.77814,0.26533
3521.84941,0.26589
3519.92069,0.26660
3517.99197,0.26737
3516.06324,0.26799
3514.13452,0.26854
3512.20579,0.26912
3510.27707,0.26959
3508.34835,0.27004
3506.41962,0.27070
3504.49090,0.27132
3502.56218,0.27173
3500.63345,0.27227
3498.70473,0.27305
3496.77600,0.27379
3494.84728,0.27431
3492.91856,0.27474
3490.98983,0.27534
3489.06111,0.27618
3487.13239,0.27707
3485.20366,0.27779
3483.27494,0.27833
3481.34622,0.27880
3479.41749,0.27928
3477.48877,0.27982
3475.56004,0.28038
3473.63132,0.28086
3471.70260,0.28138
3469.77387,0.28213
3467.84515,0.28293
3465.91643,0.28351
3463.98770,0.28381
3462.05898,0.28410
3460.13026,0.28465
3458.20153,0.28537
3456.27281,0.28588
3454.34408,0.28611
3452.41536,0.28627
3450.48664,0.28655
3448.55791,0.28689
3446.62919,0.28715
3444.70047,0.28747
3442.77174,0.28791
3440.84302,0.28840
3438.91429,0.28883
3436.98557,0.28915
3435.05685,0.28931
3433.12812,0.28934
3431.19940,0.28940
3429.27068,0.28952
3427.34195,0.28951
3425.41323,0.28944
3423.48451,0.28961
3421.55578,0.28988
3419.62706,0.28993
3417.69833,0.28984
3415.76961,0.28984
3413.84089,0.28990
3411.91216,0.28993
3409.98344,0.28992
3408.05472,0.28976
3406.12599,0.28952
3404.19727,0.28940
3402.26855,0.28940
3400.33982,0.28926
3398.41110,0.28888
3396.48237,0.28833
3394.55365,0.28790
3392.62493,0.28760
3390.69620,0.28731
3388.76748,0.28703
3386.83876,0.28674
3384.91003,0.28634
3382.98131,0.28582
3381.05259,0.28541
3379.12386,0.28501
3377.19514,0.28438
3375.26641,0.28368
3373.33769,0.28326
3371.40897,0.28301
3369.48024,0.28255
3367.55152,0.28181
3365.62280,0.28100
3363.69407,0.28027
3361.76535,0.27975
3359.83662,0.27935
3357.90790,0.27878
3355.97918,0.27801
3354.05045,0.27730
3352.12173,0.27682
3350.19301,0.27633
3348.26428,0.27556
3346.33556,0.27466
3344.40684,0.27395
3342.47811,0.27335
3340.54939,0.27272
3338.62066,0.27202
3336.69194,0.27112
3334.76322,0.27013
3332.83449,0.26938
3330.90577,0.26879
3328.97705,0.26804
3327.04832,0.26707
3325.11960,0.26608
3323.19088,0.26524
3321.26215,0.26456
3319.33343,0.26385
3317.40470,0.26307
3315.47598,0.26236
3313.54726,0.26177
3311.61853,0.26131
3309.68981,0.26085
3307.76109,0.26011
3305.83236,0.25920
3303.90364,0.25847
3301.97491,0.25784
3300.04619,0.25719
3298.11747,0.25667
3296.18874,0.25619
3294.26002,0.25549
3292.33130,0.25463
3290.40257,0.25388
3288.47385,0.25334
3286.54513,0.25286
3284.61640,0.25223
3282.68768,0.25143
3280.75895,0.25061
3278.83023,0.24988
3276.90151,0.24931
3274.97278,0.24890
3273.04406,0.24847
3271.11534,0.24802
3269.18661,0.24753
3267.25789,0.24695
3265.32917,0.24638
3263.40044,0.24582
3261.47172,0.24516
3259.54299,0.24443
3257.61427,0.24377
3255.68555,0.24318
3253.75682,0.24255
3251.82810,0.24183
3249.89938,0.24122
3247.97065,0.24086
3246.04193,0.24051
3244.11320,0.23985
3242.18448,0.23897
3240.25576,0.23818
3238.32703,0.23757
3236.39831,0.23698
3234.46959,0.23632
3232.54086,0.23572
3230.61214,0.23515
3228.68342,0.23437
3226.75469,0.23352
3224.82597,0.23283
3222.89724,0.23215
3220.96852,0.23135
3219.03980,0.23050
3217.11107,0.22953
3215.18235,0.22844
3213.25363,0.22746
3211.32490,0.22666
3209.39618,0.22585
3207.46746,0.22495
3205.53873,0.22400
3203.61001,0.22302
3201.68128,0.22204
3199.75256,0.22106
3197.82384,0.22011
3195.89511,0.21916
3193.96639,0.21816
3192.03767,0.21719
3190.10894,0.21625
3188.18022,0.21523
3186.25149,0.21411
3184.32277,0.21302
3182.39405,0.21208
3180.46532,0.21127
3178.53660,0.21040
3176.60788,0.20936
3174.67915,0.20824
3172.75043,0.20711
3170.82171,0.20600
3168.89298,0.20496
3166.96426,0.20405
3165.03553,0.20318
3163.10681,0.20222
3161.17809,0.20114
3159.24936,0.19996
3157.32064,0.19877
3155.39192,0.19764
3153.46319,0.19662
3151.53447,0.19557
3149.60575,0.19450
3147.67702,0.19356
3145.74830,0.19274
3143.81957,0.19190
3141.89085,0.19100
3139.96213,0.19001
3138.03340,0.18891
3136.10468,0.18777
3134.17596,0.18668
3132.24723,0.18571
3130.31851,0.18486
3128.38978,0.18403
3126.46106,0.18311
3124.53234,0.18215
3122.60361,0.18117
3120.67489,0.18021
3118.74617,0.17926
3116.81744,0.17819
3114.88872,0.17697
3112.96000,0.17580
3111.03127,0.17487
3109.10255,0.17406
3107.17382,0.17310
3105.24510,0.17195
3103.31638,0.17085
3101.38765,0.16992
3099.45893,0.16897
3097.53021,0.16784
3095.60148,0.16668
3093.67276,0.16566
3091.74404,0.16473
3089.81531,0.16375
3087.88659,0.16272
3085.95786,0.16164
3084.02914,0.16056
3082.10042,0.15953
3080.17169,0.15853
3078.24297,0.15754
3076.31425,0.15651
3074.38552,0.15541
3072.45680,0.15437
3070.52807,0.15339
3068.59935,0.15239
3066.67063,0.15135
3064.74190,0.15031
3062.81318,0.14930
3060.88446,0.14828
3058.95573,0.14728
3057.02701,0.14632
3055.09829,0.14533
3053.16956,0.14432
3051.24084,0.14336
3049.31211,0.14244
3047.38339,0.14153
3045.45467,0.14061
3043.52594,0.13969
3041.59722,0.13878
3039.66850,0.13794
3037.73977,0.13714
3035.81105,0.13628
3033.88233,0.13528
3031.95360,0.13426
3030.02488,0.13335
3028.09615,0.13259
3026.16743,0.13188
3024.23871,0.13105
3022.30998,0.13008
3020.38126,0.12913
3018.45254,0.12832
3016.52381,0.12756
3014.59509,0.12683
3012.66636,0.12610
3010.73764,0.12524
3008.80892,0.12429
3006.88019,0.12340
3004.95147,0.12263
3003.02275,0.12192
3001.09402,0.12122
2999.16530,0.12052
2997.23658,0.11983
2995.30785,0.11911
2993.37913,0.11843
2991.45040,0.11784
2989.52168,0.11730
2987.59296,0.11676
2985.66423,0.11619
2983.73551,0.11562
2981.80679,0.11511
2979.87806,0.11478
2977.94934,0.11463
2976.02062,0.11458
2974.09189,0.11447
2972.16317,0.11427
2970.23444,0.11410
2968.30572,0.11401
2966.37700,0.11392
2964.44827,0.11372
2962.51955,0.11335
2960.59083,0.11283
2958.66210,0.11222
2956.73338,0.11152
2954.80466,0.11059
2952.87593,0.10950
2950.94721,0.10855
2949.01848,0.10781
2947.08976,0.10724
2945.16104,0.10682
2943.23231,0.10651
2941.30359,0.10633
2939.37487,0.10638
2937.44614,0.10666
2935.51742,0.10693
2933.58869,0.10710
2931.65997,0.10719
2929.73125,0.10711
2927.80252,0.10670
2925.87380,0.10579
2923.94508,0.10429
2922.01635,0.10225
2920.08763,0.09994
2918.15891,0.09783
2916.23018,0.09624
2914.30146,0.09509
2912.37273,0.09407
2910.44401,0.09306
2908.51529,0.09204
2906.58656,0.09095
2904.65784,0.08980
2902.72912,0.08862
2900.80039,0.08748
2898.87167,0.08645
2896.94295,0.08550
2895.01422,0.08459
2893.08550,0.08362
2891.15677,0.08259
2889.22805,0.08163
2887.29933,0.08084
2885.37060,0.08016
2883.44188,0.07951
2881.51316,0.07893
2879.58443,0.07857
2877.65571,0.07834
2875.72698,0.07803
2873.79826,0.07749
2871.86954,0.07680
2869.94081,0.07611
2868.01209,0.07554
2866.08337,0.07502
2864.15464,0.07449
2862.22592,0.07411
2860.29720,0.07398
2858.36847,0.07396
2856.43975,0.07388
2854.51102,0.07349
2852.58230,0.07249
2850.65358,0.07092
2848.72485,0.06918
2846.79613,0.06766
2844.86741,0.06630
2842.93868,0.06490
2841.00996,0.06351
2839.08124,0.06223
2837.15251,0.06107
2835.22379,0.05997
2833.29506,0.05900
2831.36634,0.05814
2829.43762,0.05729
2827.50889,0.05649
2825.58017,0.05581
2823.65145,0.05524
2821.72272,0.05466
2819.79400,0.05397
2817.86527,0.05325
2815.93655,0.05263
2814.00783,0.05213
2812.07910,0.05165
2810.15038,0.05109
2808.22166,0.05044
2806.29293,0.04981
2804.36421,0.04928
2802.43549,0.04877
2800.50676,0.04823
2798.57804,0.04769
2796.64931,0.04716
2794.72059,0.04665
2792.79187,0.04620
2790.86314,0.04574
2788.93442,0.04526
2787.00570,0.04478
2785.07697,0.04422
2783.14825,0.04354
2781.21953,0.04286
2779.29080,0.04225
2777.36208,0.04173
2775.43335,0.04130
2773.50463,0.04089
2771.57591,0.04041
2769.64718,0.03994
2767.71846,0.03951
2765.78974,0.03905
2763.86101,0.03852
2761.93229,0.03798
2760.00356,0.03756
2758.07484,0.03722
2756.14612,0.03683
2754.21739,0.03632
2752.28867,0.03580
2750.35995,0.03532
2748.43122,0.03487
2746.50250,0.03440
2744.57378,0.03391
2742.64505,0.03340
2740.71633,0.03292
2738.78760,0.03259
2736.85888,0.03234
2734.93016,0.03195
2733.00143,0.03144
2731.07271,0.03096
2729.14399,0.03052
2727.21526,0.03007
2725.28654,0.02964
2723.35782,0.02925
2721.42909,0.02890
2719.50037,0.02853
2717.57164,0.02805
2715.64292,0.02752
2713.71420,0.02708
2711.78547,0.02670
2709.85675,0.02632
2707.92803,0.02593
2705.99930,0.02549
2704.07058,0.02508
2702.14185,0.02472
2700.21313,0.02436
2698.28441,0.02406
2696.35568,0.02380
2694.42696,0.02345
2692.49824,0.02305
2690.56951,0.02267
2688.64079,0.02230
2686.71207,0.02186
2684.78334,0.02142
2682.85462,0.02110
2680.92589,0.02090
2678.99717,0.02063
2677.06845,0.02019
2675.13972,0.01975
2673.21100,0.01941
2671.28228,0.01910
2669.35355,0.01875
2667.42483,0.01842
2665.49611,0.01819
2663.56738,0.01800
2661.63866,0.01768
2659.70993,0.01726
2657.78121,0.01689
2655.85249,0.01654
2653.92376,0.01617
2651.99504,0.01584
2650.06632,0.01551
2648.13759,0.01513
2646.20887,0.01479
2644.28014,0.01451
2642.35142,0.01425
2640.42270,0.01405
2638.49397,0.01385
2636.56525,0.01358
2634.63653,0.01331
2632.70780,0.01306
2630.77908,0.01276
2628.85036,0.01245
2626.92163,0.01216
2624.99291,0.01190
2623.06418,0.01171
2621.13546,0.01154
2619.20674,0.01135
2617.27801,0.01109
2615.34929,0.01078
2613.42057,0.01048
2611.49184,0.01019
2609.56312,0.00991
2607.63440,0.00966
2605.70567,0.00941
2603.77695,0.00915
2601.84822,0.00889
2599.91950,0.00866
2597.99078,0.00850
2596.06205,0.00833
2594.13333,0.00809
2592.20461,0.00786
2590.27588,0.00768
2588.34716,0.00746
2586.41843,0.00721
2584.48971,0.00702
2582.56099,0.00687
2580.63226,0.00669
2578.70354,0.00651
2576.77482,0.00636
2574.84609,0.00619
2572.91737,0.00597
2570.98865,0.00573
2569.05992,0.00550
2567.13120,0.00528
2565.20247,0.00513
2563.27375,0.00503
2561.34503,0.00491
2559.41630,0.00474
2557.48758,0.00458
2555.55886,0.00447
2553.63013,0.00443
2551.70141,0.00437
2549.77269,0.00421
2547.84396,0.00399
2545.91524,0.00378
2543.98651,0.00366
2542.05779,0.00359
2540.12907,0.00352
2538.20034,0.00336
2536.27162,0.00313
2534.34290,0.00294
2532.41417,0.00287
2530.48545,0.00285
2528.55673,0.00273
2526.62800,0.00255
2524.69928,0.00243
2522.77055,0.00233
2520.84183,0.00222
2518.91311,0.00214
2516.98438,0.00209
2515.05566,0.00203
2513.12694,0.00196
2511.19821,0.00187
2509.26949,0.00172
2507.34076,0.00160
2505.41204,0.00153
2503.48332,0.00141
2501.55459,0.00130
2499.62587,0.00128
2497.69715,0.00131
2495.76842,0.00126
2493.83970,0.00118
2491.91098,0.00118
2489.98225,0.00120
2488.05353,0.00115
2486.12480,0.00098
2484.19608,0.00080
2482.26736,0.00070
2480.33863,0.00070
2478.40991,0.00073
2476.48119,0.00069
2474.55246,0.00059
2472.62374,0.00047
2470.69502,0.00040
2468.76629,0.00037
2466.83757,0.00032
2464.90884,0.00030
2462.98012,0.00032
2461.05140,0.00034
2459.12267,0.00028
2457.19395,0.00025
2455.26523,0.00026
2453.33650,0.00020
2451.40778,0.00011
2449.47905,0.00007
2447.55033,0.00002
2445.62161,0.00001
2443.69288,0.00006
2441.76416,0.00008
2439.83544,0.00011
2437.90671,0.00014
2435.97799,0.00012
2434.04927,0.00008
2432.12054,0.00004
2430.19182,0.00000
2428.26309,-0.00005
2426.33437,-0.00006
2424.40565,-0.00003
2422.47692,-0.00001
2420.54820,-0.00004
2418.61948,-0.00005
2416.69075,0.00002
2414.76203,0.00011
2412.83331,0.00016
2410.90458,0.00014
2408.97586,0.00010
2407.04713,0.00001
2405.11841,-0.00007
2403.18969,-0.00007
2401.26096,-0.00004
2399.33224,-0.00005
2397.40352,-0.00007
2395.47479,-0.00007
2393.54607,-0.00006
2391.61734,-0.00010
2389.68862,-0.00018
2387.75990,-0.00020
2385.83117,-0.00006
2383.90245,0.00016
2381.97373,0.00033
2380.04500,0.00043
2378.11628,0.00053
2376.18756,0.00064
2374.25883,0.00074
2372.33011,0.00082
2370.40138,0.00084
2368.47266,0.00074
2366.54394,0.00060
2364.61521,0.00053
2362.68649,0.00048
2360.75777,0.00032
2358.82904,0.00011
2356.90032,0.00000
2354.97160,-0.00007
2353.04287,-0.00011
2351.11415,0.00003
2349.18542,0.00047
2347.25670,0.00096
2345.32798,0.00119
2343.39925,0.00112
2341.47053,0.00101
2339.54181,0.00095
2337.61308,0.00087
2335.68436,0.00074
2333.75563,0.00059
2331.82691,0.00043
2329.89819,0.00028
2327.96946,0.00025
2326.04074,0.00036
2324.11202,0.00045
2322.18329,0.00035
2320.25457,0.00013
2318.32585,0.00000
2316.39712,0.00003
2314.46840,0.00011
2312.53967,0.00015
2310.61095,0.00016
2308.68223,0.00017
2306.75350,0.00017
2304.82478,0.00014
2302.89606,0.00011
2300.96733,0.00009
2299.03861,0.00007
2297.10989,0.00006
2295.18116,0.00008
2293.25244,0.00008
2291.32371,0.00005
2289.39499,0.00001
2287.46627,-0.00003
2285.53754,-0.00002
2283.60882,0.00004
2281.68010,0.00009
2279.75137,0.00007
2277.82265,0.00003
2275.89392,0.00003
2273.96520,0.00007
2272.03648,0.00008
2270.10775,0.00004
2268.17903,0.00004
2266.25031,0.00012
2264.32158,0.00021
2262.39286,0.00025
2260.46414,0.00026
2258.53541,0.00026
2256.60669,0.00026
2254.67796,0.00026
2252.74924,0.00028
2250.82052,0.00031
2248.89179,0.00036
2246.96307,0.00037
2245.03435,0.00036
2243.10562,0.00038
2241.17690,0.00043
2239.24818,0.00045
2237.31945,0.00042
2235.39073,0.00039
2233.46200,0.00038
2231.53328,0.00038
2229.60456,0.00042
2227.67583,0.00048
2225.74711,0.00048
2223.81839,0.00037
2221.88966,0.00024
2219.96094,0.00016
2218.03221,0.00012
2216.10349,0.00007
2214.17477,0.00001
2212.24604,-0.00002
2210.31732,-0.00003
2208.38860,-0.00003
2206.45987,0.00000
2204.53115,-0.00002
2202.60243,-0.00006
2200.67370,-0.00007
2198.74498,-0.00008
2196.81625,-0.00012
2194.88753,-0.00010
2192.95881,-0.00000
2191.03008,0.00005
2189.10136,0.00001
2187.17264,-0.00005
2185.24391,-0.00010
2183.31519,-0.00013
2181.38647,-0.00016
2179.45774,-0.00019
2177.52902,-0.00016
2175.60029,-0.00006
2173.67157,-0.00000
2171.74285,-0.00002
2169.81412,-0.00006
2167.88540,-0.00011
2165.95668,-0.00015
2164.02795,-0.00012
2162.09923,-0.00007
2160.17050,-0.00005
2158.24178,-0.00002
2156.31306,-0.00001
2154.38433,0.00000
2152.45561,0.00006
2150.52689,0.00011
2148.59816,0.00016
2146.66944,0.00020
2144.74072,0.00021
2142.81199,0.00020
2140.88327,0.00016
2138.95454,0.00012
2137.02582,0.00010
2135.09710,0.00014
2133.16837,0.00019
2131.23965,0.00018
2129.31093,0.00014
2127.38220,0.00011
2125.45348,0.00008
2123.52476,0.00008
2121.59603,0.00010
2119.66731,0.00008
2117.73858,0.00005
2115.80986,0.00001
2113.88114,-0.00003
2111.95241,-0.00003
2110.02369,-0.00001
2108.09497,-0.00002
2106.16624,-0.00009
2104.23752,-0.00017
2102.30880,-0.00021
2100.38007,-0.00021
2098.45135,-0.00017
2096.52262,-0.00008
2094.59390,0.00000
2092.66518,0.00002
2090.73645,-0.00003
2088.80773,-0.00017
2086.87901,-0.00026
2084.95028,-0.00023
2083.02156,-0.00019
2081.09283,-0.00023
2079.16411,-0.00029
2077.23539,-0.00029
2075.30666,-0.00027
2073.37794,-0.00028
2071.44922,-0.00033
2069.52049,-0.00035
2067.59177,-0.00033
2065.66305,-0.00029
2063.73432,-0.00026
2061.80560,-0.00023
2059.87687,-0.00018
2057.94815,-0.00008
2056.01943,0.00005
2054.09070,0.00016
2052.16198,0.00023
2050.23326,0.00030
2048.30453,0.00044
2046.37581,0.00062
2044.44709,0.00079
2042.51836,0.00095
2040.58964,0.00115
2038.66091,0.00139
2036.73219,0.00167
2034.80347,0.00195
2032.87474,0.00219
2030.94602,0.00239
2029.01730,0.00252
2027.08857,0.00259
2025.15985,0.00267
2023.23112,0.00278
2021.30240,0.00293
2019.37368,0.00306
2017.44495,0.00316
2015.51623,0.00333
2013.58751,0.00358
2011.65878,0.00379
2009.73006,0.00393
2007.80134,0.00402
2005.87261,0.00408
2003.94389,0.00412
2002.01516,0.00418
2000.08644,0.00420
1998.15772,0.00421
1996.22899,0.00428
1994.30027,0.00432
1992.37155,0.00421
1990.44282,0.00403
1988.51410,0.00393
1986.58538,0.00387
1984.65665,0.00379
1982.72793,0.00370
1980.79920,0.00361
1978.87048,0.00354
1976.94176,0.00347
1975.01303,0.00338
1973.08431,0.00325
1971.15559,0.00308
1969.22686,0.00285
1967.29814,0.00256
1965.36941,0.00233
1963.44069,0.00223
1961.51197,0.00212
1959.58324,0.00193
1957.65452,0.00174
1955.72580,0.00161
1953.79707,0.00152
1951.86835,0.00138
1949.93963,0.00120
1948.01090,0.00111
1946.08218,0.00111
1944.15345,0.00100
1942.22473,0.00072
1940.29601,0.00057
1938.36728,0.00060
1936.43856,0.00063
1934.50984,0.00059
1932.58111,0.00054
1930.65239,0.00050
1928.72367,0.00049
1926.79494,0.00050
1924.86622,0.00050
1922.93749,0.00053
1921.00877,0.00065
1919.08005,0.00075
1917.15132,0.00083
1915.22260,0.00113
1913.29388,0.00155
1911.36515,0.00186
1909.43643,0.00211
1907.50770,0.00254
1905.57898,0.00309
1903.65026,0.00358
1901.72153,0.00400
1899.79281,0.00441
1897.86409,0.00483
1895.93536,0.00518
1894.00664,0.00552
1892.07792,0.00585
1890.14919,0.00606
1888.22047,0.00620
1886.29174,0.00644
1884.36302,0.00674
1882.43430,0.00702
1880.50557,0.00722
1878.57685,0.00728
1876.64813,0.00728
1874.71940,0.00732
1872.79068,0.00739
1870.86196,0.00725
1868.93323,0.00680
1867.00451,0.00638
1865.07578,0.00630
1863.14706,0.00629
1861.21834,0.00606
1859.28961,0.00558
1857.36089,0.00503
1855.43217,0.00450
1853.50344,0.00403
1851.57472,0.00361
1849.64599,0.00318
1847.71727,0.00272
1845.78855,0.00213
1843.85982,0.00141
1841.93110,0.00099
1840.00238,0.00095
1838.07365,0.00090
1836.14493,0.00075
1834.21621,0.00067
1832.28748,0.00059
1830.35876,0.00029
1828.43003,0.00000
1826.50131,-0.00014
1824.57259,-0.00019
1822.64386,-0.00018
1820.71514,-0.00005
1818.78642,0.00007
1816.85769,0.00008
1814.92897,0.00004
1813.00025,-0.00001
1811.07152,-0.00011
1809.14280,-0.00016
1807.21407,-0.00005
1805.28535,0.00019
1803.35663,0.00038
1801.42790,0.00035
1799.49918,0.00023
1797.57046,0.00032
1795.64173,0.00057
1793.71301,0.00057
1791.78428,0.00028
1789.85556,0.00027
1787.92684,0.00076
1785.99811,0.00134
1784.06939,0.00167
1782.14067,0.00178
1780.21194,0.00183
1778.28322,0.00196
1776.35450,0.00217
1774.42577,0.00222
1772.49705,0.00202
1770.56832,0.00195
1768.63960,0.00229
1766.71088,0.00277
1764.78215,0.00315
1762.85343,0.00330
1760.92471,0.00331
1758.99598,0.00342
1757.06726,0.00365
1755.13854,0.00396
1753.20981,0.00428
1751.28109,0.00433
1749.35236,0.00413
1747.42364,0.00419
1745.49492,0.00466
1743.56619,0.00527
1741.63747,0.00585
1739.70875,0.00650
1737.78002,0.00738
1735.85130,0.00826
1733.92257,0.00889
1731.99385,0.00974
1730.06513,0.01119
1728.13640,0.01293
1726.20768,0.01466
1724.27896,0.01643
1722.35023,0.01829
1720.42151,0.02007
1718.49279,0.02158
1716.56406,0.02310
1714.63534,0.02513
1712.70661,0.02757
1710.77789,0.03005
1708.84917,0.03232
1706.92044,0.03453
1704.99172,0.03691
1703.06300,0.03940
1701.13427,0.04195
1699.20555,0.04474
1697.27683,0.04786
1695.34810,0.05126
1693.41938,0.05462
1691.49065,0.05776
1689.56193,0.06080
1687.63321,0.06368
1685.70448,0.06650
1683.77576,0.06968
1681.84704,0.07307
1679.91831,0.07623
1677.98959,0.07911
1676.06087,0.08184
1674.13214,0.08453
1672.20342,0.08712
1670.27469,0.08971
1668.34597,0.09250
1666.41725,0.09527
1664.48852,0.09782
1662.55980,0.10030
1660.63108,0.10293
1658.70235,0.10558
1656.77363,0.10786
1654.84490,0.10962
1652.91618,0.11120
1650.98746,0.11312
1649.05873,0.11513
1647.13001,0.11700
1645.20129,0.11890
1643.27256,0.12090
1641.34384,0.12274
1639.41512,0.12406
1637.48639,0.12460
1635.55767,0.12460
1633.62894,0.12482
1631.70022,0.12528
1629.77150,0.12522
1627.84277,0.12432
1625.91405,0.12280
1623.98533,0.12066
1622.05660,0.11831
1620.12788,0.11622
1618.19916,0.11350
1616.27043,0.10951
1614.34171,0.10577
1612.41298,0.10289
1610.48426,0.09979
1608.55554,0.09606
1606.62681,0.09217
1604.69809,0.08836
1602.76937,0.08459
1600.84064,0.08095
1598.91192,0.07760
1596.98319,0.07447
1595.05447,0.07145
1593.12575,0.06865
1591.19702,0.06611
1589.26830,0.06375
1587.33958,0.06154
1585.41085,0.05946
1583.48213,0.05752
1581.55341,0.05580
1579.62468,0.05417
1577.69596,0.05217
1575.76723,0.04989
1573.83851,0.04842
1571.90979,0.04763
1569.98106,0.04649
1568.05234,0.04512
1566.12362,0.04414
1564.19489,0.04349
1562.26617,0.04276
1560.33745,0.04098
1558.40872,0.03813
1556.48000,0.03660
1554.55127,0.03652
1552.62255,0.03642
1550.69383,0.03583
1548.76510,0.03506
1546.83638,0.03427
1544.90766,0.03310
1542.97893,0.03114
1541.05021,0.02860
1539.12148,0.02676
1537.19276,0.02655
1535.26404,0.02654
1533.33531,0.02564
1531.40659,0.02456
1529.47787,0.02377
1527.54914,0.02271
1525.62042,0.02122
1523.69170,0.01957
1521.76297,0.01776
1519.83425,0.01620
1517.90552,0.01518
1515.97680,0.01441
1514.04808,0.01385
1512.11935,0.01330
1510.19063,0.01218
1508.26191,0.00978
1506.33318,0.00674
1504.40446,0.00534
1502.47574,0.00533
1500.54701,0.00510
1498.61829,0.00409
1496.68956,0.00282
1494.76084,0.00209
1492.83212,0.00179
1490.90339,0.00123
1488.97467,0.00039
1487.04595,0.00000
1485.11722,0.00023
1483.18850,0.00065
1481.25977,0.00092
1479.33105,0.00109
1477.40233,0.00127
1475.47360,0.00151
1473.54488,0.00198
1471.61616,0.00304
1469.68743,0.00461
1467.75871,0.00607
1465.82999,0.00700
1463.90126,0.00759
1461.97254,0.00824
1460.04381,0.00871
1458.11509,0.00861
1456.18637,0.00844
1454.25764,0.00896
1452.32892,0.00980
1450.40020,0.01025
1448.47147,0.01032
1446.54275,0.01043
1444.61403,0.01077
1442.68530,0.01118
1440.75658,0.01153
1438.82785,0.01165
1436.89913,0.01143
1434.97041,0.01128
1433.04168,0.01159
1431.11296,0.01207
1429.18424,0.01251
1427.25551,0.01298
1425.32679,0.01341
1423.39806,0.01379
1421.46934,0.01416
1419.54062,0.01443
1417.61189,0.01477
1415.68317,0.01553
1413.75445,0.01654
1411.82572,0.01747
1409.89700,0.01832
1407.96828,0.01914
1406.03955,0.01989
1404.11083,0.02050
1402.18210,0.02088
1400.25338,0.02080
1398.32466,0.02007
1396.39593,0.01872
1394.46721,0.01696
1392.53849,0.01541
1390.60976,0.01430
1388.68104,0.01330
1386.75232,0.01235
1384.82359,0.01165
1382.89487,0.01097
1380.96614,0.00998
1379.03742,0.00885
1377.10870,0.00785
1375.17997,0.00697
1373.25125,0.00622
1371.32253,0.00567
1369.39380,0.00519
1367.46508,0.00471
1365.53635,0.00419
1363.60763,0.00355
1361.67891,0.00290
1359.75018,0.00252
1357.82146,0.00233
1355.89274,0.00207
1353.96401,0.00170
1352.03529,0.00135
1350.10657,0.00115
1348.17784,0.00103
1346.24912,0.00086
1344.32039,0.00062
1342.39167,0.00031
1340.46295,0.00000
1338.53422,-0.00033
1336.60550,-0.00050
1334.67678,-0.00063
1332.74805,-0.00078
1330.81933,-0.00086
1328.89061,-0.00083
1326.96188,-0.00075
1325.03316,-0.00066
1323.10443,-0.00060
1321.17571,-0.00057
1319.24699,-0.00054
1317.31826,-0.00051
1315.38954,-0.00044
1313.46082,-0.00027
1311.53209,0.00000
1309.60337,0.00021
1307.67464,0.00038
1305.74592,0.00069
1303.81720,0.00119
1301.88847,0.00179
1299.95975,0.00244
1298.03103,0.00321
1296.10230,0.00406
1294.17358,0.00485
1292.24486,0.00553
1290.31613,0.00618
1288.38741,0.00690
1286.45868,0.00779
1284.52996,0.00887
1282.60124,0.01015
1280.67251,0.01162
1278.74379,0.01333
1276.81507,0.01526
1274.88634,0.01740
1272.95762,0.01990
1271.02890,0.02297
1269.10017,0.02662
1267.17145,0.03072
1265.24272,0.03523
1263.31400,0.04024
1261.38528,0.04582
1259.45655,0.05202
1257.52783,0.05875
1255.59911,0.06577
1253.67038,0.07289
1251.74166,0.07995
1249.81294,0.08682
1247.88421,0.09336
1245.95549,0.09930
1244.02676,0.10452
1242.09804,0.10917
1240.16932,0.11352
1238.24059,0.11771
1236.31187,0.12175
1234.38315,0.12559
1232.45442,0.12915
1230.52570,0.13244
1228.59697,0.13573
1226.66825,0.13926
1224.73953,0.14289
1222.81080,0.14641
1220.88208,0.14978
1218.95336,0.15308
1217.02463,0.15639
1215.09591,0.15965
1213.16719,0.16284
1211.23846,0.16610
1209.30974,0.16944
1207.38101,0.17295
1205.45229,0.17658
1203.52357,0.18005
1201.59484,0.18323
1199.66612,0.18628
1197.73740,0.18950
1195.80867,0.19267
1193.87995,0.19556
1191.95123,0.19831
1190.02250,0.20103
1188.09378,0.20367
1186.16505,0.20637
1184.23633,0.20908
1182.30761,0.21163
1180.37888,0.21423
1178.45016,0.21699
1176.52144,0.21971
1174.59271,0.22233
1172.66399,0.22484
1170.73526,0.22701
1168.80654,0.22890
1166.87782,0.23099
1164.94909,0.23345
1163.02037,0.23607
1161.09165,0.23873
1159.16292,0.24125
1157.23420,0.24335
1155.30548,0.24499
1153.37675,0.24651
1151.44803,0.24848
1149.51930,0.25108
1147.59058,0.25389
1145.66186,0.25641
1143.73313,0.25859
1141.80441,0.26062
1139.87569,0.26279
1137.94696,0.26525
1136.01824,0.26773
1134.08952,0.27017
1132.16079,0.27280
1130.23207,0.27542
1128.30334,0.27781
1126.37462,0.28029
1124.44590,0.28327
1122.51717,0.28675
1120.58845,0.29027
1118.65973,0.29343
1116.73100,0.29657
1114.80228,0.30011
1112.87355,0.30391
1110.94483,0.30766
1109.01611,0.31125
1107.08738,0.31490
1105.15866,0.31866
1103.22994,0.32193
1101.30121,0.32438
1099.37249,0.32655
1097.44377,0.32892
1095.51504,0.33122
1093.58632,0.33323
1091.65759,0.33512
1089.72887,0.33662
1087.80015,0.33742
1085.87142,0.33840
1083.94270,0.34003
1082.01398,0.34149
1080.08525,0.34254
1078.15653,0.34356
1076.22781,0.34470
1074.29908,0.34606
1072.37036,0.34781
1070.44163,0.34984
1068.51291,0.35169
1066.58419,0.35307
1064.65546,0.35423
1062.72674,0.35577
1060.79802,0.35749
1058.86929,0.35909
1056.94057,0.36085
1055.01184,0.36263
1053.08312,0.36381
1051.15440,0.36444
1049.22567,0.36504
1047.29695,0.36527
1045.36823,0.36483
1043.43950,0.36429
1041.51078,0.36402
1039.58206,0.36343
1037.65333,0.36200
1035.72461,0.36022
1033.79588,0.35840
1031.86716,0.35628
1029.93844,0.35372
1028.00971,0.35073
1026.08099,0.34755
1024.15227,0.34447
1022.22354,0.34163
1020.29482,0.33868
1018.36610,0.33510
1016.43737,0.33101
1014.50865,0.32677
1012.57992,0.32232
1010.65120,0.31766
1008.72248,0.31282
1006.79375,0.30772
1004.86503,0.30241
1002.93631,0.29689
1001.00758,0.29111
999.07886,0.28516
997.15013,0.27925
995.22141,0.27356
993.29269,0.26793
991.36396,0.26219
989.43524,0.25643
987.50652,0.25052
985.57779,0.24463
983.64907,0.23910
981.72035,0.23363
979.79162,0.22809
977.86290,0.22297
975.93417,0.21838
974.00545,0.21408
972.07673,0.20988
970.14800,0.20549
968.21928,0.20105
966.29056,0.19724
964.36183,0.19399
962.43311,0.19057
960.50439,0.18711
958.57566,0.18407
956.64694,0.18123
954.71821,0.17835
952.78949,0.17548
950.86077,0.17257
948.93204,0.16952
947.00332,0.16628
945.07460,0.16313
943.14587,0.16050
941.21715,0.15804
939.28842,0.15505
937.35970,0.15179
935.43098,0.14883
933.50225,0.14612
931.57353,0.14349
929.64481,0.14081
927.71608,0.13804
925.78736,0.13543
923.85864,0.13325
921.92991,0.13125
920.00119,0.12900
918.07246,0.12639
916.14374,0.12369
914.21502,0.12112
912.28629,0.11852
910.35757,0.11565
908.42885,0.11254
906.50012,0.10948
904.57140,0.10675
902.64268,0.10402
900.71395,0.10098
898.78523,0.09791
896.85650,0.09500
894.92778,0.09202
892.99906,0.08910
891.07033,0.08642
889.14161,0.08375
887.21289,0.08112
885.28416,0.07876
883.35544,0.07641
881.42671,0.07372
879.49799,0.07094
877.56927,0.06838
875.64054,0.06612
873.71182,0.06416
871.78310,0.06226
869.85437,0.06023
867.92565,0.05792
865.99693,0.05518
864.06820,0.05230
862.13948,0.04977
860.21075,0.04759
858.28203,0.04544
856.35331,0.04319
854.42458,0.04103
852.49586,0.03922
850.56714,0.03787
848.63841,0.03669
846.70969,0.03542
844.78097,0.03438
842.85224,0.03406
840.92352,0.03451
838.99479,0.03529
837.06607,0.03612
835.13735,0.03711
833.20862,0.03830
831.27990,0.03978
829.35118,0.04175
827.42245,0.04391
825.49373,0.04575
823.56501,0.04684
821.63628,0.04724
819.70756,0.04795
817.77883,0.04952
815.85011,0.05114
813.92139,0.05241
811.99266,0.05365
810.06394,0.05491
808.13522,0.05622
806.20649,0.05789
804.27777,0.05966
802.34904,0.06107
800.42032,0.06207
798.49160,0.06262
796.56287,0.06269
794.63415,0.06240
792.70543,0.06178
790.77670,0.06091
788.84798,0.05992
786.91926,0.05877
784.99053,0.05754
783.06181,0.05640
781.13308,0.05517
779.20436,0.05369
777.27564,0.05198
775.34691,0.04989
773.41819,0.04753
771.48947,0.04530
769.56074,0.04347
767.63202,0.04222
765.70330,0.04146
763.77457,0.04071
761.84585,0.03992
759.91712,0.03952
757.98840,0.03940
756.05968,0.03915
754.13095,0.03874
752.20223,0.03849
750.27351,0.03837
748.34478,0.03806
746.41606,0.03763
744.48733,0.03735
742.55861,0.03722
740.62989,0.03723
738.70116,0.03720
736.77244,0.03708
734.84372,0.03714
732.91499,0.03714
730.98627,0.03681
729.05755,0.03651
727.12882,0.03662
725.20010,0.03694
723.27137,0.03697
721.34265,0.03674
719.41393,0.03670
717.48520,0.03688
715.55648,0.03705
713.62776,0.03708
711.69903,0.03699
709.77031,0.03693
707.84159,0.03686
705.91286,0.03692
703.98414,0.03755
702.05541,0.03862
700.12669,0.03956
698.19797,0.04042
696.26924,0.04156
694.34052,0.04280
692.41180,0.04353
690.48307,0.04373
688.55435,0.04423
686.62562,0.04530
684.69690,0.04610
682.76818,0.04609
680.83945,0.04573
678.91073,0.04535
676.98201,0.04486
675.05328,0.04453
673.12456,0.04460
671.19584,0.04480
669.26711,0.04485
667.33839,0.04481
665.40966,0.04475
663.48094,0.04440
661.55222,0.04368
659.62349,0.04325
657.69477,0.04394
655.76605,0.04561
653.83732,0.04711
651.90860,0.04763
649.97988,0.04776
648.05115,0.04855
646.12243,0.04992
644.19370,0.05102
642.26498,0.05147
640.33626,0.05165
638.40753,0.05211
636.47881,0.05287
634.55009,0.05358
632.62136,0.05411
630.69264,0.05443
628.76391,0.05454
626.83519,0.05475
624.90647,0.05553
622.97774,0.05642
621.04902,0.05686
619.12030,0.05760
617.19157,0.05927
615.26285,0.06064
613.33413,0.06104
611.40540,0.06177
609.47668,0.06337
607.54795,0.06488
605.61923,0.06581
603.69051,0.06670
601.76178,0.06837
599.83306,0.07073
597.90434,0.07269
595.97561,0.07380
594.04689,0.07466
592.11817,0.07607
590.18944,0.07774
588.26072,0.07823
586.33199,0.07777
584.40327,0.07821
582.47455,0.07981
580.54582,0.08126
578.61710,0.08204
576.68838,0.08271
574.75965,0.08366
572.83093,0.08461
570.90220,0.08526
568.97348,0.08562
567.04476,0.08618
565.11603,0.08701
563.18731,0.08746
561.25859,0.08774
559.32986,0.08842
557.40114,0.08953
555.47242,0.09136
553.54369,0.09374
551.61497,0.09567
549.68624,0.09722
547.75752,0.09953
545.82880,0.10252
543.90007,0.10526
541.97135,0.10774
540.04263,0.11001
538.11390,0.11142
536.18518,0.11229
534.25646,0.11386
532.32773,0.11623
530.39901,0.11826
528.47028,0.11917
526.54156,0.11951
524.61284,0.12043
522.68411,0.12232
520.75539,0.12479
518.82667,0.12693
516.89794,0.12821
514.96922,0.13022
513.04049,0.13439
511.11177,0.13893
509.18305,0.14156
507.25432,0.14313
505.32560,0.14540
503.39688,0.14874
501.46815,0.15337
499.53943,0.15879
497.61071,0.16380
495.68198,0.16861
493.75326,0.17431
491.82453,0.18086
489.89581,0.18688
487.96709,0.19125
486.03836,0.19436
484.10964,0.19781
482.18092,0.20271
480.25219,0.20870
478.32347,0.21463
476.39475,0.21958
474.46602,0.22266
472.53730,0.22328
470.60857,0.22350
468.67985,0.22573
466.75113,0.22857
464.82240,0.23034
462.89368,0.23197
460.96496,0.23305
459.03623,0.23039
457.10751,0.22343
455.17878,0.21668
453.25006,0.21329
451.32134,0.21255
449.39261,0.21264
447.46389,0.21128
445.53517,0.20732
443.60644,0.20264
441.67772,0.19905
439.74900,0.19590
437.82027,0.19239
435.89155,0.18859
433.96282,0.18494
432.03410,0.18186
430.10538,0.17898
428.17665,0.17480
426.24793,0.16720
424.31921,0.15701
422.39048,0.14980
420.46176,0.14842
418.53304,0.14685
416.60431,0.13833
414.67559,0.12766
412.74686,0.12243
410.81814,0.12123
408.88942,0.11661
406.96069,0.10666
405.03197,0.09514
403.10325,0.08508
401.17452,0.07846
399.24580,0.07742
397.31708,0.08265
395.38835,0.08730
393.45963,0.08391
391.53090,0.07621
389.60218,0.07340
387.67346,0.07275
385.74473,0.05904
383.81601,0.03252
381.88729,0.02102
379.95856,0.04015
378.02984,0.06614
376.10111,0.06496
374.17239,0.04017
372.24367,0.02057
370.31494,0.00992
368.38622,0.00000
