3996.31543,0.00008
3994.38671,0.00003
3992.45799,0.00000
3990.52926,-0.00001
3988.60054,0.00002
3986.67182,0.00014
3984.74309,0.00032
3982.81437,0.00042
3980.88564,0.00039
3978.95692,0.00027
3977.02820,0.00014
3975.09947,0.00011
3973.17075,0.00015
3971.24203,0.00019
3969.31330,0.00021
3967.38458,0.00019
3965.45586,0.00018
3963.52713,0.00022
3961.59841,0.00016
3959.66968,-0.00001
3957.74096,-0.00004
3955.81224,0.00015
3953.88351,0.00035
3951.95479,0.00041
3950.02607,0.00047
3948.09734,0.00066
3946.16862,0.00089
3944.23990,0.00096
3942.31117,0.00081
3940.38245,0.00055
3938.45372,0.00037
3936.52500,0.00036
3934.59628,0.00050
3932.66755,0.00067
3930.73883,0.00071
3928.81011,0.00065
3926.88138,0.00064
3924.95266,0.00062
3923.02393,0.00050
3921.09521,0.00035
3919.16649,0.00024
3917.23776,0.00023
3915.30904,0.00025
3913.38032,0.00020
3911.45159,0.00013
3909.52287,0.00017
3907.59415,0.00036
3905.66542,0.00067
3903.73670,0.00095
3901.80797,0.00095
3899.87925,0.00067
3897.95053,0.00039
3896.02180,0.00034
3894.09308,0.00045
3892.16436,0.00052
3890.23563,0.00041
3888.30691,0.00024
3886.37819,0.00018
3884.44946,0.00020
3882.52074,0.00021
3880.59201,0.00021
3878.66329,0.00026
3876.73457,0.00039
3874.80584,0.00055
3872.87712,0.00057
3870.94840,0.00038
3869.01967,0.00016
3867.09095,0.00004
3865.16222,0.00000
3863.23350,-0.00001
3861.30478,0.00006
3859.37605,0.00025
3857.44733,0.00064
3855.51861,0.00113
3853.58988,0.00129
3851.66116,0.00091
3849.73244,0.00050
3847.80371,0.00035
3845.87499,0.00038
3843.94626,0.00047
3842.01754,0.00059
3840.08882,0.00064
3838.16009,0.00042
3836.23137,0.00010
3834.30265,0.00007
3832.37392,0.00026
3830.44520,0.00044
3828.51648,0.00064
3826.58775,0.00091
3824.65903,0.00116
3822.73030,0.00128
3820.80158,0.00116
3818.87286,0.00096
3816.94413,0.00093
3815.01541,0.00106
3813.08669,0.00112
3811.15796,0.00110
3809.22924,0.00116
3807.30052,0.00129
3805.37179,0.00130
3803.44307,0.00118
3801.51434,0.00116
3799.58562,0.00132
3797.65690,0.00157
3795.72817,0.00184
3793.79945,0.00212
3791.87073,0.00232
3789.94200,0.00238
3788.01328,0.00240
3786.08455,0.00254
3784.15583,0.00273
3782.22711,0.00290
3780.29838,0.00312
3778.36966,0.00336
3776.44094,0.00349
3774.51221,0.00350
3772.58349,0.00349
3770.65477,0.00360
3768.72604,0.00395
3766.79732,0.00448
3764.86859,0.00497
3762.93987,0.00534
3761.01115,0.00582
3759.08242,0.00654
3757.15370,0.00720
3755.22498,0.00761
3753.29625,0.00803
3751.36753,0.00865
3749.43881,0.00921
3747.51008,0.00953
3745.58136,0.00999
3743.65263,0.01086
3741.72391,0.01181
3739.79519,0.01262
3737.86646,0.01349
3735.93774,0.01451
3734.00902,0.01562
3732.08029,0.01682
3730.15157,0.01808
3728.22284,0.01942
3726.29412,0.02089
3724.36540,0.02244
3722.43667,0.02418
3720.50795,0.02624
3718.57923,0.02856
3716.65050,0.03090
3714.72178,0.03328
3712.79306,0.03617
3710.86433,0.03962
3708.93561,0.04290
3707.00688,0.04577
3705.07816,0.04871
3703.14944,0.05220
3701.22071,0.05625
3699.29199,0.06029
3697.36327,0.06405
3695.43454,0.06759
3693.50582,0.07093
3691.57710,0.07457
3689.64837,0.07912
3687.71965,0.08406
3685.79092,0.08833
3683.86220,0.09199
3681.93348,0.09562
3680.00475,0.09941
3678.07603,0.10357
3676.14731,0.10862
3674.21858,0.11391
3672.28986,0.11832
3670.36113,0.12282
3668.43241,0.12782
3666.50369,0.13214
3664.57496,0.13584
3662.64624,0.13956
3660.71752,0.14329
3658.78879,0.14686
3656.86007,0.15044
3654.93135,0.15385
3653.00262,0.15670
3651.07390,0.15966
3649.14517,0.16358
3647.21645,0.16769
3645.28773,0.17080
3643.35900,0.17321
3641.43028,0.17568
3639.50156,0.17833
3637.57283,0.18090
3635.64411,0.18332
3633.71539,0.18549
3631.78666,0.18744
3629.85794,0.18978
3627.92921,0.19278
3626.00049,0.19540
3624.07177,0.19723
3622.14304,0.19882
3620.21432,0.20064
3618.28560,0.20250
3616.35687,0.20397
3614.42815,0.20510
3612.49942,0.20623
3610.57070,0.20753
3608.64198,0.20913
3606.71325,0.21098
3604.78453,0.21268
3602.85581,0.21409
3600.92708,0.21548
3598.99836,0.21697
3597.06964,0.21846
3595.14091,0.21999
3593.21219,0.22149
3591.28346,0.22283
3589.35474,0.22425
3587.42602,0.22594
3585.49729,0.22756
3583.56857,0.22889
3581.63985,0.23003
3579.71112,0.23109
3577.78240,0.23227
3575.85368,0.23377
3573.92495,0.23542
3571.99623,0.23683
3570.06750,0.23791
3568.13878,0.23900
3566.21006,0.24036
3564.28133,0.24183
3562.35261,0.24325
3560.42389,0.24460
3558.49516,0.24587
3556.56644,0.24709
3554.63771,0.24835
3552.70899,0.24966
3550.78027,0.25085
3548.85154,0.25184
3546.92282,0.25291
3544.99410,0.25415
3543.06537,0.25531
3541.13665,0.25632
3539.20793,0.25736
3537.27920,0.25852
3535.35048,0.25971
3533.42175,0.26084
3531.49303,0.26194
3529.56431,0.26306
3527.63558,0.26416
3525.70686,0.26523
3523.77814,0.26633
3521.84941,0.26745
3519.92069,0.26852
3517.99197,0.26959
3516.06324,0.27074
3514.13452,0.27188
3512.20579,0.27288
3510.27707,0.27381
3508.34835,0.27474
3506.41962,0.27561
3504.49090,0.27637
3502.56218,0.27705
3500.63345,0.27780
3498.70473,0.27863
3496.77600,0.27942
3494.84728,0.28023
3492.91856,0.28113
3490.98983,0.28203
3489.06111,0.28281
3487.13239,0.28354
3485.20366,0.28433
3483.27494,0.28518
3481.34622,0.28613
3479.41749,0.28719
3477.48877,0.28830
3475.56004,0.28925
3473.63132,0.28990
3471.70260,0.29039
3469.77387,0.29095
3467.84515,0.29172
3465.91643,0.29247
3463.98770,0.29298
3462.05898,0.29332
3460.13026,0.29373
3458.20153,0.29439
3456.27281,0.29523
3454.34408,0.29591
3452.41536,0.29636
3450.48664,0.29686
3448.55791,0.29742
3446.62919,0.29790
3444.70047,0.29829
3442.77174,0.29867
3440.84302,0.29921
3438.91429,0.29981
3436.98557,0.30026
3435.05685,0.30059
3433.12812,0.30080
3431.19940,0.30104
3429.27068,0.30134
3427.34195,0.30143
3425.41323,0.30129
3423.48451,0.30143
3421.55578,0.30208
3419.62706,0.30278
3417.69833,0.30319
3415.76961,0.30343
3413.84089,0.30355
3411.91216,0.30365
3409.98344,0.30381
3408.05472,0.30378
3406.12599,0.30372
3404.19727,0.30398
3402.26855,0.30431
3400.33982,0.30439
3398.41110,0.30422
3396.48237,0.30394
3394.55365,0.30364
3392.62493,0.30339
3390.69620,0.30317
3388.76748,0.30299
3386.83876,0.30295
3384.91003,0.30290
3382.98131,0.30259
3381.05259,0.30228
3379.12386,0.30222
3377.19514,0.30212
3375.26641,0.30170
3373.33769,0.30108
3371.40897,0.30057
3369.48024,0.30038
3367.55152,0.30036
3365.62280,0.30027
3363.69407,0.29993
3361.76535,0.29942
3359.83662,0.29898
3357.90790,0.29866
3355.97918,0.29839
3354.05045,0.29813
3352.12173,0.29785
3350.19301,0.29754
3348.26428,0.29718
3346.33556,0.29666
3344.40684,0.29612
3342.47811,0.29575
3340.54939,0.29550
3338.62066,0.29514
3336.69194,0.29451
3334.76322,0.29374
3332.83449,0.29315
3330.90577,0.29291
3328.97705,0.29281
3327.04832,0.29247
3325.11960,0.29186
3323.19088,0.29124
3321.26215,0.29068
3319.33343,0.29014
3317.40470,0.28975
3315.47598,0.28952
3313.54726,0.28931
3311.61853,0.28888
3309.68981,0.28820
3307.76109,0.28757
3305.83236,0.28726
3303.90364,0.28713
3301.97491,0.28682
3300.04619,0.28637
3298.11747,0.28605
3296.18874,0.28574
3294.26002,0.28521
3292.33130,0.28467
3290.40257,0.28435
3288.47385,0.28415
3286.54513,0.28389
3284.61640,0.28352
3282.68768,0.28303
3280.75895,0.28250
3278.83023,0.28211
3276.90151,0.28181
3274.97278,0.28131
3273.04406,0.28061
3271.11534,0.28000
3269.18661,0.27959
3267.25789,0.27928
3265.32917,0.27899
3263.40044,0.27865
3261.47172,0.27827
3259.54299,0.27776
3257.61427,0.27713
3255.68555,0.27664
3253.75682,0.27629
3251.82810,0.27578
3249.89938,0.27512
3247.97065,0.27469
3246.04193,0.27443
3244.11320,0.27400
3242.18448,0.27350
3240.25576,0.27312
3238.32703,0.27260
3236.39831,0.27184
3234.46959,0.27106
3232.54086,0.27040
3230.61214,0.26983
3228.68342,0.26922
3226.75469,0.26858
3224.82597,0.26794
3222.89724,0.26719
3220.96852,0.26642
3219.03980,0.26573
3217.11107,0.26508
3215.18235,0.26439
3213.25363,0.26364
3211.32490,0.26283
3209.39618,0.26201
3207.46746,0.26128
3205.53873,0.26059
3203.61001,0.25975
3201.68128,0.25881
3199.75256,0.25797
3197.82384,0.25724
3195.89511,0.25652
3193.96639,0.25577
3192.03767,0.25502
3190.10894,0.25421
3188.18022,0.25323
3186.25149,0.25215
3184.32277,0.25114
3182.39405,0.25019
3180.46532,0.24935
3178.53660,0.24863
3176.60788,0.24781
3174.67915,0.24690
3172.75043,0.24601
3170.82171,0.24497
3168.89298,0.24373
3166.96426,0.24256
3165.03553,0.24165
3163.10681,0.24081
3161.17809,0.23983
3159.24936,0.23891
3157.32064,0.23813
3155.39192,0.23721
3153.46319,0.23614
3151.53447,0.23521
3149.60575,0.23434
3147.67702,0.23326
3145.74830,0.23212
3143.81957,0.23111
3141.89085,0.23010
3139.96213,0.22901
3138.03340,0.22798
3136.10468,0.22704
3134.17596,0.22609
3132.24723,0.22508
3130.31851,0.22405
3128.38978,0.22307
3126.46106,0.22214
3124.53234,0.22117
3122.60361,0.22009
3120.67489,0.21895
3118.74617,0.21791
3116.81744,0.21705
3114.88872,0.21619
3112.96000,0.21515
3111.03127,0.21408
3109.10255,0.21305
3107.17382,0.21193
3105.24510,0.21070
3103.31638,0.20954
3101.38765,0.20844
3099.45893,0.20729
3097.53021,0.20614
3095.60148,0.20499
3093.67276,0.20379
3091.74404,0.20260
3089.81531,0.20148
3087.88659,0.20039
3085.95786,0.19929
3084.02914,0.19819
3082.10042,0.19703
3080.17169,0.19587
3078.24297,0.19475
3076.31425,0.19358
3074.38552,0.19242
3072.45680,0.19133
3070.52807,0.19019
3068.59935,0.18888
3066.67063,0.18744
3064.74190,0.18611
3062.81318,0.18504
3060.88446,0.18402
3058.95573,0.18288
3057.02701,0.18173
3055.09829,0.18058
3053.16956,0.17942
3051.24084,0.17825
3049.31211,0.17701
3047.38339,0.17569
3045.45467,0.17448
3043.52594,0.17334
3041.59722,0.17217
3039.66850,0.17105
3037.73977,0.17007
3035.81105,0.16914
3033.88233,0.16812
3031.95360,0.16698
3030.02488,0.16587
3028.09615,0.16489
3026.16743,0.16395
3024.23871,0.16292
3022.30998,0.16178
3020.38126,0.16069
3018.45254,0.15978
3016.52381,0.15895
3014.59509,0.15799
3012.66636,0.15694
3010.73764,0.15596
3008.80892,0.15507
3006.88019,0.15408
3004.95147,0.15300
3003.02275,0.15202
3001.09402,0.15117
2999.16530,0.15036
2997.23658,0.14959
2995.30785,0.14888
2993.37913,0.14825
2991.45040,0.14770
2989.52168,0.14713
2987.59296,0.14653
2985.66423,0.14598
2983.73551,0.14540
2981.80679,0.14480
2979.87806,0.14425
2977.94934,0.14385
2976.02062,0.14367
2974.09189,0.14357
2972.16317,0.14330
2970.23444,0.14293
2968.30572,0.14268
2966.37700,0.14250
2964.44827,0.14226
2962.51955,0.14196
2960.59083,0.14148
2958.66210,0.14077
2956.73338,0.14002
2954.80466,0.13938
2952.87593,0.13869
2950.94721,0.13804
2949.01848,0.13757
2947.08976,0.13716
2945.16104,0.13676
2943.23231,0.13651
2941.30359,0.13649
2939.37487,0.13658
2937.44614,0.13673
2935.51742,0.13708
2933.58869,0.13741
2931.65997,0.13741
2929.73125,0.13711
2927.80252,0.13666
2925.87380,0.13595
2923.94508,0.13471
2922.01635,0.13295
2920.08763,0.13093
2918.15891,0.12889
2916.23018,0.12697
2914.30146,0.12519
2912.37273,0.12348
2910.44401,0.12177
2908.51529,0.12002
2906.58656,0.11825
2904.65784,0.11662
2902.72912,0.11518
2900.80039,0.11395
2898.87167,0.11285
2896.94295,0.11172
2895.01422,0.11056
2893.08550,0.10943
2891.15677,0.10826
2889.22805,0.10705
2887.29933,0.10592
2885.37060,0.10482
2883.44188,0.10380
2881.51316,0.10308
2879.58443,0.10256
2877.65571,0.10194
2875.72698,0.10124
2873.79826,0.10056
2871.86954,0.09983
2869.94081,0.09914
2868.01209,0.09857
2866.08337,0.09796
2864.15464,0.09737
2862.22592,0.09700
2860.29720,0.09688
2858.36847,0.09686
2856.43975,0.09673
2854.51102,0.09637
2852.58230,0.09557
2850.65358,0.09415
2848.72485,0.09219
2846.79613,0.09003
2844.86741,0.08794
2842.93868,0.08599
2841.00996,0.08419
2839.08124,0.08252
2837.15251,0.08096
2835.22379,0.07960
2833.29506,0.07845
2831.36634,0.07735
2829.43762,0.07622
2827.50889,0.07519
2825.58017,0.07439
2823.65145,0.07367
2821.72272,0.07290
2819.79400,0.07210
2817.86527,0.07126
2815.93655,0.07037
2814.00783,0.06955
2812.07910,0.06889
2810.15038,0.06825
2808.22166,0.06757
2806.29293,0.06688
2804.36421,0.06618
2802.43549,0.06546
2800.50676,0.06476
2798.57804,0.06407
2796.64931,0.06338
2794.72059,0.06273
2792.79187,0.06207
2790.86314,0.06133
2788.93442,0.06064
2787.00570,0.06010
2785.07697,0.05957
2783.14825,0.05890
2781.21953,0.05814
2779.29080,0.05746
2777.36208,0.05684
2775.43335,0.05623
2773.50463,0.05566
2771.57591,0.05508
2769.64718,0.05444
2767.71846,0.05371
2765.78974,0.05296
2763.86101,0.05229
2761.93229,0.05179
2760.00356,0.05134
2758.07484,0.05082
2756.14612,0.05027
2754.21739,0.04975
2752.28867,0.04920
2750.35995,0.04852
2748.43122,0.04786
2746.50250,0.04733
2744.57378,0.04686
2742.64505,0.04641
2740.71633,0.04592
2738.78760,0.04536
2736.85888,0.04475
2734.93016,0.04409
2733.00143,0.04345
2731.07271,0.04293
2729.14399,0.04252
2727.21526,0.04208
2725.28654,0.04155
2723.35782,0.04103
2721.42909,0.04051
2719.50037,0.03996
2717.57164,0.03941
2715.64292,0.03884
2713.71420,0.03829
2711.78547,0.03780
2709.85675,0.03729
2707.92803,0.03673
2705.99930,0.03617
2704.07058,0.03565
2702.14185,0.03522
2700.21313,0.03485
2698.28441,0.03444
2696.35568,0.03401
2694.42696,0.03360
2692.49824,0.03321
2690.56951,0.03278
2688.64079,0.03220
2686.71207,0.03163
2684.78334,0.03121
2682.85462,0.03081
2680.92589,0.03030
2678.99717,0.02985
2677.06845,0.02958
2675.13972,0.02933
2673.21100,0.02894
2671.28228,0.02845
2669.35355,0.02793
2667.42483,0.02740
2665.49611,0.02689
2663.56738,0.02648
2661.63866,0.02620
2659.70993,0.02588
2657.78121,0.02536
2655.85249,0.02481
2653.92376,0.02440
2651.99504,0.02409
2650.06632,0.02379
2648.13759,0.02346
2646.20887,0.02309
2644.28014,0.02269
2642.35142,0.02223
2640.42270,0.02180
2638.49397,0.02147
2636.56525,0.02110
2634.63653,0.02064
2632.70780,0.02024
2630.77908,0.01992
2628.85036,0.01960
2626.92163,0.01933
2624.99291,0.01910
2623.06418,0.01878
2621.13546,0.01843
2619.20674,0.01817
2617.27801,0.01794
2615.34929,0.01763
2613.42057,0.01726
2611.49184,0.01693
2609.56312,0.01664
2607.63440,0.01637
2605.70567,0.01610
2603.77695,0.01581
2601.84822,0.01549
2599.91950,0.01515
2597.99078,0.01484
2596.06205,0.01454
2594.13333,0.01425
2592.20461,0.01392
2590.27588,0.01356
2588.34716,0.01324
2586.41843,0.01298
2584.48971,0.01272
2582.56099,0.01247
2580.63226,0.01225
2578.70354,0.01205
2576.77482,0.01184
2574.84609,0.01161
2572.91737,0.01134
2570.98865,0.01106
2569.05992,0.01077
2567.13120,0.01051
2565.20247,0.01029
2563.27375,0.01013
2561.34503,0.00998
2559.41630,0.00979
2557.48758,0.00953
2555.55886,0.00924
2553.63013,0.00894
2551.70141,0.00869
2549.77269,0.00852
2547.84396,0.00842
2545.91524,0.00828
2543.98651,0.00801
2542.05779,0.00767
2540.12907,0.00741
2538.20034,0.00725
2536.27162,0.00710
2534.34290,0.00691
2532.41417,0.00671
2530.48545,0.00654
2528.55673,0.00637
2526.62800,0.00622
2524.69928,0.00610
2522.77055,0.00600
2520.84183,0.00590
2518.91311,0.00573
2516.98438,0.00551
2515.05566,0.00537
2513.12694,0.00532
2511.19821,0.00523
2509.26949,0.00507
2507.34076,0.00494
2505.41204,0.00485
2503.48332,0.00475
2501.55459,0.00459
2499.62587,0.00442
2497.69715,0.00429
2495.76842,0.00423
2493.83970,0.00418
2491.91098,0.00402
2489.98225,0.00379
2488.05353,0.00365
2486.12480,0.00361
2484.19608,0.00358
2482.26736,0.00353
2480.33863,0.00343
2478.40991,0.00328
2476.48119,0.00313
2474.55246,0.00298
2472.62374,0.00283
2470.69502,0.00278
2468.76629,0.00280
2466.83757,0.00274
2464.90884,0.00259
2462.98012,0.00246
2461.05140,0.00236
2459.12267,0.00223
2457.19395,0.00209
2455.26523,0.00201
2453.33650,0.00202
2451.40778,0.00198
2449.47905,0.00181
2447.55033,0.00168
2445.62161,0.00164
2443.69288,0.00154
2441.76416,0.00136
2439.83544,0.00125
2437.90671,0.00126
2435.97799,0.00126
2434.04927,0.00120
2432.12054,0.00113
2430.19182,0.00115
2428.26309,0.00126
2426.33437,0.00130
2424.40565,0.00118
2422.47692,0.00096
2420.54820,0.00076
2418.61948,0.00059
2416.69075,0.00048
2414.76203,0.00043
2412.83331,0.00038
2410.90458,0.00029
2408.97586,0.00023
2407.04713,0.00025
2405.11841,0.00027
2403.18969,0.00023
2401.26096,0.00014
2399.33224,0.00009
2397.40352,0.00009
2395.47479,0.00012
2393.54607,0.00012
2391.61734,0.00008
2389.68862,0.00003
2387.75990,0.00002
2385.83117,0.00001
2383.90245,0.00000
2381.97373,0.00002
2380.04500,0.00006
2378.11628,0.00007
2376.18756,0.00003
2374.25883,0.00000
2372.33011,0.00009
2370.40138,0.00028
2368.47266,0.00043
2366.54394,0.00048
2364.61521,0.00046
2362.68649,0.00048
2360.75777,0.00049
2358.82904,0.00041
2356.90032,0.00034
2354.97160,0.00035
2353.04287,0.00034
2351.11415,0.00022
2349.18542,0.00007
2347.25670,0.00003
2345.32798,0.00008
2343.39925,0.00012
2341.47053,0.00012
2339.54181,0.00014
2337.61308,0.00017
2335.68436,0.00015
2333.75563,0.00007
2331.82691,0.00001
2329.89819,-0.00002
2327.96946,-0.00005
2326.04074,-0.00003
2324.11202,0.00003
2322.18329,0.00004
2320.25457,0.00000
2318.32585,0.00001
2316.39712,0.00007
2314.46840,0.00009
2312.53967,0.00005
2310.61095,-0.00002
2308.68223,-0.00008
2306.75350,-0.00011
2304.82478,-0.00007
2302.89606,-0.00001
2300.96733,0.00001
2299.03861,-0.00001
2297.10989,-0.00005
2295.18116,-0.00005
2293.25244,-0.00001
2291.32371,0.00007
2289.39499,0.00015
2287.46627,0.00019
2285.53754,0.00013
2283.60882,-0.00002
2281.68010,-0.00012
2279.75137,-0.00010
2277.82265,-0.00006
2275.89392,-0.00004
2273.96520,-0.00002
2272.03648,0.00004
2270.10775,0.00011
2268.17903,0.00016
2266.25031,0.00014
2264.32158,0.00009
2262.39286,0.00006
2260.46414,0.00008
2258.53541,0.00013
2256.60669,0.00015
2254.67796,0.00014
2252.74924,0.00016
2250.82052,0.00018
2248.89179,0.00019
2246.96307,0.00020
2245.03435,0.00015
2243.10562,0.00007
2241.17690,0.00003
2239.24818,0.00002
2237.31945,0.00003
2235.39073,0.00004
2233.46200,0.00004
2231.53328,-0.00001
2229.60456,-0.00006
2227.67583,-0.00008
2225.74711,-0.00007
2223.81839,-0.00006
2221.88966,-0.00005
2219.96094,-0.00002
2218.03221,0.00003
2216.10349,0.00007
2214.17477,0.00011
2212.24604,0.00014
2210.31732,0.00010
2208.38860,0.00001
2206.45987,0.00000
2204.53115,0.00008
2202.60243,0.00013
2200.67370,0.00004
2198.74498,-0.00008
2196.81625,-0.00014
2194.88753,-0.00014
2192.95881,-0.00013
2191.03008,-0.00014
2189.10136,-0.00018
2187.17264,-0.00018
2185.24391,-0.00011
2183.31519,-0.00000
2181.38647,0.00008
2179.45774,0.00007
2177.52902,0.00002
2175.60029,0.00002
2173.67157,0.00009
2171.74285,0.00012
2169.81412,0.00008
2167.88540,0.00007
2165.95668,0.00011
2164.02795,0.00015
2162.09923,0.00015
2160.17050,0.00015
2158.24178,0.00013
2156.31306,0.00009
2154.38433,0.00009
2152.45561,0.00012
2150.52689,0.00012
2148.59816,0.00010
2146.66944,0.00011
2144.74072,0.00017
2142.81199,0.00025
2140.88327,0.00031
2138.95454,0.00034
2137.02582,0.00036
2135.09710,0.00033
2133.16837,0.00029
2131.23965,0.00024
2129.31093,0.00016
2127.38220,0.00008
2125.45348,0.00012
2123.52476,0.00024
2121.59603,0.00031
2119.66731,0.00024
2117.73858,0.00018
2115.80986,0.00020
2113.88114,0.00021
2111.95241,0.00014
2110.02369,0.00005
2108.09497,0.00003
2106.16624,0.00003
2104.23752,0.00004
2102.30880,0.00005
2100.38007,0.00007
2098.45135,0.00016
2096.52262,0.00024
2094.59390,0.00019
2092.66518,0.00007
2090.73645,0.00000
2088.80773,-0.00004
2086.87901,-0.00004
2084.95028,-0.00002
2083.02156,-0.00002
2081.09283,-0.00008
2079.16411,-0.00012
2077.23539,-0.00010
2075.30666,-0.00008
2073.37794,-0.00011
2071.44922,-0.00010
2069.52049,-0.00001
2067.59177,0.00014
2065.66305,0.00025
2063.73432,0.00032
2061.80560,0.00043
2059.87687,0.00060
2057.94815,0.00071
2056.01943,0.00075
2054.09070,0.00078
2052.16198,0.00089
2050.23326,0.00110
2048.30453,0.00130
2046.37581,0.00146
2044.44709,0.00164
2042.51836,0.00186
2040.58964,0.00211
2038.66091,0.00240
2036.73219,0.00270
2034.80347,0.00297
2032.87474,0.00318
2030.94602,0.00337
2029.01730,0.00357
2027.08857,0.00384
2025.15985,0.00416
2023.23112,0.00442
2021.30240,0.00456
2019.37368,0.00465
2017.44495,0.00483
2015.51623,0.00506
2013.58751,0.00522
2011.65878,0.00530
2009.73006,0.00539
2007.80134,0.00550
2005.87261,0.00561
2003.94389,0.00570
2002.01516,0.00573
2000.08644,0.00574
1998.15772,0.00574
1996.22899,0.00570
1994.30027,0.00566
1992.37155,0.00571
1990.44282,0.00582
1988.51410,0.00586
1986.58538,0.00579
1984.65665,0.00563
1982.72793,0.00546
1980.79920,0.00537
1978.87048,0.00532
1976.94176,0.00519
1975.01303,0.00498
1973.08431,0.00478
1971.15559,0.00463
1969.22686,0.00450
1967.29814,0.00437
1965.36941,0.00415
1963.44069,0.00385
1961.51197,0.00356
1959.58324,0.00336
1957.65452,0.00322
1955.72580,0.00309
1953.79707,0.00295
1951.86835,0.00278
1949.93963,0.00256
1948.01090,0.00231
1946.08218,0.00207
1944.15345,0.00184
1942.22473,0.00168
1940.29601,0.00159
1938.36728,0.00152
1936.43856,0.00142
1934.50984,0.00133
1932.58111,0.00132
1930.65239,0.00138
1928.72367,0.00142
1926.79494,0.00148
1924.86622,0.00166
1922.93749,0.00189
1921.00877,0.00203
1919.08005,0.00219
1917.15132,0.00249
1915.22260,0.00283
1913.29388,0.00317
1911.36515,0.00360
1909.43643,0.00412
1907.50770,0.00464
1905.57898,0.00517
1903.65026,0.00574
1901.72153,0.00630
1899.79281,0.00683
1897.86409,0.00738
1895.93536,0.00797
1894.00664,0.00854
1892.07792,0.00903
1890.14919,0.00952
1888.22047,0.01006
1886.29174,0.01058
1884.36302,0.01101
1882.43430,0.01130
1880.50557,0.01147
1878.57685,0.01159
1876.64813,0.01173
1874.71940,0.01180
1872.79068,0.01175
1870.86196,0.01159
1868.93323,0.01135
1867.00451,0.01104
1865.07578,0.01069
1863.14706,0.01033
1861.21834,0.00994
1859.28961,0.00945
1857.36089,0.00887
1855.43217,0.00821
1853.50344,0.00756
1851.57472,0.00695
1849.64599,0.00639
1847.71727,0.00578
1845.78855,0.00511
1843.85982,0.00447
1841.93110,0.00390
1840.00238,0.00340
1838.07365,0.00292
1836.14493,0.00248
1834.21621,0.00214
1832.28748,0.00189
1830.35876,0.00161
1828.43003,0.00124
1826.50131,0.00091
1824.57259,0.00070
1822.64386,0.00053
1820.71514,0.00033
1818.78642,0.00014
1816.85769,0.00004
1814.92897,0.00000
1813.00025,-0.00020
1811.07152,-0.00036
1809.14280,-0.00046
1807.21407,-0.00048
1805.28535,-0.00041
1803.35663,-0.00031
1801.42790,-0.00022
1799.49918,-0.00010
1797.57046,0.00003
1795.64173,0.00021
1793.71301,0.00051
1791.78428,0.00094
1789.85556,0.00133
1787.92684,0.00163
1785.99811,0.00198
1784.06939,0.00244
1782.14067,0.00292
1780.21194,0.00339
1778.28322,0.00384
1776.35450,0.00430
1774.42577,0.00483
1772.49705,0.00550
1770.56832,0.00621
1768.63960,0.00682
1766.71088,0.00733
1764.78215,0.00778
1762.85343,0.00825
1760.92471,0.00879
1758.99598,0.00933
1757.06726,0.00983
1755.13854,0.01031
1753.20981,0.01085
1751.28109,0.01163
1749.35236,0.01264
1747.42364,0.01360
1745.49492,0.01448
1743.56619,0.01544
1741.63747,0.01664
1739.70875,0.01804
1737.78002,0.01934
1735.85130,0.02065
1733.92257,0.02249
1731.99385,0.02465
1730.06513,0.02664
1728.13640,0.02857
1726.20768,0.03056
1724.27896,0.03266
1722.35023,0.03472
1720.42151,0.03654
1718.49279,0.03850
1716.56406,0.04091
1714.63534,0.04326
1712.70661,0.04532
1710.77789,0.04732
1708.84917,0.04946
1706.92044,0.05180
1704.99172,0.05422
1703.06300,0.05650
1701.13427,0.05907
1699.20555,0.06221
1697.27683,0.06544
1695.34810,0.06860
1693.41938,0.07136
1691.49065,0.07373
1689.56193,0.07620
1687.63321,0.07876
1685.70448,0.08181
1683.77576,0.08585
1681.84704,0.08963
1679.91831,0.09242
1677.98959,0.09494
1676.06087,0.09779
1674.13214,0.10080
1672.20342,0.10356
1670.27469,0.10653
1668.34597,0.10971
1666.41725,0.11223
1664.48852,0.11438
1662.55980,0.11692
1660.63108,0.11943
1658.70235,0.12121
1656.77363,0.12241
1654.84490,0.12390
1652.91618,0.12625
1650.98746,0.12822
1649.05873,0.12930
1647.13001,0.13048
1645.20129,0.13185
1643.27256,0.13276
1641.34384,0.13325
1639.41512,0.13358
1637.48639,0.13392
1635.55767,0.13440
1633.62894,0.13463
1631.70022,0.13428
1629.77150,0.13349
1627.84277,0.13243
1625.91405,0.13116
1623.98533,0.12961
1622.05660,0.12775
1620.12788,0.12564
1618.19916,0.12312
1616.27043,0.11999
1614.34171,0.11676
1612.41298,0.11374
1610.48426,0.11061
1608.55554,0.10712
1606.62681,0.10351
1604.69809,0.10003
1602.76937,0.09672
1600.84064,0.09356
1598.91192,0.09057
1596.98319,0.08768
1595.05447,0.08495
1593.12575,0.08245
1591.19702,0.08008
1589.26830,0.07776
1587.33958,0.07551
1585.41085,0.07333
1583.48213,0.07117
1581.55341,0.06915
1579.62468,0.06737
1577.69596,0.06564
1575.76723,0.06378
1573.83851,0.06209
1571.90979,0.06063
1569.98106,0.05918
1568.05234,0.05774
1566.12362,0.05642
1564.19489,0.05518
1562.26617,0.05406
1560.33745,0.05298
1558.40872,0.05170
1556.48000,0.05040
1554.55127,0.04924
1552.62255,0.04822
1550.69383,0.04728
1548.76510,0.04626
1546.83638,0.04508
1544.90766,0.04378
1542.97893,0.04246
1541.05021,0.04099
1539.12148,0.03931
1537.19276,0.03779
1535.26404,0.03639
1533.33531,0.03481
1531.40659,0.03315
1529.47787,0.03157
1527.54914,0.02989
1525.62042,0.02809
1523.69170,0.02633
1521.76297,0.02457
1519.83425,0.02283
1517.90552,0.02127
1515.97680,0.01981
1514.04808,0.01840
1512.11935,0.01695
1510.19063,0.01531
1508.26191,0.01325
1506.33318,0.01081
1504.40446,0.00876
1502.47574,0.00727
1500.54701,0.00595
1498.61829,0.00458
1496.68956,0.00322
1494.76084,0.00201
1492.83212,0.00105
1490.90339,0.00037
1488.97467,0.00000
1487.04595,-0.00007
1485.11722,0.00004
1483.18850,0.00024
1481.25977,0.00052
1479.33105,0.00089
1477.40233,0.00143
1475.47360,0.00235
1473.54488,0.00395
1471.61616,0.00609
1469.68743,0.00794
1467.75871,0.00923
1465.82999,0.01028
1463.90126,0.01117
1461.97254,0.01175
1460.04381,0.01221
1458.11509,0.01293
1456.18637,0.01378
1454.25764,0.01420
1452.32892,0.01426
1450.40020,0.01439
1448.47147,0.01475
1446.54275,0.01522
1444.61403,0.01559
1442.68530,0.01578
1440.75658,0.01585
1438.82785,0.01600
1436.89913,0.01649
1434.97041,0.01720
1433.04168,0.01774
1431.11296,0.01815
1429.18424,0.01866
1427.25551,0.01928
1425.32679,0.01993
1423.39806,0.02054
1421.46934,0.02106
1419.54062,0.02165
1417.61189,0.02241
1415.68317,0.02316
1413.75445,0.02392
1411.82572,0.02482
1409.89700,0.02582
1407.96828,0.02674
1406.03955,0.02756
1404.11083,0.02828
1402.18210,0.02866
1400.25338,0.02848
1398.32466,0.02765
1396.39593,0.02624
1394.46721,0.02451
1392.53849,0.02292
1390.60976,0.02196
1388.68104,0.02230
1386.75232,0.02388
1384.82359,0.02468
1382.89487,0.02285
1380.96614,0.01920
1379.03742,0.01583
1377.10870,0.01362
1375.17997,0.01208
1373.25125,0.01072
1371.32253,0.00947
1369.39380,0.00828
1367.46508,0.00707
1365.53635,0.00584
1363.60763,0.00467
1361.67891,0.00375
1359.75018,0.00310
1357.82146,0.00250
1355.89274,0.00178
1353.96401,0.00101
1352.03529,0.00039
1350.10657,0.00000
1348.17784,-0.00028
1346.24912,-0.00053
1344.32039,-0.00082
1342.39167,-0.00110
1340.46295,-0.00130
1338.53422,-0.00142
1336.60550,-0.00146
1334.67678,-0.00144
1332.74805,-0.00135
1330.81933,-0.00116
1328.89061,-0.00082
1326.96188,-0.00035
1325.03316,0.00015
1323.10443,0.00064
1321.17571,0.00111
1319.24699,0.00156
1317.31826,0.00202
1315.38954,0.00260
1313.46082,0.00326
1311.53209,0.00381
1309.60337,0.00423
1307.67464,0.00476
1305.74592,0.00559
1303.81720,0.00676
1301.88847,0.00812
1299.95975,0.00953
1298.03103,0.01101
1296.10230,0.01274
1294.17358,0.01473
1292.24486,0.01687
1290.31613,0.01918
1288.38741,0.02173
1286.45868,0.02459
1284.52996,0.02783
1282.60124,0.03145
1280.67251,0.03537
1278.74379,0.03954
1276.81507,0.04413
1274.88634,0.04939
1272.95762,0.05540
1271.02890,0.06211
1269.10017,0.06951
1267.17145,0.07778
1265.24272,0.08708
1263.31400,0.09732
1261.38528,0.10862
1259.45655,0.12119
1257.52783,0.13474
1255.59911,0.14870
1253.67038,0.16255
1251.74166,0.17597
1249.81294,0.18872
1247.88421,0.20050
1245.95549,0.21133
1244.02676,0.22137
1242.09804,0.23052
1240.16932,0.23873
1238.24059,0.24616
1236.31187,0.25283
1234.38315,0.25873
1232.45442,0.26397
1230.52570,0.26880
1228.59697,0.27347
1226.66825,0.27796
1224.73953,0.28204
1222.81080,0.28566
1220.88208,0.28905
1218.95336,0.29222
1217.02463,0.29520
1215.09591,0.29825
1213.16719,0.30129
1211.23846,0.30406
1209.30974,0.30649
1207.38101,0.30877
1205.45229,0.31117
1203.52357,0.31382
1201.59484,0.31651
1199.66612,0.31908
1197.73740,0.32149
1195.80867,0.32367
1193.87995,0.32581
1191.95123,0.32810
1190.02250,0.33045
1188.09378,0.33286
1186.16505,0.33526
1184.23633,0.33748
1182.30761,0.33953
1180.37888,0.34170
1178.45016,0.34413
1176.52144,0.34651
1174.59271,0.34868
1172.66399,0.35077
1170.73526,0.35273
1168.80654,0.35465
1166.87782,0.35673
1164.94909,0.35884
1163.02037,0.36062
1161.09165,0.36235
1159.16292,0.36473
1157.23420,0.36732
1155.30548,0.36923
1153.37675,0.37077
1151.44803,0.37238
1149.51930,0.37402
1147.59058,0.37608
1145.66186,0.37845
1143.73313,0.38070
1141.80441,0.38277
1139.87569,0.38463
1137.94696,0.38627
1136.01824,0.38820
1134.08952,0.39099
1132.16079,0.39454
1130.23207,0.39821
1128.30334,0.40138
1126.37462,0.40415
1124.44590,0.40729
1122.51717,0.41123
1120.58845,0.41583
1118.65973,0.42111
1116.73100,0.42706
1114.80228,0.43312
1112.87355,0.43907
1110.94483,0.44523
1109.01611,0.45169
1107.08738,0.45818
1105.15866,0.46420
1103.22994,0.46958
1101.30121,0.47452
1099.37249,0.47884
1097.44377,0.48239
1095.51504,0.48534
1093.58632,0.48764
1091.65759,0.48896
1089.72887,0.48959
1087.80015,0.48999
1085.87142,0.49008
1083.94270,0.48934
1082.01398,0.48743
1080.08525,0.48483
1078.15653,0.48195
1076.22781,0.47884
1074.29908,0.47535
1072.37036,0.47147
1070.44163,0.46732
1068.51291,0.46295
1066.58419,0.45848
1064.65546,0.45374
1062.72674,0.44852
1060.79802,0.44277
1058.86929,0.43647
1056.94057,0.42993
1055.01184,0.42321
1053.08312,0.41575
1051.15440,0.40766
1049.22567,0.39965
1047.29695,0.39181
1045.36823,0.38390
1043.43950,0.37555
1041.51078,0.36652
1039.58206,0.35696
1037.65333,0.34735
1035.72461,0.33827
1033.79588,0.32954
1031.86716,0.32047
1029.93844,0.31113
1028.00971,0.30209
1026.08099,0.29322
1024.15227,0.28447
1022.22354,0.27635
1020.29482,0.26883
1018.36610,0.26158
1016.43737,0.25451
1014.50865,0.24772
1012.57992,0.24148
1010.65120,0.23561
1008.72248,0.22952
1006.79375,0.22330
1004.86503,0.21741
1002.93631,0.21186
1001.00758,0.20669
999.07886,0.20206
997.15013,0.19754
995.22141,0.19275
993.29269,0.18802
991.36396,0.18358
989.43524,0.17940
987.50652,0.17569
985.57779,0.17254
983.64907,0.16986
981.72035,0.16763
979.79162,0.16589
977.86290,0.16464
975.93417,0.16360
974.00545,0.16269
972.07673,0.16213
970.14800,0.16170
968.21928,0.16104
966.29056,0.16027
964.36183,0.15970
962.43311,0.15935
960.50439,0.15902
958.57566,0.15864
956.64694,0.15821
954.71821,0.15775
952.78949,0.15705
950.86077,0.15570
948.93204,0.15388
947.00332,0.15208
945.07460,0.15018
943.14587,0.14788
941.21715,0.14549
939.28842,0.14322
937.35970,0.14070
935.43098,0.13789
933.50225,0.13503
931.57353,0.13205
929.64481,0.12896
927.71608,0.12600
925.78736,0.12329
923.85864,0.12042
921.92991,0.11708
920.00119,0.11370
918.07246,0.11062
916.14374,0.10759
914.21502,0.10436
912.28629,0.10074
910.35757,0.09684
908.42885,0.09302
906.50012,0.08920
904.57140,0.08517
902.64268,0.08102
900.71395,0.07674
898.78523,0.07244
896.85650,0.06845
894.92778,0.06466
892.99906,0.06080
891.07033,0.05713
889.14161,0.05381
887.21289,0.05044
885.28416,0.04673
883.35544,0.04292
881.42671,0.03957
879.49799,0.03679
877.56927,0.03413
875.64054,0.03142
873.71182,0.02886
871.78310,0.02664
869.85437,0.02462
867.92565,0.02259
865.99693,0.02065
864.06820,0.01893
862.13948,0.01753
860.21075,0.01618
858.28203,0.01455
856.35331,0.01304
854.42458,0.01227
852.49586,0.01228
850.56714,0.01269
848.63841,0.01335
846.70969,0.01460
844.78097,0.01666
842.85224,0.01928
840.92352,0.02238
838.99479,0.02597
837.06607,0.02998
835.13735,0.03435
833.20862,0.03900
831.27990,0.04384
829.35118,0.04873
827.42245,0.05350
825.49373,0.05815
823.56501,0.06263
821.63628,0.06670
819.70756,0.07039
817.77883,0.07406
815.85011,0.07782
813.92139,0.08173
811.99266,0.08568
810.06394,0.08935
808.13522,0.09272
806.20649,0.09581
804.27777,0.09818
802.34904,0.09963
800.42032,0.10038
798.49160,0.10051
796.56287,0.10013
794.63415,0.09917
792.70543,0.09713
790.77670,0.09428
788.84798,0.09145
786.91926,0.08842
784.99053,0.08440
783.06181,0.07986
781.13308,0.07550
779.20436,0.07079
777.27564,0.06534
775.34691,0.05970
773.41819,0.05446
771.48947,0.04959
769.56074,0.04517
767.63202,0.04189
765.70330,0.03993
763.77457,0.03876
761.84585,0.03810
759.91712,0.03765
757.98840,0.03704
756.05968,0.03630
754.13095,0.03563
752.20223,0.03488
750.27351,0.03398
748.34478,0.03312
746.41606,0.03232
744.48733,0.03161
742.55861,0.03102
740.62989,0.03041
738.70116,0.02997
736.77244,0.02966
734.84372,0.02879
732.91499,0.02763
730.98627,0.02709
729.05755,0.02723
727.12882,0.02756
725.20010,0.02758
723.27137,0.02732
721.34265,0.02735
719.41393,0.02768
717.48520,0.02765
715.55648,0.02695
713.62776,0.02621
711.69903,0.02611
709.77031,0.02659
707.84159,0.02721
705.91286,0.02771
703.98414,0.02827
702.05541,0.02931
700.12669,0.03059
698.19797,0.03156
696.26924,0.03210
694.34052,0.03220
692.41180,0.03203
690.48307,0.03194
688.55435,0.03186
686.62562,0.03148
684.69690,0.03110
682.76818,0.03151
680.83945,0.03270
678.91073,0.03376
676.98201,0.03417
675.05328,0.03426
673.12456,0.03426
671.19584,0.03415
669.26711,0.03407
667.33839,0.03435
665.40966,0.03499
663.48094,0.03555
661.55222,0.03582
659.62349,0.03617
657.69477,0.03682
655.76605,0.03738
653.83732,0.03768
651.90860,0.03833
649.97988,0.03983
648.05115,0.04179
646.12243,0.04342
644.19370,0.04433
642.26498,0.04488
640.33626,0.04559
638.40753,0.04677
636.47881,0.04832
634.55009,0.04972
632.62136,0.05046
630.69264,0.05081
628.76391,0.05146
626.83519,0.05260
624.90647,0.05376
622.97774,0.05458
621.04902,0.05513
619.12030,0.05591
617.19157,0.05694
615.26285,0.05812
613.33413,0.05982
611.40540,0.06179
609.47668,0.06308
607.54795,0.06388
605.61923,0.06543
603.69051,0.06815
601.76178,0.07118
599.83306,0.07349
597.90434,0.07516
595.97561,0.07719
594.04689,0.07956
592.11817,0.08139
590.18944,0.08243
588.26072,0.08319
586.33199,0.08421
584.40327,0.08600
582.47455,0.08850
580.54582,0.09061
578.61710,0.09166
576.68838,0.09230
574.75965,0.09285
572.83093,0.09340
570.90220,0.09435
568.97348,0.09552
567.04476,0.09641
565.11603,0.09729
563.18731,0.09847
561.25859,0.09944
559.32986,0.09993
557.40114,0.10076
555.47242,0.10206
553.54369,0.10291
551.61497,0.10373
549.68624,0.10533
547.75752,0.10710
545.82880,0.10855
543.90007,0.10957
541.97135,0.10992
540.04263,0.11008
538.11390,0.11024
536.18518,0.10987
534.25646,0.10949
532.32773,0.10938
530.39901,0.10901
528.47028,0.10930
526.54156,0.11103
524.61284,0.11231
522.68411,0.11135
520.75539,0.10956
518.82667,0.10966
516.89794,0.11297
514.96922,0.11837
513.04049,0.12339
511.11177,0.12613
509.18305,0.12711
507.25432,0.12898
505.32560,0.13415
503.39688,0.14261
501.46815,0.15223
499.53943,0.16153
497.61071,0.17095
495.68198,0.18030
493.75326,0.18825
491.82453,0.19468
489.89581,0.20176
487.96709,0.21199
486.03836,0.22470
484.10964,0.23615
482.18092,0.24510
480.25219,0.25420
478.32347,0.26416
476.39475,0.27274
474.46602,0.27876
472.53730,0.28431
470.60857,0.29097
468.67985,0.29590
466.75113,0.29716
464.82240,0.29561
462.89368,0.29214
460.96496,0.29026
459.03623,0.29225
457.10751,0.29233
455.17878,0.28446
453.25006,0.27108
451.32134,0.25821
449.39261,0.24958
447.46389,0.24364
445.53517,0.23565
443.60644,0.22514
441.67772,0.21705
439.74900,0.21294
437.82027,0.20847
435.89155,0.20139
433.96282,0.19544
432.03410,0.19356
430.10538,0.19132
428.17665,0.18194
426.24793,0.16697
424.31921,0.15420
422.39048,0.14581
420.46176,0.13734
418.53304,0.12623
416.60431,0.11619
414.67559,0.11061
412.74686,0.10772
410.81814,0.10329
408.88942,0.09345
406.96069,0.07981
405.03197,0.06951
403.10325,0.06568
401.17452,0.06737
399.24580,0.07386
397.31708,0.07743
395.38835,0.06813
393.45963,0.05326
391.53090,0.04541
389.60218,0.04644
387.67346,0.04911
385.74473,0.04463
383.81601,0.03418
381.88729,0.02939
379.95856,0.03004
378.02984,0.02523
376.10111,0.01700
374.17239,0.01082
372.24367,0.00000
370.31494,-0.01637
368.38622,0.00000
