3996.31543,0.00021
3994.38671,0.00018
3992.45799,0.00014
3990.52926,0.00012
3988.60054,0.00019
3986.67182,0.00033
3984.74309,0.00039
3982.81437,0.00026
3980.88564,0.00011
3978.95692,0.00010
3977.02820,0.00010
3975.09947,0.00005
3973.17075,0.00005
3971.24203,0.00009
3969.31330,0.00006
3967.38458,0.00000
3965.45586,0.00002
3963.52713,0.00017
3961.59841,0.00036
3959.66968,0.00047
3957.74096,0.00050
3955.81224,0.00048
3953.88351,0.00050
3951.95479,0.00058
3950.02607,0.00061
3948.09734,0.00046
3946.16862,0.00026
3944.23990,0.00018
3942.31117,0.00019
3940.38245,0.00018
3938.45372,0.00018
3936.52500,0.00036
3934.59628,0.00065
3932.66755,0.00083
3930.73883,0.00083
3928.81011,0.00083
3926.88138,0.00089
3924.95266,0.00088
3923.02393,0.00073
3921.09521,0.00061
3919.16649,0.00056
3917.23776,0.00049
3915.30904,0.00044
3913.38032,0.00048
3911.45159,0.00057
3909.52287,0.00066
3907.59415,0.00081
3905.66542,0.00098
3903.73670,0.00097
3901.80797,0.00074
3899.87925,0.00044
3897.95053,0.00021
3896.02180,0.00015
3894.09308,0.00024
3892.16436,0.00039
3890.23563,0.00057
3888.30691,0.00082
3886.37819,0.00099
3884.44946,0.00090
3882.52074,0.00061
3880.59201,0.00025
3878.66329,0.00000
3876.73457,0.00009
3874.80584,0.00046
3872.87712,0.00082
3870.94840,0.00093
3869.01967,0.00075
3867.09095,0.00052
3865.16222,0.00046
3863.23350,0.00058
3861.30478,0.00073
3859.37605,0.00078
3857.44733,0.00087
3855.51861,0.00111
3853.58988,0.00125
3851.66116,0.00093
3849.73244,0.00051
3847.80371,0.00036
3845.87499,0.00041
3843.94626,0.00061
3842.01754,0.00097
3840.08882,0.00132
3838.16009,0.00137
3836.23137,0.00113
3834.30265,0.00093
3832.37392,0.00084
3830.44520,0.00075
3828.51648,0.00063
3826.58775,0.00057
3824.65903,0.00071
3822.73030,0.00111
3820.80158,0.00151
3818.87286,0.00159
3816.94413,0.00129
3815.01541,0.00083
3813.08669,0.00070
3811.15796,0.00100
3809.22924,0.00135
3807.30052,0.00147
3805.37179,0.00149
3803.44307,0.00163
3801.51434,0.00168
3799.58562,0.00148
3797.65690,0.00126
3795.72817,0.00115
3793.79945,0.00123
3791.87073,0.00152
3789.94200,0.00195
3788.01328,0.00231
3786.08455,0.00240
3784.15583,0.00229
3782.22711,0.00231
3780.29838,0.00250
3778.36966,0.00266
3776.44094,0.00272
3774.51221,0.00277
3772.58349,0.00288
3770.65477,0.00303
3768.72604,0.00322
3766.79732,0.00344
3764.86859,0.00367
3762.93987,0.00391
3761.01115,0.00421
3759.08242,0.00448
3757.15370,0.00466
3755.22498,0.00498
3753.29625,0.00556
3751.36753,0.00608
3749.43881,0.00616
3747.51008,0.00608
3745.58136,0.00630
3743.65263,0.00674
3741.72391,0.00711
3739.79519,0.00751
3737.86646,0.00815
3735.93774,0.00906
3734.00902,0.00995
3732.08029,0.01061
3730.15157,0.01108
3728.22284,0.01161
3726.29412,0.01243
3724.36540,0.01362
3722.43667,0.01501
3720.50795,0.01639
3718.57923,0.01775
3716.65050,0.01917
3714.72178,0.02074
3712.79306,0.02255
3710.86433,0.02455
3708.93561,0.02657
3707.00688,0.02856
3705.07816,0.03059
3703.14944,0.03283
3701.22071,0.03531
3699.29199,0.03781
3697.36327,0.04016
3695.43454,0.04233
3693.50582,0.04433
3691.57710,0.04645
3689.64837,0.04895
3687.71965,0.05155
3685.79092,0.05397
3683.86220,0.05646
3681.93348,0.05921
3680.00475,0.06207
3678.07603,0.06509
3676.14731,0.06848
3674.21858,0.07187
3672.28986,0.07482
3670.36113,0.07785
3668.43241,0.08094
3666.50369,0.08349
3664.57496,0.08564
3662.64624,0.08780
3660.71752,0.09007
3658.78879,0.09242
3656.86007,0.09484
3654.93135,0.09715
3653.00262,0.09935
3651.07390,0.10176
3649.14517,0.10423
3647.21645,0.10608
3645.28773,0.10742
3643.35900,0.10885
3641.43028,0.11064
3639.50156,0.11254
3637.57283,0.11427
3635.64411,0.11583
3633.71539,0.11731
3631.78666,0.11871
3629.85794,0.12013
3627.92921,0.12170
3626.00049,0.12324
3624.07177,0.12464
3622.14304,0.12593
3620.21432,0.12694
3618.28560,0.12758
3616.35687,0.12816
3614.42815,0.12883
3612.49942,0.12928
3610.57070,0.12948
3608.64198,0.12987
3606.71325,0.13069
3604.78453,0.13162
3602.85581,0.13236
3600.92708,0.13310
3598.99836,0.13391
3597.06964,0.13453
3595.14091,0.13493
3593.21219,0.13545
3591.28346,0.13628
3589.35474,0.13730
3587.42602,0.13818
3585.49729,0.13879
3583.56857,0.13941
3581.63985,0.14020
3579.71112,0.14097
3577.78240,0.14166
3575.85368,0.14240
3573.92495,0.14317
3571.99623,0.14388
3570.06750,0.14456
3568.13878,0.14522
3566.21006,0.14580
3564.28133,0.14639
3562.35261,0.14708
3560.42389,0.14785
3558.49516,0.14860
3556.56644,0.14930
3554.63771,0.15001
3552.70899,0.15080
3550.78027,0.15156
3548.85154,0.15215
3546.92282,0.15262
3544.99410,0.15311
3543.06537,0.15359
3541.13665,0.15403
3539.20793,0.15449
3537.27920,0.15499
3535.35048,0.15557
3533.42175,0.15627
3531.49303,0.15698
3529.56431,0.15754
3527.63558,0.15798
3525.70686,0.15844
3523.77814,0.15893
3521.84941,0.15943
3519.92069,0.15994
3517.99197,0.16055
3516.06324,0.16122
3514.13452,0.16183
3512.20579,0.16242
3510.27707,0.16299
3508.34835,0.16346
3506.41962,0.16389
3504.49090,0.16431
3502.56218,0.16466
3500.63345,0.16501
3498.70473,0.16547
3496.77600,0.16602
3494.84728,0.16653
3492.91856,0.16698
3490.98983,0.16746
3489.06111,0.16791
3487.13239,0.16830
3485.20366,0.16868
3483.27494,0.16906
3481.34622,0.16945
3479.41749,0.16984
3477.48877,0.17037
3475.56004,0.17108
3473.63132,0.17164
3471.70260,0.17190
3469.77387,0.17206
3467.84515,0.17226
3465.91643,0.17255
3463.98770,0.17292
3462.05898,0.17330
3460.13026,0.17369
3458.20153,0.17420
3456.27281,0.17468
3454.34408,0.17496
3452.41536,0.17516
3450.48664,0.17545
3448.55791,0.17572
3446.62919,0.17596
3444.70047,0.17633
3442.77174,0.17673
3440.84302,0.17696
3438.91429,0.17697
3436.98557,0.17698
3435.05685,0.17713
3433.12812,0.17739
3431.19940,0.17770
3429.27068,0.17796
3427.34195,0.17818
3425.41323,0.17851
3423.48451,0.17887
3421.55578,0.17898
3419.62706,0.17895
3417.69833,0.17903
3415.76961,0.17914
3413.84089,0.17916
3411.91216,0.17921
3409.98344,0.17927
3408.05472,0.17925
3406.12599,0.17932
3404.19727,0.17951
3402.26855,0.17952
3400.33982,0.17940
3398.41110,0.17928
3396.48237,0.17915
3394.55365,0.17908
3392.62493,0.17913
3390.69620,0.17914
3388.76748,0.17903
3386.83876,0.17886
3384.91003,0.17862
3382.98131,0.17829
3381.05259,0.17797
3379.12386,0.17782
3377.19514,0.17775
3375.26641,0.17759
3373.33769,0.17736
3371.40897,0.17730
3369.48024,0.17731
3367.55152,0.17695
3365.62280,0.17637
3363.69407,0.17609
3361.76535,0.17608
3359.83662,0.17607
3357.90790,0.17601
3355.97918,0.17584
3354.05045,0.17551
3352.12173,0.17514
3350.19301,0.17487
3348.26428,0.17465
3346.33556,0.17439
3344.40684,0.17406
3342.47811,0.17366
3340.54939,0.17330
3338.62066,0.17305
3336.69194,0.17284
3334.76322,0.17256
3332.83449,0.17226
3330.90577,0.17208
3328.97705,0.17196
3327.04832,0.17173
3325.11960,0.17138
3323.19088,0.17111
3321.26215,0.17096
3319.33343,0.17074
3317.40470,0.17035
3315.47598,0.16997
3313.54726,0.16963
3311.61853,0.16922
3309.68981,0.16884
3307.76109,0.16867
3305.83236,0.16861
3303.90364,0.16854
3301.97491,0.16834
3300.04619,0.16795
3298.11747,0.16749
3296.18874,0.16711
3294.26002,0.16676
3292.33130,0.16649
3290.40257,0.16632
3288.47385,0.16610
3286.54513,0.16574
3284.61640,0.16533
3282.68768,0.16505
3280.75895,0.16492
3278.83023,0.16475
3276.90151,0.16437
3274.97278,0.16387
3273.04406,0.16344
3271.11534,0.16308
3269.18661,0.16281
3267.25789,0.16264
3265.32917,0.16252
3263.40044,0.16231
3261.47172,0.16194
3259.54299,0.16152
3257.61427,0.16128
3255.68555,0.16124
3253.75682,0.16115
3251.82810,0.16075
3249.89938,0.16020
3247.97065,0.15979
3246.04193,0.15946
3244.11320,0.15903
3242.18448,0.15861
3240.25576,0.15830
3238.32703,0.15799
3236.39831,0.15753
3234.46959,0.15700
3232.54086,0.15658
3230.61214,0.15629
3228.68342,0.15593
3226.75469,0.15545
3224.82597,0.15499
3222.89724,0.15456
3220.96852,0.15404
3219.03980,0.15344
3217.11107,0.15292
3215.18235,0.15259
3213.25363,0.15229
3211.32490,0.15190
3209.39618,0.15140
3207.46746,0.15086
3205.53873,0.15025
3203.61001,0.14955
3201.68128,0.14888
3199.75256,0.14841
3197.82384,0.14804
3195.89511,0.14768
3193.96639,0.14722
3192.03767,0.14655
3190.10894,0.14579
3188.18022,0.14505
3186.25149,0.14431
3184.32277,0.14365
3182.39405,0.14317
3180.46532,0.14271
3178.53660,0.14216
3176.60788,0.14156
3174.67915,0.14097
3172.75043,0.14039
3170.82171,0.13982
3168.89298,0.13920
3166.96426,0.13862
3165.03553,0.13814
3163.10681,0.13772
3161.17809,0.13730
3159.24936,0.13672
3157.32064,0.13591
3155.39192,0.13496
3153.46319,0.13412
3151.53447,0.13349
3149.60575,0.13298
3147.67702,0.13247
3145.74830,0.13194
3143.81957,0.13145
3141.89085,0.13092
3139.96213,0.13035
3138.03340,0.12979
3136.10468,0.12916
3134.17596,0.12846
3132.24723,0.12777
3130.31851,0.12723
3128.38978,0.12679
3126.46106,0.12623
3124.53234,0.12558
3122.60361,0.12499
3120.67489,0.12447
3118.74617,0.12392
3116.81744,0.12324
3114.88872,0.12253
3112.96000,0.12195
3111.03127,0.12144
3109.10255,0.12087
3107.17382,0.12022
3105.24510,0.11962
3103.31638,0.11904
3101.38765,0.11839
3099.45893,0.11774
3097.53021,0.11720
3095.60148,0.11674
3093.67276,0.11620
3091.74404,0.11556
3089.81531,0.11490
3087.88659,0.11425
3085.95786,0.11366
3084.02914,0.11307
3082.10042,0.11239
3080.17169,0.11168
3078.24297,0.11107
3076.31425,0.11059
3074.38552,0.11012
3072.45680,0.10955
3070.52807,0.10890
3068.59935,0.10819
3066.67063,0.10749
3064.74190,0.10688
3062.81318,0.10629
3060.88446,0.10562
3058.95573,0.10491
3057.02701,0.10429
3055.09829,0.10376
3053.16956,0.10324
3051.24084,0.10262
3049.31211,0.10193
3047.38339,0.10139
3045.45467,0.10100
3043.52594,0.10047
3041.59722,0.09975
3039.66850,0.09904
3037.73977,0.09842
3035.81105,0.09778
3033.88233,0.09709
3031.95360,0.09645
3030.02488,0.09589
3028.09615,0.09537
3026.16743,0.09486
3024.23871,0.09436
3022.30998,0.09376
3020.38126,0.09305
3018.45254,0.09240
3016.52381,0.09191
3014.59509,0.09143
3012.66636,0.09091
3010.73764,0.09042
3008.80892,0.08999
3006.88019,0.08954
3004.95147,0.08904
3003.02275,0.08856
3001.09402,0.08806
2999.16530,0.08753
2997.23658,0.08701
2995.30785,0.08658
2993.37913,0.08614
2991.45040,0.08569
2989.52168,0.08533
2987.59296,0.08493
2985.66423,0.08450
2983.73551,0.08423
2981.80679,0.08410
2979.87806,0.08397
2977.94934,0.08385
2976.02062,0.08383
2974.09189,0.08384
2972.16317,0.08371
2970.23444,0.08352
2968.30572,0.08348
2966.37700,0.08359
2964.44827,0.08362
2962.51955,0.08352
2960.59083,0.08328
2958.66210,0.08294
2956.73338,0.08260
2954.80466,0.08219
2952.87593,0.08168
2950.94721,0.08117
2949.01848,0.08065
2947.08976,0.08015
2945.16104,0.07995
2943.23231,0.08016
2941.30359,0.08048
2939.37487,0.08075
2937.44614,0.08106
2935.51742,0.08144
2933.58869,0.08183
2931.65997,0.08211
2929.73125,0.08224
2927.80252,0.08223
2925.87380,0.08193
2923.94508,0.08114
2922.01635,0.07992
2920.08763,0.07844
2918.15891,0.07684
2916.23018,0.07534
2914.30146,0.07405
2912.37273,0.07293
2910.44401,0.07190
2908.51529,0.07093
2906.58656,0.07003
2904.65784,0.06915
2902.72912,0.06817
2900.80039,0.06713
2898.87167,0.06620
2896.94295,0.06543
2895.01422,0.06470
2893.08550,0.06396
2891.15677,0.06322
2889.22805,0.06251
2887.29933,0.06185
2885.37060,0.06123
2883.44188,0.06066
2881.51316,0.06023
2879.58443,0.05989
2877.65571,0.05960
2875.72698,0.05938
2873.79826,0.05912
2871.86954,0.05871
2869.94081,0.05822
2868.01209,0.05773
2866.08337,0.05732
2864.15464,0.05707
2862.22592,0.05703
2860.29720,0.05718
2858.36847,0.05747
2856.43975,0.05774
2854.51102,0.05773
2852.58230,0.05720
2850.65358,0.05609
2848.72485,0.05462
2846.79613,0.05299
2844.86741,0.05132
2842.93868,0.04986
2841.00996,0.04877
2839.08124,0.04783
2837.15251,0.04688
2835.22379,0.04601
2833.29506,0.04522
2831.36634,0.04450
2829.43762,0.04389
2827.50889,0.04333
2825.58017,0.04284
2823.65145,0.04234
2821.72272,0.04176
2819.79400,0.04126
2817.86527,0.04091
2815.93655,0.04051
2814.00783,0.04000
2812.07910,0.03946
2810.15038,0.03894
2808.22166,0.03849
2806.29293,0.03806
2804.36421,0.03762
2802.43549,0.03718
2800.50676,0.03680
2798.57804,0.03644
2796.64931,0.03603
2794.72059,0.03561
2792.79187,0.03522
2790.86314,0.03483
2788.93442,0.03443
2787.00570,0.03400
2785.07697,0.03351
2783.14825,0.03308
2781.21953,0.03277
2779.29080,0.03244
2777.36208,0.03202
2775.43335,0.03159
2773.50463,0.03123
2771.57591,0.03092
2769.64718,0.03059
2767.71846,0.03022
2765.78974,0.02986
2763.86101,0.02953
2761.93229,0.02919
2760.00356,0.02881
2758.07484,0.02843
2756.14612,0.02808
2754.21739,0.02775
2752.28867,0.02743
2750.35995,0.02721
2748.43122,0.02705
2746.50250,0.02674
2744.57378,0.02634
2742.64505,0.02599
2740.71633,0.02564
2738.78760,0.02531
2736.85888,0.02501
2734.93016,0.02469
2733.00143,0.02435
2731.07271,0.02404
2729.14399,0.02373
2727.21526,0.02347
2725.28654,0.02321
2723.35782,0.02282
2721.42909,0.02242
2719.50037,0.02214
2717.57164,0.02198
2715.64292,0.02178
2713.71420,0.02142
2711.78547,0.02101
2709.85675,0.02069
2707.92803,0.02041
2705.99930,0.02010
2704.07058,0.01975
2702.14185,0.01941
2700.21313,0.01915
2698.28441,0.01898
2696.35568,0.01884
2694.42696,0.01865
2692.49824,0.01830
2690.56951,0.01794
2688.64079,0.01769
2686.71207,0.01746
2684.78334,0.01726
2682.85462,0.01712
2680.92589,0.01695
2678.99717,0.01665
2677.06845,0.01628
2675.13972,0.01598
2673.21100,0.01578
2671.28228,0.01561
2669.35355,0.01538
2667.42483,0.01511
2665.49611,0.01486
2663.56738,0.01462
2661.63866,0.01432
2659.70993,0.01397
2657.78121,0.01368
2655.85249,0.01354
2653.92376,0.01341
2651.99504,0.01319
2650.06632,0.01295
2648.13759,0.01281
2646.20887,0.01266
2644.28014,0.01240
2642.35142,0.01210
2640.42270,0.01183
2638.49397,0.01163
2636.56525,0.01150
2634.63653,0.01138
2632.70780,0.01123
2630.77908,0.01106
2628.85036,0.01087
2626.92163,0.01067
2624.99291,0.01044
2623.06418,0.01020
2621.13546,0.00997
2619.20674,0.00980
2617.27801,0.00965
2615.34929,0.00947
2613.42057,0.00934
2611.49184,0.00925
2609.56312,0.00909
2607.63440,0.00882
2605.70567,0.00855
2603.77695,0.00839
2601.84822,0.00828
2599.91950,0.00812
2597.99078,0.00798
2596.06205,0.00791
2594.13333,0.00778
2592.20461,0.00758
2590.27588,0.00739
2588.34716,0.00720
2586.41843,0.00703
2584.48971,0.00690
2582.56099,0.00675
2580.63226,0.00659
2578.70354,0.00643
2576.77482,0.00631
2574.84609,0.00623
2572.91737,0.00612
2570.98865,0.00598
2569.05992,0.00585
2567.13120,0.00576
2565.20247,0.00568
2563.27375,0.00558
2561.34503,0.00552
2559.41630,0.00545
2557.48758,0.00534
2555.55886,0.00520
2553.63013,0.00506
2551.70141,0.00495
2549.77269,0.00485
2547.84396,0.00470
2545.91524,0.00452
2543.98651,0.00436
2542.05779,0.00426
2540.12907,0.00423
2538.20034,0.00422
2536.27162,0.00412
2534.34290,0.00392
2532.41417,0.00373
2530.48545,0.00368
2528.55673,0.00371
2526.62800,0.00369
2524.69928,0.00362
2522.77055,0.00354
2520.84183,0.00340
2518.91311,0.00325
2516.98438,0.00316
2515.05566,0.00314
2513.12694,0.00308
2511.19821,0.00297
2509.26949,0.00281
2507.34076,0.00271
2505.41204,0.00267
2503.48332,0.00263
2501.55459,0.00261
2499.62587,0.00258
2497.69715,0.00252
2495.76842,0.00243
2493.83970,0.00231
2491.91098,0.00223
2489.98225,0.00222
2488.05353,0.00219
2486.12480,0.00209
2484.19608,0.00199
2482.26736,0.00192
2480.33863,0.00190
2478.40991,0.00185
2476.48119,0.00176
2474.55246,0.00168
2472.62374,0.00166
2470.69502,0.00169
2468.76629,0.00169
2466.83757,0.00169
2464.90884,0.00166
2462.98012,0.00153
2461.05140,0.00138
2459.12267,0.00134
2457.19395,0.00139
2455.26523,0.00139
2453.33650,0.00134
2451.40778,0.00129
2449.47905,0.00124
2447.55033,0.00116
2445.62161,0.00115
2443.69288,0.00121
2441.76416,0.00125
2439.83544,0.00116
2437.90671,0.00101
2435.97799,0.00093
2434.04927,0.00095
2432.12054,0.00099
2430.19182,0.00099
2428.26309,0.00094
2426.33437,0.00086
2424.40565,0.00078
2422.47692,0.00071
2420.54820,0.00066
2418.61948,0.00064
2416.69075,0.00060
2414.76203,0.00053
2412.83331,0.00047
2410.90458,0.00041
2408.97586,0.00033
2407.04713,0.00031
2405.11841,0.00034
2403.18969,0.00038
2401.26096,0.00041
2399.33224,0.00042
2397.40352,0.00042
2395.47479,0.00042
2393.54607,0.00042
2391.61734,0.00043
2389.68862,0.00043
2387.75990,0.00039
2385.83117,0.00035
2383.90245,0.00035
2381.97373,0.00040
2380.04500,0.00051
2378.11628,0.00064
2376.18756,0.00068
2374.25883,0.00066
2372.33011,0.00073
2370.40138,0.00086
2368.47266,0.00087
2366.54394,0.00081
2364.61521,0.00077
2362.68649,0.00074
2360.75777,0.00064
2358.82904,0.00035
2356.90032,0.00004
2354.97160,0.00000
2353.04287,0.00035
2351.11415,0.00096
2349.18542,0.00127
2347.25670,0.00094
2345.32798,0.00047
2343.39925,0.00038
2341.47053,0.00052
2339.54181,0.00066
2337.61308,0.00076
2335.68436,0.00074
2333.75563,0.00054
2331.82691,0.00037
2329.89819,0.00038
2327.96946,0.00048
2326.04074,0.00051
2324.11202,0.00046
2322.18329,0.00041
2320.25457,0.00039
2318.32585,0.00040
2316.39712,0.00045
2314.46840,0.00050
2312.53967,0.00049
2310.61095,0.00043
2308.68223,0.00037
2306.75350,0.00035
2304.82478,0.00033
2302.89606,0.00029
2300.96733,0.00027
2299.03861,0.00031
2297.10989,0.00035
2295.18116,0.00032
2293.25244,0.00026
2291.32371,0.00021
2289.39499,0.00022
2287.46627,0.00022
2285.53754,0.00017
2283.60882,0.00011
2281.68010,0.00010
2279.75137,0.00012
2277.82265,0.00015
2275.89392,0.00015
2273.96520,0.00014
2272.03648,0.00015
2270.10775,0.00019
2268.17903,0.00022
2266.25031,0.00024
2264.32158,0.00026
2262.39286,0.00027
2260.46414,0.00025
2258.53541,0.00022
2256.60669,0.00019
2254.67796,0.00018
2252.74924,0.00020
2250.82052,0.00017
2248.89179,0.00010
2246.96307,0.00009
2245.03435,0.00012
2243.10562,0.00018
2241.17690,0.00019
2239.24818,0.00018
2237.31945,0.00025
2235.39073,0.00032
2233.46200,0.00026
2231.53328,0.00016
2229.60456,0.00009
2227.67583,0.00003
2225.74711,-0.00002
2223.81839,-0.00001
2221.88966,0.00003
2219.96094,0.00002
2218.03221,-0.00001
2216.10349,-0.00002
2214.17477,-0.00003
2212.24604,-0.00003
2210.31732,0.00004
2208.38860,0.00010
2206.45987,0.00009
2204.53115,0.00004
2202.60243,0.00000
2200.67370,-0.00001
2198.74498,0.00000
2196.81625,-0.00003
2194.88753,-0.00009
2192.95881,-0.00013
2191.03008,-0.00012
2189.10136,-0.00011
2187.17264,-0.00010
2185.24391,-0.00009
2183.31519,-0.00010
2181.38647,-0.00008
2179.45774,-0.00001
2177.52902,0.00005
2175.60029,0.00007
2173.67157,0.00012
2171.74285,0.00015
2169.81412,0.00016
2167.88540,0.00015
2165.95668,0.00009
2164.02795,0.00001
2162.09923,-0.00000
2160.17050,0.00007
2158.24178,0.00012
2156.31306,0.00016
2154.38433,0.00021
2152.45561,0.00022
2150.52689,0.00019
2148.59816,0.00015
2146.66944,0.00006
2144.74072,0.00000
2142.81199,0.00004
2140.88327,0.00011
2138.95454,0.00014
2137.02582,0.00010
2135.09710,0.00003
2133.16837,0.00003
2131.23965,0.00004
2129.31093,0.00003
2127.38220,0.00005
2125.45348,0.00010
2123.52476,0.00010
2121.59603,0.00009
2119.66731,0.00012
2117.73858,0.00011
2115.80986,0.00004
2113.88114,0.00000
2111.95241,0.00007
2110.02369,0.00016
2108.09497,0.00019
2106.16624,0.00012
2104.23752,0.00004
2102.30880,0.00002
2100.38007,0.00003
2098.45135,0.00002
2096.52262,-0.00001
2094.59390,0.00000
2092.66518,-0.00005
2090.73645,-0.00017
2088.80773,-0.00030
2086.87901,-0.00034
2084.95028,-0.00030
2083.02156,-0.00032
2081.09283,-0.00036
2079.16411,-0.00035
2077.23539,-0.00036
2075.30666,-0.00042
2073.37794,-0.00046
2071.44922,-0.00045
2069.52049,-0.00039
2067.59177,-0.00031
2065.66305,-0.00028
2063.73432,-0.00029
2061.80560,-0.00027
2059.87687,-0.00022
2057.94815,-0.00014
2056.01943,-0.00002
2054.09070,0.00010
2052.16198,0.00016
2050.23326,0.00021
2048.30453,0.00028
2046.37581,0.00038
2044.44709,0.00055
2042.51836,0.00077
2040.58964,0.00095
2038.66091,0.00107
2036.73219,0.00123
2034.80347,0.00141
2032.87474,0.00154
2030.94602,0.00166
2029.01730,0.00186
2027.08857,0.00209
2025.15985,0.00224
2023.23112,0.00232
2021.30240,0.00239
2019.37368,0.00251
2017.44495,0.00266
2015.51623,0.00277
2013.58751,0.00287
2011.65878,0.00301
2009.73006,0.00316
2007.80134,0.00325
2005.87261,0.00326
2003.94389,0.00324
2002.01516,0.00324
2000.08644,0.00331
1998.15772,0.00340
1996.22899,0.00344
1994.30027,0.00346
1992.37155,0.00347
1990.44282,0.00345
1988.51410,0.00343
1986.58538,0.00340
1984.65665,0.00335
1982.72793,0.00326
1980.79920,0.00311
1978.87048,0.00293
1976.94176,0.00281
1975.01303,0.00272
1973.08431,0.00264
1971.15559,0.00257
1969.22686,0.00249
1967.29814,0.00238
1965.36941,0.00221
1963.44069,0.00201
1961.51197,0.00188
1959.58324,0.00181
1957.65452,0.00173
1955.72580,0.00162
1953.79707,0.00149
1951.86835,0.00136
1949.93963,0.00124
1948.01090,0.00112
1946.08218,0.00099
1944.15345,0.00089
1942.22473,0.00085
1940.29601,0.00085
1938.36728,0.00084
1936.43856,0.00077
1934.50984,0.00065
1932.58111,0.00052
1930.65239,0.00045
1928.72367,0.00053
1926.79494,0.00071
1924.86622,0.00092
1922.93749,0.00107
1921.00877,0.00113
1919.08005,0.00121
1917.15132,0.00143
1915.22260,0.00174
1913.29388,0.00211
1911.36515,0.00249
1909.43643,0.00286
1907.50770,0.00320
1905.57898,0.00361
1903.65026,0.00410
1901.72153,0.00458
1899.79281,0.00498
1897.86409,0.00531
1895.93536,0.00566
1894.00664,0.00605
1892.07792,0.00645
1890.14919,0.00685
1888.22047,0.00723
1886.29174,0.00757
1884.36302,0.00783
1882.43430,0.00799
1880.50557,0.00808
1878.57685,0.00816
1876.64813,0.00825
1874.71940,0.00831
1872.79068,0.00832
1870.86196,0.00826
1868.93323,0.00811
1867.00451,0.00783
1865.07578,0.00746
1863.14706,0.00711
1861.21834,0.00682
1859.28961,0.00656
1857.36089,0.00619
1855.43217,0.00572
1853.50344,0.00524
1851.57472,0.00480
1849.64599,0.00436
1847.71727,0.00392
1845.78855,0.00349
1843.85982,0.00302
1841.93110,0.00256
1840.00238,0.00219
1838.07365,0.00189
1836.14493,0.00158
1834.21621,0.00130
1832.28748,0.00111
1830.35876,0.00101
1828.43003,0.00094
1826.50131,0.00082
1824.57259,0.00060
1822.64386,0.00031
1820.71514,0.00007
1818.78642,-0.00003
1816.85769,-0.00003
1814.92897,0.00000
1813.00025,-0.00001
1811.07152,-0.00005
1809.14280,-0.00012
1807.21407,-0.00019
1805.28535,-0.00022
1803.35663,-0.00020
1801.42790,-0.00012
1799.49918,-0.00005
1797.57046,-0.00004
1795.64173,-0.00010
1793.71301,-0.00014
1791.78428,-0.00011
1789.85556,-0.00003
1787.92684,0.00014
1785.99811,0.00036
1784.06939,0.00054
1782.14067,0.00067
1780.21194,0.00078
1778.28322,0.00091
1776.35450,0.00111
1774.42577,0.00137
1772.49705,0.00157
1770.56832,0.00165
1768.63960,0.00169
1766.71088,0.00180
1764.78215,0.00201
1762.85343,0.00227
1760.92471,0.00247
1758.99598,0.00259
1757.06726,0.00272
1755.13854,0.00288
1753.20981,0.00307
1751.28109,0.00333
1749.35236,0.00360
1747.42364,0.00388
1745.49492,0.00417
1743.56619,0.00443
1741.63747,0.00466
1739.70875,0.00494
1737.78002,0.00539
1735.85130,0.00609
1733.92257,0.00706
1731.99385,0.00800
1730.06513,0.00874
1728.13640,0.00944
1726.20768,0.01025
1724.27896,0.01121
1722.35023,0.01223
1720.42151,0.01328
1718.49279,0.01455
1716.56406,0.01595
1714.63534,0.01715
1712.70661,0.01816
1710.77789,0.01928
1708.84917,0.02059
1706.92044,0.02205
1704.99172,0.02352
1703.06300,0.02490
1701.13427,0.02654
1699.20555,0.02862
1697.27683,0.03068
1695.34810,0.03252
1693.41938,0.03412
1691.49065,0.03565
1689.56193,0.03741
1687.63321,0.03931
1685.70448,0.04141
1683.77576,0.04386
1681.84704,0.04600
1679.91831,0.04762
1677.98959,0.04915
1676.06087,0.05094
1674.13214,0.05290
1672.20342,0.05478
1670.27469,0.05676
1668.34597,0.05875
1666.41725,0.06036
1664.48852,0.06181
1662.55980,0.06347
1660.63108,0.06513
1658.70235,0.06648
1656.77363,0.06763
1654.84490,0.06884
1652.91618,0.07010
1650.98746,0.07100
1649.05873,0.07166
1647.13001,0.07240
1645.20129,0.07305
1643.27256,0.07347
1641.34384,0.07382
1639.41512,0.07422
1637.48639,0.07461
1635.55767,0.07473
1633.62894,0.07450
1631.70022,0.07422
1629.77150,0.07394
1627.84277,0.07348
1625.91405,0.07274
1623.98533,0.07167
1622.05660,0.07040
1620.12788,0.06913
1618.19916,0.06761
1616.27043,0.06553
1614.34171,0.06339
1612.41298,0.06155
1610.48426,0.05973
1608.55554,0.05770
1606.62681,0.05556
1604.69809,0.05340
1602.76937,0.05126
1600.84064,0.04926
1598.91192,0.04747
1596.98319,0.04583
1595.05447,0.04419
1593.12575,0.04256
1591.19702,0.04101
1589.26830,0.03957
1587.33958,0.03825
1585.41085,0.03702
1583.48213,0.03582
1581.55341,0.03467
1579.62468,0.03358
1577.69596,0.03246
1575.76723,0.03128
1573.83851,0.03042
1571.90979,0.02992
1569.98106,0.02942
1568.05234,0.02878
1566.12362,0.02817
1564.19489,0.02771
1562.26617,0.02735
1560.33745,0.02689
1558.40872,0.02607
1556.48000,0.02524
1554.55127,0.02476
1552.62255,0.02445
1550.69383,0.02406
1548.76510,0.02350
1546.83638,0.02290
1544.90766,0.02232
1542.97893,0.02168
1541.05021,0.02085
1539.12148,0.01992
1537.19276,0.01928
1535.26404,0.01888
1533.33531,0.01840
1531.40659,0.01777
1529.47787,0.01710
1527.54914,0.01642
1525.62042,0.01568
1523.69170,0.01490
1521.76297,0.01402
1519.83425,0.01309
1517.90552,0.01231
1515.97680,0.01157
1514.04808,0.01085
1512.11935,0.01029
1510.19063,0.00995
1508.26191,0.00946
1506.33318,0.00831
1504.40446,0.00692
1502.47574,0.00586
1500.54701,0.00492
1498.61829,0.00392
1496.68956,0.00300
1494.76084,0.00245
1492.83212,0.00221
1490.90339,0.00192
1488.97467,0.00135
1487.04595,0.00070
1485.11722,0.00023
1483.18850,0.00000
1481.25977,-0.00007
1479.33105,0.00000
1477.40233,0.00027
1475.47360,0.00080
1473.54488,0.00163
1471.61616,0.00257
1469.68743,0.00333
1467.75871,0.00391
1465.82999,0.00447
1463.90126,0.00497
1461.97254,0.00531
1460.04381,0.00551
1458.11509,0.00567
1456.18637,0.00580
1454.25764,0.00585
1452.32892,0.00586
1450.40020,0.00591
1448.47147,0.00596
1446.54275,0.00589
1444.61403,0.00579
1442.68530,0.00583
1440.75658,0.00602
1438.82785,0.00624
1436.89913,0.00638
1434.97041,0.00645
1433.04168,0.00652
1431.11296,0.00661
1429.18424,0.00670
1427.25551,0.00682
1425.32679,0.00699
1423.39806,0.00720
1421.46934,0.00747
1419.54062,0.00776
1417.61189,0.00795
1415.68317,0.00799
1413.75445,0.00797
1411.82572,0.00801
1409.89700,0.00817
1407.96828,0.00841
1406.03955,0.00863
1404.11083,0.00870
1402.18210,0.00858
1400.25338,0.00826
1398.32466,0.00776
1396.39593,0.00711
1394.46721,0.00634
1392.53849,0.00560
1390.60976,0.00490
1388.68104,0.00410
1386.75232,0.00321
1384.82359,0.00262
1382.89487,0.00257
1380.96614,0.00282
1379.03742,0.00296
1377.10870,0.00285
1375.17997,0.00254
1373.25125,0.00209
1371.32253,0.00163
1369.39380,0.00129
1367.46508,0.00109
1365.53635,0.00097
1363.60763,0.00079
1361.67891,0.00050
1359.75018,0.00021
1357.82146,0.00000
1355.89274,-0.00019
1353.96401,-0.00034
1352.03529,-0.00047
1350.10657,-0.00058
1348.17784,-0.00065
1346.24912,-0.00069
1344.32039,-0.00073
1342.39167,-0.00077
1340.46295,-0.00083
1338.53422,-0.00086
1336.60550,-0.00079
1334.67678,-0.00065
1332.74805,-0.00052
1330.81933,-0.00047
1328.89061,-0.00043
1326.96188,-0.00032
1325.03316,-0.00014
1323.10443,0.00002
1321.17571,0.00015
1319.24699,0.00030
1317.31826,0.00055
1315.38954,0.00092
1313.46082,0.00132
1311.53209,0.00170
1309.60337,0.00209
1307.67464,0.00259
1305.74592,0.00320
1303.81720,0.00387
1301.88847,0.00459
1299.95975,0.00550
1298.03103,0.00660
1296.10230,0.00777
1294.17358,0.00894
1292.24486,0.01019
1290.31613,0.01164
1288.38741,0.01338
1286.45868,0.01530
1284.52996,0.01721
1282.60124,0.01922
1280.67251,0.02151
1278.74379,0.02410
1276.81507,0.02694
1274.88634,0.03012
1272.95762,0.03377
1271.02890,0.03784
1269.10017,0.04222
1267.17145,0.04710
1265.24272,0.05268
1263.31400,0.05892
1261.38528,0.06577
1259.45655,0.07325
1257.52783,0.08124
1255.59911,0.08944
1253.67038,0.09756
1251.74166,0.10542
1249.81294,0.11287
1247.88421,0.11973
1245.95549,0.12596
1244.02676,0.13165
1242.09804,0.13687
1240.16932,0.14162
1238.24059,0.14593
1236.31187,0.14981
1234.38315,0.15326
1232.45442,0.15639
1230.52570,0.15948
1228.59697,0.16259
1226.66825,0.16544
1224.73953,0.16790
1222.81080,0.17017
1220.88208,0.17232
1218.95336,0.17435
1217.02463,0.17634
1215.09591,0.17845
1213.16719,0.18072
1211.23846,0.18298
1209.30974,0.18496
1207.38101,0.18677
1205.45229,0.18864
1203.52357,0.19058
1201.59484,0.19236
1199.66612,0.19387
1197.73740,0.19514
1195.80867,0.19636
1193.87995,0.19790
1191.95123,0.19977
1190.02250,0.20173
1188.09378,0.20368
1186.16505,0.20547
1184.23633,0.20697
1182.30761,0.20836
1180.37888,0.20980
1178.45016,0.21125
1176.52144,0.21291
1174.59271,0.21487
1172.66399,0.21668
1170.73526,0.21810
1168.80654,0.21936
1166.87782,0.22062
1164.94909,0.22188
1163.02037,0.22319
1161.09165,0.22454
1159.16292,0.22591
1157.23420,0.22733
1155.30548,0.22863
1153.37675,0.22979
1151.44803,0.23099
1149.51930,0.23223
1147.59058,0.23342
1145.66186,0.23456
1143.73313,0.23578
1141.80441,0.23727
1139.87569,0.23885
1137.94696,0.24013
1136.01824,0.24143
1134.08952,0.24320
1132.16079,0.24497
1130.23207,0.24624
1128.30334,0.24739
1126.37462,0.24904
1124.44590,0.25101
1122.51717,0.25272
1120.58845,0.25446
1118.65973,0.25696
1116.73100,0.26012
1114.80228,0.26332
1112.87355,0.26652
1110.94483,0.26996
1109.01611,0.27355
1107.08738,0.27717
1105.15866,0.28074
1103.22994,0.28429
1101.30121,0.28750
1099.37249,0.29007
1097.44377,0.29191
1095.51504,0.29333
1093.58632,0.29489
1091.65759,0.29654
1089.72887,0.29763
1087.80015,0.29765
1085.87142,0.29698
1083.94270,0.29651
1082.01398,0.29636
1080.08525,0.29592
1078.15653,0.29504
1076.22781,0.29419
1074.29908,0.29332
1072.37036,0.29219
1070.44163,0.29108
1068.51291,0.29000
1066.58419,0.28886
1064.65546,0.28738
1062.72674,0.28502
1060.79802,0.28217
1058.86929,0.27958
1056.94057,0.27688
1055.01184,0.27349
1053.08312,0.26984
1051.15440,0.26648
1049.22567,0.26329
1047.29695,0.25992
1045.36823,0.25651
1043.43950,0.25321
1041.51078,0.24965
1039.58206,0.24546
1037.65333,0.24099
1035.72461,0.23693
1033.79588,0.23289
1031.86716,0.22838
1029.93844,0.22386
1028.00971,0.21950
1026.08099,0.21521
1024.15227,0.21117
1022.22354,0.20739
1020.29482,0.20362
1018.36610,0.19978
1016.43737,0.19601
1014.50865,0.19227
1012.57992,0.18877
1010.65120,0.18563
1008.72248,0.18251
1006.79375,0.17919
1004.86503,0.17576
1002.93631,0.17205
1001.00758,0.16816
999.07886,0.16459
997.15013,0.16126
995.22141,0.15792
993.29269,0.15477
991.36396,0.15202
989.43524,0.14954
987.50652,0.14712
985.57779,0.14470
983.64907,0.14244
981.72035,0.14055
979.79162,0.13895
977.86290,0.13748
975.93417,0.13602
974.00545,0.13453
972.07673,0.13323
970.14800,0.13206
968.21928,0.13075
966.29056,0.12956
964.36183,0.12885
962.43311,0.12832
960.50439,0.12749
958.57566,0.12644
956.64694,0.12540
954.71821,0.12424
952.78949,0.12283
950.86077,0.12149
948.93204,0.12035
947.00332,0.11916
945.07460,0.11785
943.14587,0.11651
941.21715,0.11505
939.28842,0.11332
937.35970,0.11122
935.43098,0.10890
933.50225,0.10660
931.57353,0.10445
929.64481,0.10260
927.71608,0.10096
925.78736,0.09912
923.85864,0.09690
921.92991,0.09454
920.00119,0.09228
918.07246,0.08998
916.14374,0.08750
914.21502,0.08497
912.28629,0.08247
910.35757,0.07985
908.42885,0.07712
906.50012,0.07437
904.57140,0.07151
902.64268,0.06845
900.71395,0.06538
898.78523,0.06267
896.85650,0.06028
894.92778,0.05793
892.99906,0.05536
891.07033,0.05246
889.14161,0.04949
887.21289,0.04694
885.28416,0.04486
883.35544,0.04286
881.42671,0.04081
879.49799,0.03892
877.56927,0.03717
875.64054,0.03552
873.71182,0.03426
871.78310,0.03327
869.85437,0.03179
867.92565,0.02969
865.99693,0.02769
864.06820,0.02629
862.13948,0.02521
860.21075,0.02396
858.28203,0.02257
856.35331,0.02153
854.42458,0.02101
852.49586,0.02058
850.56714,0.01994
848.63841,0.01947
846.70969,0.01970
844.78097,0.02060
842.85224,0.02187
840.92352,0.02336
838.99479,0.02508
837.06607,0.02724
835.13735,0.02985
833.20862,0.03243
831.27990,0.03460
829.35118,0.03657
827.42245,0.03880
825.49373,0.04141
823.56501,0.04417
821.63628,0.04689
819.70756,0.04943
817.77883,0.05167
815.85011,0.05380
813.92139,0.05618
811.99266,0.05869
810.06394,0.06105
808.13522,0.06347
806.20649,0.06607
804.27777,0.06847
802.34904,0.07021
800.42032,0.07123
798.49160,0.07182
796.56287,0.07223
794.63415,0.07249
792.70543,0.07219
790.77670,0.07088
788.84798,0.06888
786.91926,0.06673
784.99053,0.06443
783.06181,0.06204
781.13308,0.05963
779.20436,0.05692
777.27564,0.05397
775.34691,0.05114
773.41819,0.04810
771.48947,0.04473
769.56074,0.04187
767.63202,0.04014
765.70330,0.03934
763.77457,0.03882
761.84585,0.03838
759.91712,0.03817
757.98840,0.03790
756.05968,0.03735
754.13095,0.03664
752.20223,0.03595
750.27351,0.03550
748.34478,0.03525
746.41606,0.03501
744.48733,0.03456
742.55861,0.03385
740.62989,0.03328
738.70116,0.03311
736.77244,0.03302
734.84372,0.03268
732.91499,0.03218
730.98627,0.03189
729.05755,0.03184
727.12882,0.03177
725.20010,0.03152
723.27137,0.03102
721.34265,0.03028
719.41393,0.02963
717.48520,0.02928
715.55648,0.02904
713.62776,0.02872
711.69903,0.02842
709.77031,0.02851
707.84159,0.02889
705.91286,0.02909
703.98414,0.02922
702.05541,0.02963
700.12669,0.03011
698.19797,0.03053
696.26924,0.03109
694.34052,0.03159
692.41180,0.03149
690.48307,0.03083
688.55435,0.03019
686.62562,0.02996
684.69690,0.03015
682.76818,0.03043
680.83945,0.03042
678.91073,0.03013
676.98201,0.02981
675.05328,0.02961
673.12456,0.02946
671.19584,0.02874
669.26711,0.02751
667.33839,0.02778
665.40966,0.02949
663.48094,0.03021
661.55222,0.02974
659.62349,0.02934
657.69477,0.02978
655.76605,0.03104
653.83732,0.03231
651.90860,0.03307
649.97988,0.03379
648.05115,0.03501
646.12243,0.03645
644.19370,0.03745
642.26498,0.03797
640.33626,0.03869
638.40753,0.03988
636.47881,0.04085
634.55009,0.04110
632.62136,0.04113
630.69264,0.04145
628.76391,0.04200
626.83519,0.04270
624.90647,0.04342
622.97774,0.04369
621.04902,0.04350
619.12030,0.04367
617.19157,0.04467
615.26285,0.04626
613.33413,0.04813
611.40540,0.04970
609.47668,0.05071
607.54795,0.05116
605.61923,0.05115
603.69051,0.05154
601.76178,0.05280
599.83306,0.05456
597.90434,0.05657
595.97561,0.05828
594.04689,0.05930
592.11817,0.06024
590.18944,0.06132
588.26072,0.06192
586.33199,0.06236
584.40327,0.06335
582.47455,0.06428
580.54582,0.06485
578.61710,0.06578
576.68838,0.06685
574.75965,0.06715
572.83093,0.06658
570.90220,0.06595
568.97348,0.06611
567.04476,0.06675
565.11603,0.06701
563.18731,0.06710
561.25859,0.06779
559.32986,0.06878
557.40114,0.06910
555.47242,0.06890
553.54369,0.06905
551.61497,0.07001
549.68624,0.07153
547.75752,0.07303
545.82880,0.07438
543.90007,0.07579
541.97135,0.07724
540.04263,0.07848
538.11390,0.07889
536.18518,0.07806
534.25646,0.07678
532.32773,0.07643
530.39901,0.07730
528.47028,0.07830
526.54156,0.07806
524.61284,0.07696
522.68411,0.07651
520.75539,0.07675
518.82667,0.07692
516.89794,0.07718
514.96922,0.07826
513.04049,0.08025
511.11177,0.08207
509.18305,0.08300
507.25432,0.08434
505.32560,0.08746
503.39688,0.09217
501.46815,0.09733
499.53943,0.10157
497.61071,0.10533
495.68198,0.11096
493.75326,0.11923
491.82453,0.12692
489.89581,0.13111
487.96709,0.13415
486.03836,0.13975
484.10964,0.14798
482.18092,0.15657
480.25219,0.16383
478.32347,0.16876
476.39475,0.17081
474.46602,0.17257
472.53730,0.17765
470.60857,0.18307
468.67985,0.18417
466.75113,0.18428
464.82240,0.18717
462.89368,0.18907
460.96496,0.18525
459.03623,0.17723
457.10751,0.17094
455.17878,0.16899
453.25006,0.16843
451.32134,0.16757
449.39261,0.16622
447.46389,0.16257
445.53517,0.15613
443.60644,0.14907
441.67772,0.14258
439.74900,0.13630
437.82027,0.13082
435.89155,0.12762
433.96282,0.12646
432.03410,0.12479
430.10538,0.12068
428.17665,0.11566
426.24793,0.11252
424.31921,0.11036
422.39048,0.10580
420.46176,0.09788
418.53304,0.08938
416.60431,0.08422
414.67559,0.08090
412.74686,0.07650
410.81814,0.07133
408.88942,0.06500
406.96069,0.05747
405.03197,0.05252
403.10325,0.05105
401.17452,0.04843
399.24580,0.04388
397.31708,0.04369
395.38835,0.04867
393.45963,0.05045
391.53090,0.04741
389.60218,0.04501
387.67346,0.03965
385.74473,0.02331
383.81601,0.00445
381.88729,0.00000
379.95856,0.00036
378.02984,0.01445
376.10111,0.02506
374.17239,0.01181
372.24367,-0.00776
370.31494,-0.00808
368.38622,0.00000
