3996.31543,0.00047
3994.38671,0.00046
3992.45799,0.00039
3990.52926,0.00034
3988.60054,0.00027
3986.67182,0.00015
3984.74309,0.00004
3982.81437,0.00000
3980.88564,0.00012
3978.95692,0.00040
3977.02820,0.00065
3975.09947,0.00071
3973.17075,0.00059
3971.24203,0.00046
3969.31330,0.00044
3967.38458,0.00057
3965.45586,0.00076
3963.52713,0.00094
3961.59841,0.00107
3959.66968,0.00110
3957.74096,0.00104
3955.81224,0.00100
3953.88351,0.00108
3951.95479,0.00116
3950.02607,0.00105
3948.09734,0.00089
3946.16862,0.00097
3944.23990,0.00117
3942.31117,0.00113
3940.38245,0.00100
3938.45372,0.00102
3936.52500,0.00114
3934.59628,0.00122
3932.66755,0.00114
3930.73883,0.00096
3928.81011,0.00091
3926.88138,0.00107
3924.95266,0.00119
3923.02393,0.00108
3921.09521,0.00087
3919.16649,0.00071
3917.23776,0.00064
3915.30904,0.00071
3913.38032,0.00081
3911.45159,0.00085
3909.52287,0.00092
3907.59415,0.00120
3905.66542,0.00149
3903.73670,0.00138
3901.80797,0.00090
3899.87925,0.00051
3897.95053,0.00040
3896.02180,0.00059
3894.09308,0.00087
3892.16436,0.00090
3890.23563,0.00071
3888.30691,0.00058
3886.37819,0.00043
3884.44946,0.00028
3882.52074,0.00035
3880.59201,0.00044
3878.66329,0.00045
3876.73457,0.00069
3874.80584,0.00109
3872.87712,0.00126
3870.94840,0.00094
3869.01967,0.00032
3867.09095,0.00000
3865.16222,0.00001
3863.23350,0.00004
3861.30478,0.00002
3859.37605,0.00022
3857.44733,0.00076
3855.51861,0.00144
3853.58988,0.00156
3851.66116,0.00068
3849.73244,-0.00012
3847.80371,-0.00034
3845.87499,-0.00016
3843.94626,0.00011
3842.01754,0.00034
3840.08882,0.00049
3838.16009,0.00037
3836.23137,0.00002
3834.30265,-0.00017
3832.37392,-0.00016
3830.44520,-0.00008
3828.51648,0.00001
3826.58775,0.00009
3824.65903,0.00027
3822.73030,0.00048
3820.80158,0.00047
3818.87286,0.00034
3816.94413,0.00025
3815.01541,0.00005
3813.08669,0.00005
3811.15796,0.00047
3809.22924,0.00106
3807.30052,0.00134
3805.37179,0.00134
3803.44307,0.00146
3801.51434,0.00168
3799.58562,0.00184
3797.65690,0.00195
3795.72817,0.00186
3793.79945,0.00173
3791.87073,0.00183
3789.94200,0.00212
3788.01328,0.00250
3786.08455,0.00289
3784.15583,0.00321
3782.22711,0.00348
3780.29838,0.00370
3778.36966,0.00380
3776.44094,0.00398
3774.51221,0.00444
3772.58349,0.00508
3770.65477,0.00559
3768.72604,0.00580
3766.79732,0.00592
3764.86859,0.00612
3762.93987,0.00643
3761.01115,0.00683
3759.08242,0.00720
3757.15370,0.00756
3755.22498,0.00825
3753.29625,0.00936
3751.36753,0.01031
3749.43881,0.01057
3747.51008,0.01083
3745.58136,0.01141
3743.65263,0.01227
3741.72391,0.01344
3739.79519,0.01483
3737.86646,0.01628
3735.93774,0.01768
3734.00902,0.01894
3732.08029,0.02029
3730.15157,0.02191
3728.22284,0.02379
3726.29412,0.02584
3724.36540,0.02799
3722.43667,0.03027
3720.50795,0.03268
3718.57923,0.03516
3716.65050,0.03766
3714.72178,0.04036
3712.79306,0.04357
3710.86433,0.04706
3708.93561,0.05028
3707.00688,0.05327
3705.07816,0.05640
3703.14944,0.05999
3701.22071,0.06398
3699.29199,0.06781
3697.36327,0.07132
3695.43454,0.07478
3693.50582,0.07848
3691.57710,0.08265
3689.64837,0.08707
3687.71965,0.09105
3685.79092,0.09460
3683.86220,0.09818
3681.93348,0.10210
3680.00475,0.10637
3678.07603,0.11097
3676.14731,0.11599
3674.21858,0.12079
3672.28986,0.12489
3670.36113,0.12921
3668.43241,0.13386
3666.50369,0.13798
3664.57496,0.14172
3662.64624,0.14540
3660.71752,0.14902
3658.78879,0.15269
3656.86007,0.15658
3654.93135,0.16033
3653.00262,0.16361
3651.07390,0.16701
3649.14517,0.17075
3647.21645,0.17393
3645.28773,0.17634
3643.35900,0.17865
3641.43028,0.18125
3639.50156,0.18399
3637.57283,0.18662
3635.64411,0.18912
3633.71539,0.19158
3631.78666,0.19408
3629.85794,0.19668
3627.92921,0.19934
3626.00049,0.20177
3624.07177,0.20401
3622.14304,0.20617
3620.21432,0.20825
3618.28560,0.21008
3616.35687,0.21158
3614.42815,0.21291
3612.49942,0.21429
3610.57070,0.21592
3608.64198,0.21772
3606.71325,0.21949
3604.78453,0.22119
3602.85581,0.22293
3600.92708,0.22478
3598.99836,0.22656
3597.06964,0.22813
3595.14091,0.22959
3593.21219,0.23110
3591.28346,0.23267
3589.35474,0.23432
3587.42602,0.23598
3585.49729,0.23744
3583.56857,0.23869
3581.63985,0.23989
3579.71112,0.24110
3577.78240,0.24232
3575.85368,0.24360
3573.92495,0.24504
3571.99623,0.24659
3570.06750,0.24809
3568.13878,0.24943
3566.21006,0.25057
3564.28133,0.25157
3562.35261,0.25261
3560.42389,0.25378
3558.49516,0.25501
3556.56644,0.25619
3554.63771,0.25724
3552.70899,0.25830
3550.78027,0.25947
3548.85154,0.26063
3546.92282,0.26166
3544.99410,0.26265
3543.06537,0.26371
3541.13665,0.26485
3539.20793,0.26602
3537.27920,0.26708
3535.35048,0.26797
3533.42175,0.26886
3531.49303,0.26985
3529.56431,0.27076
3527.63558,0.27145
3525.70686,0.27217
3523.77814,0.27312
3521.84941,0.27419
3519.92069,0.27524
3517.99197,0.27627
3516.06324,0.27728
3514.13452,0.27814
3512.20579,0.27878
3510.27707,0.27938
3508.34835,0.28019
3506.41962,0.28111
3504.49090,0.28188
3502.56218,0.28246
3500.63345,0.28310
3498.70473,0.28393
3496.77600,0.28484
3494.84728,0.28573
3492.91856,0.28649
3490.98983,0.28704
3489.06111,0.28749
3487.13239,0.28811
3485.20366,0.28893
3483.27494,0.28968
3481.34622,0.29024
3479.41749,0.29072
3477.48877,0.29122
3475.56004,0.29167
3473.63132,0.29207
3471.70260,0.29262
3469.77387,0.29327
3467.84515,0.29374
3465.91643,0.29399
3463.98770,0.29435
3462.05898,0.29493
3460.13026,0.29555
3458.20153,0.29613
3456.27281,0.29660
3454.34408,0.29689
3452.41536,0.29713
3450.48664,0.29759
3448.55791,0.29809
3446.62919,0.29832
3444.70047,0.29859
3442.77174,0.29923
3440.84302,0.29984
3438.91429,0.30004
3436.98557,0.30006
3435.05685,0.30028
3433.12812,0.30070
3431.19940,0.30113
3429.27068,0.30150
3427.34195,0.30186
3425.41323,0.30222
3423.48451,0.30249
3421.55578,0.30267
3419.62706,0.30295
3417.69833,0.30317
3415.76961,0.30316
3413.84089,0.30304
3411.91216,0.30302
3409.98344,0.30310
3408.05472,0.30322
3406.12599,0.30338
3404.19727,0.30358
3402.26855,0.30366
3400.33982,0.30358
3398.41110,0.30344
3396.48237,0.30355
3394.55365,0.30355
3392.62493,0.30343
3390.69620,0.30337
3388.76748,0.30333
3386.83876,0.30329
3384.91003,0.30324
3382.98131,0.30314
3381.05259,0.30309
3379.12386,0.30313
3377.19514,0.30317
3375.26641,0.30306
3373.33769,0.30275
3371.40897,0.30242
3369.48024,0.30230
3367.55152,0.30232
3365.62280,0.30236
3363.69407,0.30243
3361.76535,0.30248
3359.83662,0.30233
3357.90790,0.30193
3355.97918,0.30144
3354.05045,0.30105
3352.12173,0.30081
3350.19301,0.30069
3348.26428,0.30057
3346.33556,0.30034
3344.40684,0.30004
3342.47811,0.29986
3340.54939,0.29976
3338.62066,0.29951
3336.69194,0.29903
3334.76322,0.29864
3332.83449,0.29846
3330.90577,0.29832
3328.97705,0.29806
3327.04832,0.29770
3325.11960,0.29736
3323.19088,0.29710
3321.26215,0.29691
3319.33343,0.29677
3317.40470,0.29652
3315.47598,0.29603
3313.54726,0.29546
3311.61853,0.29509
3309.68981,0.29499
3307.76109,0.29493
3305.83236,0.29473
3303.90364,0.29435
3301.97491,0.29389
3300.04619,0.29349
3298.11747,0.29321
3296.18874,0.29303
3294.26002,0.29285
3292.33130,0.29255
3290.40257,0.29224
3288.47385,0.29192
3286.54513,0.29149
3284.61640,0.29105
3282.68768,0.29075
3280.75895,0.29049
3278.83023,0.29016
3276.90151,0.28973
3274.97278,0.28924
3273.04406,0.28888
3271.11534,0.28869
3269.18661,0.28850
3267.25789,0.28815
3265.32917,0.28762
3263.40044,0.28703
3261.47172,0.28653
3259.54299,0.28614
3257.61427,0.28578
3255.68555,0.28527
3253.75682,0.28464
3251.82810,0.28411
3249.89938,0.28377
3247.97065,0.28342
3246.04193,0.28283
3244.11320,0.28211
3242.18448,0.28154
3240.25576,0.28115
3238.32703,0.28077
3236.39831,0.28035
3234.46959,0.27988
3232.54086,0.27925
3230.61214,0.27848
3228.68342,0.27771
3226.75469,0.27704
3224.82597,0.27653
3222.89724,0.27608
3220.96852,0.27558
3219.03980,0.27501
3217.11107,0.27441
3215.18235,0.27376
3213.25363,0.27312
3211.32490,0.27246
3209.39618,0.27177
3207.46746,0.27111
3205.53873,0.27050
3203.61001,0.26984
3201.68128,0.26914
3199.75256,0.26838
3197.82384,0.26757
3195.89511,0.26676
3193.96639,0.26602
3192.03767,0.26534
3190.10894,0.26463
3188.18022,0.26380
3186.25149,0.26288
3184.32277,0.26202
3182.39405,0.26123
3180.46532,0.26037
3178.53660,0.25938
3176.60788,0.25846
3174.67915,0.25771
3172.75043,0.25702
3170.82171,0.25620
3168.89298,0.25523
3166.96426,0.25422
3165.03553,0.25326
3163.10681,0.25236
3161.17809,0.25154
3159.24936,0.25072
3157.32064,0.24981
3155.39192,0.24881
3153.46319,0.24780
3151.53447,0.24690
3149.60575,0.24614
3147.67702,0.24537
3145.74830,0.24446
3143.81957,0.24353
3141.89085,0.24266
3139.96213,0.24182
3138.03340,0.24096
3136.10468,0.24002
3134.17596,0.23903
3132.24723,0.23811
3130.31851,0.23732
3128.38978,0.23652
3126.46106,0.23561
3124.53234,0.23470
3122.60361,0.23386
3120.67489,0.23304
3118.74617,0.23221
3116.81744,0.23129
3114.88872,0.23024
3112.96000,0.22923
3111.03127,0.22831
3109.10255,0.22744
3107.17382,0.22655
3105.24510,0.22556
3103.31638,0.22445
3101.38765,0.22338
3099.45893,0.22239
3097.53021,0.22133
3095.60148,0.22019
3093.67276,0.21912
3091.74404,0.21817
3089.81531,0.21721
3087.88659,0.21614
3085.95786,0.21502
3084.02914,0.21388
3082.10042,0.21273
3080.17169,0.21162
3078.24297,0.21058
3076.31425,0.20960
3074.38552,0.20863
3072.45680,0.20764
3070.52807,0.20661
3068.59935,0.20553
3066.67063,0.20436
3064.74190,0.20311
3062.81318,0.20189
3060.88446,0.20084
3058.95573,0.19986
3057.02701,0.19875
3055.09829,0.19753
3053.16956,0.19634
3051.24084,0.19525
3049.31211,0.19424
3047.38339,0.19329
3045.45467,0.19231
3043.52594,0.19130
3041.59722,0.19032
3039.66850,0.18934
3037.73977,0.18827
3035.81105,0.18718
3033.88233,0.18611
3031.95360,0.18505
3030.02488,0.18408
3028.09615,0.18318
3026.16743,0.18228
3024.23871,0.18139
3022.30998,0.18046
3020.38126,0.17942
3018.45254,0.17840
3016.52381,0.17758
3014.59509,0.17690
3012.66636,0.17618
3010.73764,0.17537
3008.80892,0.17456
3006.88019,0.17376
3004.95147,0.17291
3003.02275,0.17206
3001.09402,0.17132
2999.16530,0.17072
2997.23658,0.17006
2995.30785,0.16938
2993.37913,0.16869
2991.45040,0.16798
2989.52168,0.16723
2987.59296,0.16660
2985.66423,0.16624
2983.73551,0.16601
2981.80679,0.16580
2979.87806,0.16563
2977.94934,0.16549
2976.02062,0.16543
2974.09189,0.16555
2972.16317,0.16570
2970.23444,0.16569
2968.30572,0.16573
2966.37700,0.16604
2964.44827,0.16642
2962.51955,0.16667
2960.59083,0.16678
2958.66210,0.16671
2956.73338,0.16641
2954.80466,0.16595
2952.87593,0.16547
2950.94721,0.16505
2949.01848,0.16481
2947.08976,0.16488
2945.16104,0.16519
2943.23231,0.16559
2941.30359,0.16617
2939.37487,0.16707
2937.44614,0.16814
2935.51742,0.16918
2933.58869,0.17023
2931.65997,0.17126
2929.73125,0.17210
2927.80252,0.17255
2925.87380,0.17250
2923.94508,0.17201
2922.01635,0.17110
2920.08763,0.16963
2918.15891,0.16741
2916.23018,0.16444
2914.30146,0.16108
2912.37273,0.15772
2910.44401,0.15461
2908.51529,0.15192
2906.58656,0.14973
2904.65784,0.14795
2902.72912,0.14632
2900.80039,0.14465
2898.87167,0.14301
2896.94295,0.14145
2895.01422,0.13990
2893.08550,0.13833
2891.15677,0.13689
2889.22805,0.13563
2887.29933,0.13439
2885.37060,0.13315
2883.44188,0.13204
2881.51316,0.13113
2879.58443,0.13033
2877.65571,0.12957
2875.72698,0.12894
2873.79826,0.12839
2871.86954,0.12774
2869.94081,0.12704
2868.01209,0.12651
2866.08337,0.12615
2864.15464,0.12595
2862.22592,0.12611
2860.29720,0.12666
2858.36847,0.12749
2856.43975,0.12838
2854.51102,0.12897
2852.58230,0.12876
2850.65358,0.12722
2848.72485,0.12416
2846.79613,0.12009
2844.86741,0.11593
2842.93868,0.11235
2841.00996,0.10950
2839.08124,0.10723
2837.15251,0.10530
2835.22379,0.10353
2833.29506,0.10193
2831.36634,0.10057
2829.43762,0.09931
2827.50889,0.09802
2825.58017,0.09681
2823.65145,0.09576
2821.72272,0.09479
2819.79400,0.09378
2817.86527,0.09277
2815.93655,0.09187
2814.00783,0.09106
2812.07910,0.09023
2810.15038,0.08935
2808.22166,0.08842
2806.29293,0.08758
2804.36421,0.08683
2802.43549,0.08605
2800.50676,0.08526
2798.57804,0.08451
2796.64931,0.08369
2794.72059,0.08280
2792.79187,0.08199
2790.86314,0.08133
2788.93442,0.08067
2787.00570,0.07985
2785.07697,0.07894
2783.14825,0.07810
2781.21953,0.07735
2779.29080,0.07669
2777.36208,0.07608
2775.43335,0.07544
2773.50463,0.07469
2771.57591,0.07390
2769.64718,0.07315
2767.71846,0.07236
2765.78974,0.07156
2763.86101,0.07090
2761.93229,0.07035
2760.00356,0.06975
2758.07484,0.06909
2756.14612,0.06842
2754.21739,0.06777
2752.28867,0.06721
2750.35995,0.06666
2748.43122,0.06602
2746.50250,0.06537
2744.57378,0.06477
2742.64505,0.06419
2740.71633,0.06361
2738.78760,0.06308
2736.85888,0.06252
2734.93016,0.06186
2733.00143,0.06122
2731.07271,0.06069
2729.14399,0.06017
2727.21526,0.05956
2725.28654,0.05888
2723.35782,0.05823
2721.42909,0.05762
2719.50037,0.05699
2717.57164,0.05640
2715.64292,0.05585
2713.71420,0.05532
2711.78547,0.05477
2709.85675,0.05415
2707.92803,0.05347
2705.99930,0.05285
2704.07058,0.05230
2702.14185,0.05176
2700.21313,0.05122
2698.28441,0.05071
2696.35568,0.05019
2694.42696,0.04967
2692.49824,0.04918
2690.56951,0.04870
2688.64079,0.04824
2686.71207,0.04776
2684.78334,0.04721
2682.85462,0.04664
2680.92589,0.04608
2678.99717,0.04556
2677.06845,0.04512
2675.13972,0.04475
2673.21100,0.04430
2671.28228,0.04367
2669.35355,0.04302
2667.42483,0.04250
2665.49611,0.04202
2663.56738,0.04149
2661.63866,0.04099
2659.70993,0.04061
2657.78121,0.04024
2655.85249,0.03983
2653.92376,0.03938
2651.99504,0.03889
2650.06632,0.03836
2648.13759,0.03792
2646.20887,0.03754
2644.28014,0.03709
2642.35142,0.03658
2640.42270,0.03613
2638.49397,0.03569
2636.56525,0.03524
2634.63653,0.03481
2632.70780,0.03439
2630.77908,0.03393
2628.85036,0.03350
2626.92163,0.03310
2624.99291,0.03268
2623.06418,0.03228
2621.13546,0.03189
2619.20674,0.03147
2617.27801,0.03106
2615.34929,0.03063
2613.42057,0.03018
2611.49184,0.02978
2609.56312,0.02941
2607.63440,0.02899
2605.70567,0.02856
2603.77695,0.02821
2601.84822,0.02792
2599.91950,0.02757
2597.99078,0.02714
2596.06205,0.02672
2594.13333,0.02640
2592.20461,0.02614
2590.27588,0.02585
2588.34716,0.02552
2586.41843,0.02520
2584.48971,0.02485
2582.56099,0.02448
2580.63226,0.02413
2578.70354,0.02383
2576.77482,0.02352
2574.84609,0.02317
2572.91737,0.02284
2570.98865,0.02255
2569.05992,0.02226
2567.13120,0.02201
2565.20247,0.02181
2563.27375,0.02154
2561.34503,0.02120
2559.41630,0.02089
2557.48758,0.02066
2555.55886,0.02042
2553.63013,0.02010
2551.70141,0.01979
2549.77269,0.01957
2547.84396,0.01943
2545.91524,0.01926
2543.98651,0.01901
2542.05779,0.01869
2540.12907,0.01840
2538.20034,0.01819
2536.27162,0.01800
2534.34290,0.01781
2532.41417,0.01760
2530.48545,0.01738
2528.55673,0.01718
2526.62800,0.01701
2524.69928,0.01681
2522.77055,0.01654
2520.84183,0.01627
2518.91311,0.01601
2516.98438,0.01576
2515.05566,0.01554
2513.12694,0.01533
2511.19821,0.01512
2509.26949,0.01493
2507.34076,0.01478
2505.41204,0.01461
2503.48332,0.01440
2501.55459,0.01414
2499.62587,0.01385
2497.69715,0.01359
2495.76842,0.01339
2493.83970,0.01320
2491.91098,0.01301
2489.98225,0.01284
2488.05353,0.01264
2486.12480,0.01241
2484.19608,0.01218
2482.26736,0.01200
2480.33863,0.01182
2478.40991,0.01160
2476.48119,0.01138
2474.55246,0.01119
2472.62374,0.01100
2470.69502,0.01085
2468.76629,0.01072
2466.83757,0.01051
2464.90884,0.01027
2462.98012,0.01007
2461.05140,0.00986
2459.12267,0.00969
2457.19395,0.00958
2455.26523,0.00945
2453.33650,0.00923
2451.40778,0.00901
2449.47905,0.00886
2447.55033,0.00866
2445.62161,0.00841
2443.69288,0.00822
2441.76416,0.00807
2439.83544,0.00791
2437.90671,0.00775
2435.97799,0.00760
2434.04927,0.00742
2432.12054,0.00723
2430.19182,0.00706
2428.26309,0.00692
2426.33437,0.00679
2424.40565,0.00661
2422.47692,0.00640
2420.54820,0.00622
2418.61948,0.00608
2416.69075,0.00593
2414.76203,0.00576
2412.83331,0.00564
2410.90458,0.00554
2408.97586,0.00542
2407.04713,0.00527
2405.11841,0.00511
2403.18969,0.00495
2401.26096,0.00483
2399.33224,0.00473
2397.40352,0.00464
2395.47479,0.00449
2393.54607,0.00433
2391.61734,0.00421
2389.68862,0.00415
2387.75990,0.00412
2385.83117,0.00409
2383.90245,0.00405
2381.97373,0.00403
2380.04500,0.00408
2378.11628,0.00419
2376.18756,0.00427
2374.25883,0.00428
2372.33011,0.00440
2370.40138,0.00467
2368.47266,0.00490
2366.54394,0.00496
2364.61521,0.00485
2362.68649,0.00463
2360.75777,0.00440
2358.82904,0.00413
2356.90032,0.00368
2354.97160,0.00310
2353.04287,0.00289
2351.11415,0.00334
2349.18542,0.00373
2347.25670,0.00342
2345.32798,0.00289
2343.39925,0.00290
2341.47053,0.00323
2339.54181,0.00344
2337.61308,0.00341
2335.68436,0.00318
2333.75563,0.00289
2331.82691,0.00262
2329.89819,0.00240
2327.96946,0.00226
2326.04074,0.00219
2324.11202,0.00208
2322.18329,0.00185
2320.25457,0.00164
2318.32585,0.00158
2316.39712,0.00155
2314.46840,0.00142
2312.53967,0.00127
2310.61095,0.00117
2308.68223,0.00112
2306.75350,0.00105
2304.82478,0.00093
2302.89606,0.00076
2300.96733,0.00063
2299.03861,0.00059
2297.10989,0.00058
2295.18116,0.00054
2293.25244,0.00050
2291.32371,0.00047
2289.39499,0.00044
2287.46627,0.00041
2285.53754,0.00038
2283.60882,0.00036
2281.68010,0.00035
2279.75137,0.00033
2277.82265,0.00032
2275.89392,0.00031
2273.96520,0.00036
2272.03648,0.00040
2270.10775,0.00042
2268.17903,0.00045
2266.25031,0.00047
2264.32158,0.00049
2262.39286,0.00047
2260.46414,0.00041
2258.53541,0.00033
2256.60669,0.00025
2254.67796,0.00022
2252.74924,0.00025
2250.82052,0.00026
2248.89179,0.00014
2246.96307,0.00013
2245.03435,0.00011
2243.10562,0.00004
2241.17690,-0.00004
2239.24818,-0.00005
2237.31945,0.00002
2235.39073,0.00009
2233.46200,0.00011
2231.53328,0.00013
2229.60456,0.00015
2227.67583,0.00014
2225.74711,0.00007
2223.81839,0.00000
2221.88966,-0.00001
2219.96094,-0.00000
2218.03221,0.00000
2216.10349,0.00001
2214.17477,0.00001
2212.24604,-0.00002
2210.31732,-0.00005
2208.38860,-0.00004
2206.45987,0.00000
2204.53115,0.00006
2202.60243,0.00010
2200.67370,0.00006
2198.74498,0.00004
2196.81625,0.00006
2194.88753,0.00006
2192.95881,0.00005
2191.03008,0.00006
2189.10136,0.00003
2187.17264,-0.00004
2185.24391,-0.00007
2183.31519,0.00001
2181.38647,0.00013
2179.45774,0.00016
2177.52902,0.00012
2175.60029,0.00017
2173.67157,0.00026
2171.74285,0.00031
2169.81412,0.00035
2167.88540,0.00036
2165.95668,0.00033
2164.02795,0.00032
2162.09923,0.00035
2160.17050,0.00035
2158.24178,0.00033
2156.31306,0.00034
2154.38433,0.00038
2152.45561,0.00039
2150.52689,0.00035
2148.59816,0.00031
2146.66944,0.00031
2144.74072,0.00034
2142.81199,0.00041
2140.88327,0.00049
2138.95454,0.00052
2137.02582,0.00047
2135.09710,0.00042
2133.16837,0.00044
2131.23965,0.00045
2129.31093,0.00041
2127.38220,0.00034
2125.45348,0.00033
2123.52476,0.00037
2121.59603,0.00041
2119.66731,0.00040
2117.73858,0.00031
2115.80986,0.00020
2113.88114,0.00013
2111.95241,0.00013
2110.02369,0.00013
2108.09497,0.00014
2106.16624,0.00014
2104.23752,0.00012
2102.30880,0.00005
2100.38007,-0.00000
2098.45135,0.00001
2096.52262,0.00005
2094.59390,0.00006
2092.66518,0.00000
2090.73645,-0.00009
2088.80773,-0.00012
2086.87901,-0.00013
2084.95028,-0.00019
2083.02156,-0.00032
2081.09283,-0.00043
2079.16411,-0.00044
2077.23539,-0.00041
2075.30666,-0.00041
2073.37794,-0.00039
2071.44922,-0.00035
2069.52049,-0.00033
2067.59177,-0.00032
2065.66305,-0.00030
2063.73432,-0.00031
2061.80560,-0.00029
2059.87687,-0.00022
2057.94815,-0.00012
2056.01943,-0.00004
2054.09070,0.00003
2052.16198,0.00011
2050.23326,0.00018
2048.30453,0.00027
2046.37581,0.00043
2044.44709,0.00069
2042.51836,0.00097
2040.58964,0.00120
2038.66091,0.00133
2036.73219,0.00144
2034.80347,0.00165
2032.87474,0.00193
2030.94602,0.00214
2029.01730,0.00228
2027.08857,0.00243
2025.15985,0.00262
2023.23112,0.00279
2021.30240,0.00295
2019.37368,0.00313
2017.44495,0.00331
2015.51623,0.00344
2013.58751,0.00351
2011.65878,0.00353
2009.73006,0.00359
2007.80134,0.00374
2005.87261,0.00389
2003.94389,0.00396
2002.01516,0.00396
2000.08644,0.00396
1998.15772,0.00400
1996.22899,0.00407
1994.30027,0.00413
1992.37155,0.00412
1990.44282,0.00405
1988.51410,0.00400
1986.58538,0.00394
1984.65665,0.00388
1982.72793,0.00381
1980.79920,0.00368
1978.87048,0.00349
1976.94176,0.00333
1975.01303,0.00324
1973.08431,0.00318
1971.15559,0.00310
1969.22686,0.00295
1967.29814,0.00273
1965.36941,0.00249
1963.44069,0.00229
1961.51197,0.00213
1959.58324,0.00195
1957.65452,0.00177
1955.72580,0.00161
1953.79707,0.00144
1951.86835,0.00124
1949.93963,0.00107
1948.01090,0.00097
1946.08218,0.00088
1944.15345,0.00072
1942.22473,0.00050
1940.29601,0.00030
1938.36728,0.00022
1936.43856,0.00020
1934.50984,0.00014
1932.58111,0.00006
1930.65239,-0.00002
1928.72367,-0.00004
1926.79494,0.00000
1924.86622,0.00015
1922.93749,0.00034
1921.00877,0.00047
1919.08005,0.00058
1917.15132,0.00074
1915.22260,0.00097
1913.29388,0.00135
1911.36515,0.00180
1909.43643,0.00222
1907.50770,0.00257
1905.57898,0.00297
1903.65026,0.00348
1901.72153,0.00407
1899.79281,0.00468
1897.86409,0.00521
1895.93536,0.00568
1894.00664,0.00617
1892.07792,0.00674
1890.14919,0.00725
1888.22047,0.00757
1886.29174,0.00781
1884.36302,0.00809
1882.43430,0.00839
1880.50557,0.00864
1878.57685,0.00879
1876.64813,0.00888
1874.71940,0.00896
1872.79068,0.00912
1870.86196,0.00929
1868.93323,0.00927
1867.00451,0.00894
1865.07578,0.00844
1863.14706,0.00796
1861.21834,0.00751
1859.28961,0.00704
1857.36089,0.00649
1855.43217,0.00594
1853.50344,0.00540
1851.57472,0.00489
1849.64599,0.00440
1847.71727,0.00392
1845.78855,0.00337
1843.85982,0.00273
1841.93110,0.00214
1840.00238,0.00175
1838.07365,0.00147
1836.14493,0.00117
1834.21621,0.00091
1832.28748,0.00079
1830.35876,0.00070
1828.43003,0.00051
1826.50131,0.00037
1824.57259,0.00028
1822.64386,0.00013
1820.71514,0.00000
1818.78642,-0.00010
1816.85769,-0.00013
1814.92897,0.00000
1813.00025,0.00009
1811.07152,0.00018
1809.14280,0.00018
1807.21407,0.00019
1805.28535,0.00032
1803.35663,0.00053
1801.42790,0.00074
1799.49918,0.00093
1797.57046,0.00116
1795.64173,0.00156
1793.71301,0.00220
1791.78428,0.00286
1789.85556,0.00326
1787.92684,0.00359
1785.99811,0.00409
1784.06939,0.00482
1782.14067,0.00568
1780.21194,0.00653
1778.28322,0.00732
1776.35450,0.00822
1774.42577,0.00936
1772.49705,0.01048
1770.56832,0.01119
1768.63960,0.01167
1766.71088,0.01231
1764.78215,0.01322
1762.85343,0.01427
1760.92471,0.01529
1758.99598,0.01624
1757.06726,0.01726
1755.13854,0.01834
1753.20981,0.01954
1751.28109,0.02110
1749.35236,0.02286
1747.42364,0.02444
1745.49492,0.02591
1743.56619,0.02755
1741.63747,0.02938
1739.70875,0.03123
1737.78002,0.03301
1735.85130,0.03499
1733.92257,0.03732
1731.99385,0.03940
1730.06513,0.04095
1728.13640,0.04232
1726.20768,0.04377
1724.27896,0.04537
1722.35023,0.04712
1720.42151,0.04910
1718.49279,0.05150
1716.56406,0.05389
1714.63534,0.05558
1712.70661,0.05684
1710.77789,0.05836
1708.84917,0.06041
1706.92044,0.06285
1704.99172,0.06526
1703.06300,0.06750
1701.13427,0.07028
1699.20555,0.07397
1697.27683,0.07790
1695.34810,0.08159
1693.41938,0.08475
1691.49065,0.08776
1689.56193,0.09114
1687.63321,0.09483
1685.70448,0.09907
1683.77576,0.10389
1681.84704,0.10779
1679.91831,0.11061
1677.98959,0.11342
1676.06087,0.11680
1674.13214,0.12046
1672.20342,0.12391
1670.27469,0.12734
1668.34597,0.13054
1666.41725,0.13299
1664.48852,0.13531
1662.55980,0.13790
1660.63108,0.14019
1658.70235,0.14192
1656.77363,0.14349
1654.84490,0.14532
1652.91618,0.14725
1650.98746,0.14863
1649.05873,0.14973
1647.13001,0.15093
1645.20129,0.15168
1643.27256,0.15196
1641.34384,0.15240
1639.41512,0.15318
1637.48639,0.15394
1635.55767,0.15404
1633.62894,0.15347
1631.70022,0.15297
1629.77150,0.15265
1627.84277,0.15211
1625.91405,0.15104
1623.98533,0.14931
1622.05660,0.14719
1620.12788,0.14537
1618.19916,0.14348
1616.27043,0.14055
1614.34171,0.13711
1612.41298,0.13414
1610.48426,0.13147
1608.55554,0.12886
1606.62681,0.12647
1604.69809,0.12435
1602.76937,0.12221
1600.84064,0.12001
1598.91192,0.11795
1596.98319,0.11603
1595.05447,0.11403
1593.12575,0.11190
1591.19702,0.10977
1589.26830,0.10773
1587.33958,0.10578
1585.41085,0.10388
1583.48213,0.10205
1581.55341,0.10046
1579.62468,0.09919
1577.69596,0.09780
1575.76723,0.09581
1573.83851,0.09390
1571.90979,0.09263
1569.98106,0.09149
1568.05234,0.09014
1566.12362,0.08891
1564.19489,0.08808
1562.26617,0.08773
1560.33745,0.08734
1558.40872,0.08593
1556.48000,0.08415
1554.55127,0.08292
1552.62255,0.08199
1550.69383,0.08108
1548.76510,0.08012
1546.83638,0.07927
1544.90766,0.07861
1542.97893,0.07779
1541.05021,0.07605
1539.12148,0.07322
1537.19276,0.07089
1535.26404,0.06931
1533.33531,0.06756
1531.40659,0.06557
1529.47787,0.06387
1527.54914,0.06223
1525.62042,0.06034
1523.69170,0.05834
1521.76297,0.05595
1519.83425,0.05310
1517.90552,0.05026
1515.97680,0.04742
1514.04808,0.04486
1512.11935,0.04297
1510.19063,0.04159
1508.26191,0.03970
1506.33318,0.03642
1504.40446,0.03327
1502.47574,0.03130
1500.54701,0.02989
1498.61829,0.02836
1496.68956,0.02650
1494.76084,0.02492
1492.83212,0.02409
1490.90339,0.02362
1488.97467,0.02292
1487.04595,0.02215
1485.11722,0.02179
1483.18850,0.02196
1481.25977,0.02260
1479.33105,0.02360
1477.40233,0.02498
1475.47360,0.02699
1473.54488,0.02980
1471.61616,0.03279
1469.68743,0.03502
1467.75871,0.03669
1465.82999,0.03814
1463.90126,0.03921
1461.97254,0.04005
1460.04381,0.04114
1458.11509,0.04236
1456.18637,0.04303
1454.25764,0.04311
1452.32892,0.04315
1450.40020,0.04341
1448.47147,0.04379
1446.54275,0.04413
1444.61403,0.04446
1442.68530,0.04486
1440.75658,0.04537
1438.82785,0.04593
1436.89913,0.04648
1434.97041,0.04698
1433.04168,0.04747
1431.11296,0.04802
1429.18424,0.04858
1427.25551,0.04915
1425.32679,0.04988
1423.39806,0.05070
1421.46934,0.05150
1419.54062,0.05240
1417.61189,0.05334
1415.68317,0.05417
1413.75445,0.05497
1411.82572,0.05589
1409.89700,0.05689
1407.96828,0.05791
1406.03955,0.05882
1404.11083,0.05943
1402.18210,0.05959
1400.25338,0.05917
1398.32466,0.05801
1396.39593,0.05619
1394.46721,0.05395
1392.53849,0.05175
1390.60976,0.05002
1388.68104,0.04859
1386.75232,0.04716
1384.82359,0.04574
1382.89487,0.04445
1380.96614,0.04326
1379.03742,0.04214
1377.10870,0.04102
1375.17997,0.03968
1373.25125,0.03810
1371.32253,0.03662
1369.39380,0.03536
1367.46508,0.03417
1365.53635,0.03300
1363.60763,0.03174
1361.67891,0.03039
1359.75018,0.02926
1357.82146,0.02842
1355.89274,0.02762
1353.96401,0.02680
1352.03529,0.02606
1350.10657,0.02541
1348.17784,0.02481
1346.24912,0.02428
1344.32039,0.02380
1342.39167,0.02335
1340.46295,0.02283
1338.53422,0.02227
1336.60550,0.02183
1334.67678,0.02153
1332.74805,0.02124
1330.81933,0.02092
1328.89061,0.02068
1326.96188,0.02057
1325.03316,0.02053
1323.10443,0.02048
1321.17571,0.02045
1319.24699,0.02042
1317.31826,0.02042
1315.38954,0.02056
1313.46082,0.02084
1311.53209,0.02107
1309.60337,0.02118
1307.67464,0.02130
1305.74592,0.02162
1303.81720,0.02214
1301.88847,0.02277
1299.95975,0.02346
1298.03103,0.02426
1296.10230,0.02523
1294.17358,0.02641
1292.24486,0.02779
1290.31613,0.02939
1288.38741,0.03127
1286.45868,0.03346
1284.52996,0.03591
1282.60124,0.03856
1280.67251,0.04142
1278.74379,0.04456
1276.81507,0.04799
1274.88634,0.05168
1272.95762,0.05576
1271.02890,0.06037
1269.10017,0.06543
1267.17145,0.07097
1265.24272,0.07727
1263.31400,0.08441
1261.38528,0.09239
1259.45655,0.10127
1257.52783,0.11090
1255.59911,0.12114
1253.67038,0.13194
1251.74166,0.14298
1249.81294,0.15372
1247.88421,0.16387
1245.95549,0.17334
1244.02676,0.18210
1242.09804,0.19014
1240.16932,0.19745
1238.24059,0.20395
1236.31187,0.20962
1234.38315,0.21467
1232.45442,0.21928
1230.52570,0.22355
1228.59697,0.22745
1226.66825,0.23096
1224.73953,0.23426
1222.81080,0.23748
1220.88208,0.24052
1218.95336,0.24313
1217.02463,0.24540
1215.09591,0.24772
1213.16719,0.25014
1211.23846,0.25242
1209.30974,0.25455
1207.38101,0.25677
1205.45229,0.25904
1203.52357,0.26107
1201.59484,0.26286
1199.66612,0.26468
1197.73740,0.26657
1195.80867,0.26838
1193.87995,0.27018
1191.95123,0.27204
1190.02250,0.27374
1188.09378,0.27533
1186.16505,0.27693
1184.23633,0.27840
1182.30761,0.27985
1180.37888,0.28156
1178.45016,0.28325
1176.52144,0.28469
1174.59271,0.28627
1172.66399,0.28825
1170.73526,0.29054
1168.80654,0.29280
1166.87782,0.29481
1164.94909,0.29666
1163.02037,0.29833
1161.09165,0.29983
1159.16292,0.30151
1157.23420,0.30347
1155.30548,0.30530
1153.37675,0.30686
1151.44803,0.30837
1149.51930,0.31000
1147.59058,0.31164
1145.66186,0.31298
1143.73313,0.31436
1141.80441,0.31622
1139.87569,0.31826
1137.94696,0.32021
1136.01824,0.32245
1134.08952,0.32501
1132.16079,0.32747
1130.23207,0.32987
1128.30334,0.33242
1126.37462,0.33516
1124.44590,0.33822
1122.51717,0.34169
1120.58845,0.34553
1118.65973,0.34991
1116.73100,0.35500
1114.80228,0.36041
1112.87355,0.36594
1110.94483,0.37229
1109.01611,0.37960
1107.08738,0.38691
1105.15866,0.39338
1103.22994,0.39918
1101.30121,0.40459
1099.37249,0.40925
1097.44377,0.41280
1095.51504,0.41540
1093.58632,0.41725
1091.65759,0.41839
1089.72887,0.41903
1087.80015,0.41917
1085.87142,0.41858
1083.94270,0.41742
1082.01398,0.41599
1080.08525,0.41418
1078.15653,0.41178
1076.22781,0.40920
1074.29908,0.40647
1072.37036,0.40314
1070.44163,0.39937
1068.51291,0.39580
1066.58419,0.39240
1064.65546,0.38854
1062.72674,0.38400
1060.79802,0.37854
1058.86929,0.37222
1056.94057,0.36597
1055.01184,0.36011
1053.08312,0.35398
1051.15440,0.34724
1049.22567,0.34008
1047.29695,0.33283
1045.36823,0.32575
1043.43950,0.31872
1041.51078,0.31152
1039.58206,0.30425
1037.65333,0.29697
1035.72461,0.28958
1033.79588,0.28218
1031.86716,0.27503
1029.93844,0.26817
1028.00971,0.26147
1026.08099,0.25468
1024.15227,0.24786
1022.22354,0.24155
1020.29482,0.23582
1018.36610,0.23036
1016.43737,0.22509
1014.50865,0.22005
1012.57992,0.21543
1010.65120,0.21123
1008.72248,0.20714
1006.79375,0.20310
1004.86503,0.19936
1002.93631,0.19591
1001.00758,0.19254
999.07886,0.18931
997.15013,0.18636
995.22141,0.18346
993.29269,0.18058
991.36396,0.17802
989.43524,0.17575
987.50652,0.17357
985.57779,0.17165
983.64907,0.17015
981.72035,0.16884
979.79162,0.16763
977.86290,0.16674
975.93417,0.16612
974.00545,0.16564
972.07673,0.16542
970.14800,0.16540
968.21928,0.16523
966.29056,0.16477
964.36183,0.16433
962.43311,0.16397
960.50439,0.16346
958.57566,0.16280
956.64694,0.16206
954.71821,0.16125
952.78949,0.16039
950.86077,0.15943
948.93204,0.15816
947.00332,0.15653
945.07460,0.15464
943.14587,0.15248
941.21715,0.15014
939.28842,0.14785
937.35970,0.14568
935.43098,0.14340
933.50225,0.14079
931.57353,0.13780
929.64481,0.13452
927.71608,0.13118
925.78736,0.12781
923.85864,0.12430
921.92991,0.12074
920.00119,0.11729
918.07246,0.11408
916.14374,0.11081
914.21502,0.10709
912.28629,0.10296
910.35757,0.09876
908.42885,0.09486
906.50012,0.09124
904.57140,0.08755
902.64268,0.08389
900.71395,0.08055
898.78523,0.07724
896.85650,0.07378
894.92778,0.07039
892.99906,0.06720
891.07033,0.06427
889.14161,0.06139
887.21289,0.05839
885.28416,0.05548
883.35544,0.05294
881.42671,0.05062
879.49799,0.04823
877.56927,0.04582
875.64054,0.04360
873.71182,0.04148
871.78310,0.03935
869.85437,0.03738
867.92565,0.03565
865.99693,0.03395
864.06820,0.03234
862.13948,0.03099
860.21075,0.02976
858.28203,0.02867
856.35331,0.02797
854.42458,0.02750
852.49586,0.02692
850.56714,0.02643
848.63841,0.02641
846.70969,0.02681
844.78097,0.02758
842.85224,0.02898
840.92352,0.03111
838.99479,0.03367
837.06607,0.03623
835.13735,0.03875
833.20862,0.04161
831.27990,0.04490
829.35118,0.04821
827.42245,0.05140
825.49373,0.05466
823.56501,0.05805
821.63628,0.06140
819.70756,0.06458
817.77883,0.06734
815.85011,0.06965
813.92139,0.07197
811.99266,0.07453
810.06394,0.07726
808.13522,0.08003
806.20649,0.08246
804.27777,0.08439
802.34904,0.08590
800.42032,0.08677
798.49160,0.08687
796.56287,0.08639
794.63415,0.08555
792.70543,0.08450
790.77670,0.08312
788.84798,0.08125
786.91926,0.07881
784.99053,0.07605
783.06181,0.07323
781.13308,0.07019
779.20436,0.06679
777.27564,0.06308
775.34691,0.05908
773.41819,0.05495
771.48947,0.05132
769.56074,0.04877
767.63202,0.04695
765.70330,0.04544
763.77457,0.04444
761.84585,0.04387
759.91712,0.04345
757.98840,0.04311
756.05968,0.04265
754.13095,0.04216
752.20223,0.04186
750.27351,0.04149
748.34478,0.04095
746.41606,0.04049
744.48733,0.04023
742.55861,0.04016
740.62989,0.04008
738.70116,0.03970
736.77244,0.03929
734.84372,0.03939
732.91499,0.03984
730.98627,0.04015
729.05755,0.04032
727.12882,0.04064
725.20010,0.04105
723.27137,0.04101
721.34265,0.04097
719.41393,0.04116
717.48520,0.04150
715.55648,0.04190
713.62776,0.04241
711.69903,0.04316
709.77031,0.04412
707.84159,0.04503
705.91286,0.04578
703.98414,0.04655
702.05541,0.04726
700.12669,0.04766
698.19797,0.04809
696.26924,0.04893
694.34052,0.04988
692.41180,0.05047
690.48307,0.05061
688.55435,0.05056
686.62562,0.05050
684.69690,0.05041
682.76818,0.05032
680.83945,0.05036
678.91073,0.05048
676.98201,0.05066
675.05328,0.05113
673.12456,0.05178
671.19584,0.05165
669.26711,0.05068
667.33839,0.05069
665.40966,0.05208
663.48094,0.05326
661.55222,0.05374
659.62349,0.05410
657.69477,0.05479
655.76605,0.05603
653.83732,0.05755
651.90860,0.05869
649.97988,0.05919
648.05115,0.05945
646.12243,0.06014
644.19370,0.06141
642.26498,0.06274
640.33626,0.06376
638.40753,0.06458
636.47881,0.06525
634.55009,0.06589
632.62136,0.06681
630.69264,0.06796
628.76391,0.06882
626.83519,0.06922
624.90647,0.06961
622.97774,0.07058
621.04902,0.07167
619.12030,0.07223
617.19157,0.07273
615.26285,0.07398
613.33413,0.07554
611.40540,0.07639
609.47668,0.07674
607.54795,0.07758
605.61923,0.07937
603.69051,0.08176
601.76178,0.08364
599.83306,0.08473
597.90434,0.08580
595.97561,0.08704
594.04689,0.08842
592.11817,0.09018
590.18944,0.09193
588.26072,0.09300
586.33199,0.09311
584.40327,0.09276
582.47455,0.09323
580.54582,0.09480
578.61710,0.09598
576.68838,0.09585
574.75965,0.09523
572.83093,0.09534
570.90220,0.09617
568.97348,0.09690
567.04476,0.09726
565.11603,0.09750
563.18731,0.09768
561.25859,0.09765
559.32986,0.09725
557.40114,0.09687
555.47242,0.09697
553.54369,0.09745
551.61497,0.09843
549.68624,0.09991
547.75752,0.10068
545.82880,0.10013
543.90007,0.09949
541.97135,0.09963
540.04263,0.10003
538.11390,0.09973
536.18518,0.09864
534.25646,0.09792
532.32773,0.09786
530.39901,0.09730
528.47028,0.09579
526.54156,0.09409
524.61284,0.09328
522.68411,0.09360
520.75539,0.09437
518.82667,0.09524
516.89794,0.09663
514.96922,0.09834
513.04049,0.09968
511.11177,0.10084
509.18305,0.10234
507.25432,0.10437
505.32560,0.10738
503.39688,0.11172
501.46815,0.11671
499.53943,0.12185
497.61071,0.12802
495.68198,0.13522
493.75326,0.14240
491.82453,0.14978
489.89581,0.15811
487.96709,0.16692
486.03836,0.17483
484.10964,0.18086
482.18092,0.18530
480.25219,0.18948
478.32347,0.19484
476.39475,0.20188
474.46602,0.20977
472.53730,0.21668
470.60857,0.22019
468.67985,0.22034
466.75113,0.22053
464.82240,0.22196
462.89368,0.22115
460.96496,0.21636
459.03623,0.21088
457.10751,0.20733
455.17878,0.20390
453.25006,0.19882
451.32134,0.19420
449.39261,0.19196
447.46389,0.18984
445.53517,0.18384
443.60644,0.17405
441.67772,0.16612
439.74900,0.16294
437.82027,0.16032
435.89155,0.15450
433.96282,0.14649
432.03410,0.13872
430.10538,0.13174
428.17665,0.12414
426.24793,0.11504
424.31921,0.10690
422.39048,0.10332
420.46176,0.10299
418.53304,0.10017
416.60431,0.09212
414.67559,0.08176
412.74686,0.07293
410.81814,0.06816
408.88942,0.06669
406.96069,0.06456
405.03197,0.06011
403.10325,0.05789
401.17452,0.06210
399.24580,0.06875
397.31708,0.06441
395.38835,0.04301
393.45963,0.02231
391.53090,0.01845
389.60218,0.02613
387.67346,0.03199
385.74473,0.02467
383.81601,0.01164
381.88729,0.01095
379.95856,0.01504
378.02984,0.00961
376.10111,0.00206
374.17239,0.00203
372.24367,0.00155
370.31494,0.00000
368.38622,0.00000
