3996.31543,0.00004
3994.38671,0.00003
3992.45799,0.00000
3990.52926,0.00002
3988.60054,0.00015
3986.67182,0.00035
3984.74309,0.00050
3982.81437,0.00048
3980.88564,0.00042
3978.95692,0.00048
3977.02820,0.00058
3975.09947,0.00062
3973.17075,0.00068
3971.24203,0.00085
3969.31330,0.00102
3967.38458,0.00104
3965.45586,0.00089
3963.52713,0.00076
3961.59841,0.00079
3959.66968,0.00083
3957.74096,0.00065
3955.81224,0.00039
3953.88351,0.00042
3951.95479,0.00067
3950.02607,0.00080
3948.09734,0.00073
3946.16862,0.00069
3944.23990,0.00078
3942.31117,0.00081
3940.38245,0.00076
3938.45372,0.00078
3936.52500,0.00096
3934.59628,0.00119
3932.66755,0.00131
3930.73883,0.00129
3928.81011,0.00127
3926.88138,0.00127
3924.95266,0.00114
3923.02393,0.00083
3921.09521,0.00058
3919.16649,0.00057
3917.23776,0.00061
3915.30904,0.00057
3913.38032,0.00053
3911.45159,0.00056
3909.52287,0.00063
3907.59415,0.00073
3905.66542,0.00083
3903.73670,0.00078
3901.80797,0.00049
3899.87925,0.00011
3897.95053,0.00000
3896.02180,0.00021
3894.09308,0.00045
3892.16436,0.00051
3890.23563,0.00056
3888.30691,0.00081
3886.37819,0.00101
3884.44946,0.00100
3882.52074,0.00097
3880.59201,0.00088
3878.66329,0.00077
3876.73457,0.00082
3874.80584,0.00095
3872.87712,0.00091
3870.94840,0.00064
3869.01967,0.00035
3867.09095,0.00037
3865.16222,0.00058
3863.23350,0.00062
3861.30478,0.00053
3859.37605,0.00062
3857.44733,0.00098
3855.51861,0.00122
3853.58988,0.00074
3851.66116,0.00000
3849.73244,-0.00001
3847.80371,0.00043
3845.87499,0.00068
3843.94626,0.00066
3842.01754,0.00064
3840.08882,0.00062
3838.16009,0.00039
3836.23137,0.00013
3834.30265,0.00019
3832.37392,0.00052
3830.44520,0.00083
3828.51648,0.00095
3826.58775,0.00095
3824.65903,0.00099
3822.73030,0.00100
3820.80158,0.00077
3818.87286,0.00059
3816.94413,0.00067
3815.01541,0.00072
3813.08669,0.00080
3811.15796,0.00110
3809.22924,0.00140
3807.30052,0.00141
3805.37179,0.00131
3803.44307,0.00128
3801.51434,0.00116
3799.58562,0.00110
3797.65690,0.00126
3795.72817,0.00142
3793.79945,0.00151
3791.87073,0.00162
3789.94200,0.00171
3788.01328,0.00182
3786.08455,0.00194
3784.15583,0.00201
3782.22711,0.00209
3780.29838,0.00214
3778.36966,0.00215
3776.44094,0.00234
3774.51221,0.00277
3772.58349,0.00325
3770.65477,0.00349
3768.72604,0.00348
3766.79732,0.00348
3764.86859,0.00360
3762.93987,0.00377
3761.01115,0.00394
3759.08242,0.00410
3757.15370,0.00443
3755.22498,0.00504
3753.29625,0.00570
3751.36753,0.00597
3749.43881,0.00585
3747.51008,0.00592
3745.58136,0.00643
3743.65263,0.00705
3741.72391,0.00759
3739.79519,0.00822
3737.86646,0.00893
3735.93774,0.00951
3734.00902,0.00991
3732.08029,0.01045
3730.15157,0.01138
3728.22284,0.01249
3726.29412,0.01348
3724.36540,0.01437
3722.43667,0.01532
3720.50795,0.01642
3718.57923,0.01781
3716.65050,0.01958
3714.72178,0.02145
3712.79306,0.02316
3710.86433,0.02488
3708.93561,0.02693
3707.00688,0.02922
3705.07816,0.03150
3703.14944,0.03381
3701.22071,0.03630
3699.29199,0.03891
3697.36327,0.04144
3695.43454,0.04376
3693.50582,0.04588
3691.57710,0.04803
3689.64837,0.05047
3687.71965,0.05320
3685.79092,0.05612
3683.86220,0.05924
3681.93348,0.06257
3680.00475,0.06598
3678.07603,0.06941
3676.14731,0.07305
3674.21858,0.07669
3672.28986,0.08000
3670.36113,0.08346
3668.43241,0.08709
3666.50369,0.09044
3664.57496,0.09361
3662.64624,0.09675
3660.71752,0.09991
3658.78879,0.10324
3656.86007,0.10688
3654.93135,0.11048
3653.00262,0.11356
3651.07390,0.11639
3649.14517,0.11951
3647.21645,0.12278
3645.28773,0.12570
3643.35900,0.12831
3641.43028,0.13089
3639.50156,0.13351
3637.57283,0.13612
3635.64411,0.13880
3633.71539,0.14141
3631.78666,0.14373
3629.85794,0.14599
3627.92921,0.14850
3626.00049,0.15096
3624.07177,0.15309
3622.14304,0.15492
3620.21432,0.15659
3618.28560,0.15810
3616.35687,0.15945
3614.42815,0.16077
3612.49942,0.16219
3610.57070,0.16372
3608.64198,0.16529
3606.71325,0.16675
3604.78453,0.16809
3602.85581,0.16939
3600.92708,0.17070
3598.99836,0.17201
3597.06964,0.17332
3595.14091,0.17463
3593.21219,0.17592
3591.28346,0.17706
3589.35474,0.17809
3587.42602,0.17928
3585.49729,0.18071
3583.56857,0.18208
3581.63985,0.18323
3579.71112,0.18428
3577.78240,0.18542
3575.85368,0.18671
3573.92495,0.18803
3571.99623,0.18916
3570.06750,0.19005
3568.13878,0.19088
3566.21006,0.19184
3564.28133,0.19298
3562.35261,0.19412
3560.42389,0.19524
3558.49516,0.19639
3556.56644,0.19758
3554.63771,0.19879
3552.70899,0.19993
3550.78027,0.20088
3548.85154,0.20167
3546.92282,0.20239
3544.99410,0.20315
3543.06537,0.20402
3541.13665,0.20498
3539.20793,0.20585
3537.27920,0.20659
3535.35048,0.20742
3533.42175,0.20833
3531.49303,0.20905
3529.56431,0.20957
3527.63558,0.21015
3525.70686,0.21087
3523.77814,0.21165
3521.84941,0.21254
3519.92069,0.21356
3517.99197,0.21457
3516.06324,0.21549
3514.13452,0.21633
3512.20579,0.21708
3510.27707,0.21773
3508.34835,0.21833
3506.41962,0.21900
3504.49090,0.21970
3502.56218,0.22041
3500.63345,0.22116
3498.70473,0.22199
3496.77600,0.22280
3494.84728,0.22355
3492.91856,0.22423
3490.98983,0.22484
3489.06111,0.22544
3487.13239,0.22611
3485.20366,0.22676
3483.27494,0.22735
3481.34622,0.22805
3479.41749,0.22892
3477.48877,0.22968
3475.56004,0.23020
3473.63132,0.23070
3471.70260,0.23135
3469.77387,0.23205
3467.84515,0.23270
3465.91643,0.23322
3463.98770,0.23366
3462.05898,0.23412
3460.13026,0.23461
3458.20153,0.23506
3456.27281,0.23541
3454.34408,0.23574
3452.41536,0.23621
3450.48664,0.23681
3448.55791,0.23737
3446.62919,0.23776
3444.70047,0.23802
3442.77174,0.23840
3440.84302,0.23901
3438.91429,0.23956
3436.98557,0.23978
3435.05685,0.23980
3433.12812,0.23995
3431.19940,0.24028
3429.27068,0.24062
3427.34195,0.24091
3425.41323,0.24113
3423.48451,0.24136
3421.55578,0.24165
3419.62706,0.24191
3417.69833,0.24203
3415.76961,0.24210
3413.84089,0.24224
3411.91216,0.24245
3409.98344,0.24270
3408.05472,0.24284
3406.12599,0.24283
3404.19727,0.24278
3402.26855,0.24275
3400.33982,0.24263
3398.41110,0.24252
3396.48237,0.24252
3394.55365,0.24255
3392.62493,0.24251
3390.69620,0.24238
3388.76748,0.24220
3386.83876,0.24199
3384.91003,0.24174
3382.98131,0.24151
3381.05259,0.24140
3379.12386,0.24132
3377.19514,0.24113
3375.26641,0.24088
3373.33769,0.24064
3371.40897,0.24039
3369.48024,0.24017
3367.55152,0.23995
3365.62280,0.23962
3363.69407,0.23924
3361.76535,0.23891
3359.83662,0.23858
3357.90790,0.23822
3355.97918,0.23789
3354.05045,0.23750
3352.12173,0.23689
3350.19301,0.23616
3348.26428,0.23564
3346.33556,0.23542
3344.40684,0.23521
3342.47811,0.23486
3340.54939,0.23442
3338.62066,0.23392
3336.69194,0.23341
3334.76322,0.23292
3332.83449,0.23251
3330.90577,0.23221
3328.97705,0.23184
3327.04832,0.23132
3325.11960,0.23079
3323.19088,0.23035
3321.26215,0.22987
3319.33343,0.22938
3317.40470,0.22899
3315.47598,0.22855
3313.54726,0.22804
3311.61853,0.22773
3309.68981,0.22755
3307.76109,0.22715
3305.83236,0.22656
3303.90364,0.22605
3301.97491,0.22569
3300.04619,0.22545
3298.11747,0.22520
3296.18874,0.22476
3294.26002,0.22420
3292.33130,0.22377
3290.40257,0.22351
3288.47385,0.22319
3286.54513,0.22271
3284.61640,0.22220
3282.68768,0.22173
3280.75895,0.22129
3278.83023,0.22094
3276.90151,0.22068
3274.97278,0.22031
3273.04406,0.21982
3271.11534,0.21938
3269.18661,0.21910
3267.25789,0.21881
3265.32917,0.21844
3263.40044,0.21799
3261.47172,0.21744
3259.54299,0.21695
3257.61427,0.21662
3255.68555,0.21628
3253.75682,0.21586
3251.82810,0.21548
3249.89938,0.21514
3247.97065,0.21476
3246.04193,0.21436
3244.11320,0.21393
3242.18448,0.21334
3240.25576,0.21265
3238.32703,0.21208
3236.39831,0.21160
3234.46959,0.21107
3232.54086,0.21047
3230.61214,0.20989
3228.68342,0.20934
3226.75469,0.20872
3224.82597,0.20806
3222.89724,0.20747
3220.96852,0.20694
3219.03980,0.20637
3217.11107,0.20570
3215.18235,0.20496
3213.25363,0.20418
3211.32490,0.20336
3209.39618,0.20257
3207.46746,0.20193
3205.53873,0.20147
3203.61001,0.20100
3201.68128,0.20031
3199.75256,0.19942
3197.82384,0.19845
3195.89511,0.19746
3193.96639,0.19660
3192.03767,0.19592
3190.10894,0.19527
3188.18022,0.19449
3186.25149,0.19358
3184.32277,0.19273
3182.39405,0.19196
3180.46532,0.19117
3178.53660,0.19032
3176.60788,0.18949
3174.67915,0.18868
3172.75043,0.18780
3170.82171,0.18680
3168.89298,0.18573
3166.96426,0.18473
3165.03553,0.18388
3163.10681,0.18310
3161.17809,0.18237
3159.24936,0.18165
3157.32064,0.18083
3155.39192,0.17993
3153.46319,0.17907
3151.53447,0.17833
3149.60575,0.17763
3147.67702,0.17682
3145.74830,0.17594
3143.81957,0.17505
3141.89085,0.17409
3139.96213,0.17310
3138.03340,0.17223
3136.10468,0.17151
3134.17596,0.17072
3132.24723,0.16978
3130.31851,0.16888
3128.38978,0.16806
3126.46106,0.16720
3124.53234,0.16633
3122.60361,0.16552
3120.67489,0.16472
3118.74617,0.16385
3116.81744,0.16291
3114.88872,0.16196
3112.96000,0.16102
3111.03127,0.16012
3109.10255,0.15925
3107.17382,0.15833
3105.24510,0.15731
3103.31638,0.15624
3101.38765,0.15513
3099.45893,0.15406
3097.53021,0.15310
3095.60148,0.15223
3093.67276,0.15139
3091.74404,0.15054
3089.81531,0.14957
3087.88659,0.14844
3085.95786,0.14726
3084.02914,0.14617
3082.10042,0.14521
3080.17169,0.14427
3078.24297,0.14327
3076.31425,0.14220
3074.38552,0.14110
3072.45680,0.14003
3070.52807,0.13910
3068.59935,0.13828
3066.67063,0.13741
3064.74190,0.13634
3062.81318,0.13517
3060.88446,0.13408
3058.95573,0.13305
3057.02701,0.13206
3055.09829,0.13116
3053.16956,0.13034
3051.24084,0.12954
3049.31211,0.12869
3047.38339,0.12774
3045.45467,0.12674
3043.52594,0.12577
3041.59722,0.12487
3039.66850,0.12405
3037.73977,0.12331
3035.81105,0.12255
3033.88233,0.12166
3031.95360,0.12067
3030.02488,0.11980
3028.09615,0.11910
3026.16743,0.11841
3024.23871,0.11762
3022.30998,0.11679
3020.38126,0.11612
3018.45254,0.11560
3016.52381,0.11502
3014.59509,0.11425
3012.66636,0.11349
3010.73764,0.11284
3008.80892,0.11216
3006.88019,0.11138
3004.95147,0.11061
3003.02275,0.10995
3001.09402,0.10933
2999.16530,0.10875
2997.23658,0.10826
2995.30785,0.10781
2993.37913,0.10733
2991.45040,0.10686
2989.52168,0.10646
2987.59296,0.10617
2985.66423,0.10598
2983.73551,0.10586
2981.80679,0.10581
2979.87806,0.10583
2977.94934,0.10587
2976.02062,0.10592
2974.09189,0.10604
2972.16317,0.10623
2970.23444,0.10647
2968.30572,0.10684
2966.37700,0.10733
2964.44827,0.10777
2962.51955,0.10798
2960.59083,0.10790
2958.66210,0.10763
2956.73338,0.10723
2954.80466,0.10659
2952.87593,0.10578
2950.94721,0.10506
2949.01848,0.10461
2947.08976,0.10449
2945.16104,0.10476
2943.23231,0.10534
2941.30359,0.10603
2939.37487,0.10688
2937.44614,0.10792
2935.51742,0.10902
2933.58869,0.11013
2931.65997,0.11121
2929.73125,0.11203
2927.80252,0.11242
2925.87380,0.11236
2923.94508,0.11178
2922.01635,0.11052
2920.08763,0.10858
2918.15891,0.10622
2916.23018,0.10365
2914.30146,0.10095
2912.37273,0.09839
2910.44401,0.09614
2908.51529,0.09409
2906.58656,0.09228
2904.65784,0.09079
2902.72912,0.08947
2900.80039,0.08811
2898.87167,0.08679
2896.94295,0.08557
2895.01422,0.08431
2893.08550,0.08295
2891.15677,0.08171
2889.22805,0.08072
2887.29933,0.07985
2885.37060,0.07896
2883.44188,0.07814
2881.51316,0.07759
2879.58443,0.07728
2877.65571,0.07699
2875.72698,0.07668
2873.79826,0.07638
2871.86954,0.07596
2869.94081,0.07541
2868.01209,0.07491
2866.08337,0.07467
2864.15464,0.07479
2862.22592,0.07529
2860.29720,0.07608
2858.36847,0.07697
2856.43975,0.07769
2854.51102,0.07801
2852.58230,0.07758
2850.65358,0.07610
2848.72485,0.07354
2846.79613,0.07042
2844.86741,0.06736
2842.93868,0.06463
2841.00996,0.06237
2839.08124,0.06055
2837.15251,0.05906
2835.22379,0.05777
2833.29506,0.05660
2831.36634,0.05559
2829.43762,0.05471
2827.50889,0.05382
2825.58017,0.05294
2823.65145,0.05219
2821.72272,0.05150
2819.79400,0.05082
2817.86527,0.05010
2815.93655,0.04935
2814.00783,0.04868
2812.07910,0.04812
2810.15038,0.04763
2808.22166,0.04718
2806.29293,0.04674
2804.36421,0.04620
2802.43549,0.04558
2800.50676,0.04498
2798.57804,0.04446
2796.64931,0.04395
2794.72059,0.04348
2792.79187,0.04307
2790.86314,0.04264
2788.93442,0.04212
2787.00570,0.04156
2785.07697,0.04106
2783.14825,0.04062
2781.21953,0.04019
2779.29080,0.03973
2777.36208,0.03925
2775.43335,0.03875
2773.50463,0.03824
2771.57591,0.03774
2769.64718,0.03730
2767.71846,0.03692
2765.78974,0.03650
2763.86101,0.03602
2761.93229,0.03562
2760.00356,0.03533
2758.07484,0.03497
2756.14612,0.03453
2754.21739,0.03409
2752.28867,0.03370
2750.35995,0.03338
2748.43122,0.03307
2746.50250,0.03270
2744.57378,0.03230
2742.64505,0.03191
2740.71633,0.03150
2738.78760,0.03104
2736.85888,0.03061
2734.93016,0.03026
2733.00143,0.03005
2731.07271,0.02985
2729.14399,0.02950
2727.21526,0.02906
2725.28654,0.02867
2723.35782,0.02834
2721.42909,0.02799
2719.50037,0.02762
2717.57164,0.02727
2715.64292,0.02694
2713.71420,0.02657
2711.78547,0.02621
2709.85675,0.02590
2707.92803,0.02557
2705.99930,0.02516
2704.07058,0.02477
2702.14185,0.02442
2700.21313,0.02411
2698.28441,0.02380
2696.35568,0.02345
2694.42696,0.02314
2692.49824,0.02287
2690.56951,0.02254
2688.64079,0.02218
2686.71207,0.02193
2684.78334,0.02172
2682.85462,0.02147
2680.92589,0.02121
2678.99717,0.02095
2677.06845,0.02066
2675.13972,0.02036
2673.21100,0.02009
2671.28228,0.01982
2669.35355,0.01953
2667.42483,0.01919
2665.49611,0.01880
2663.56738,0.01843
2661.63866,0.01812
2659.70993,0.01788
2657.78121,0.01766
2655.85249,0.01745
2653.92376,0.01718
2651.99504,0.01688
2650.06632,0.01658
2648.13759,0.01630
2646.20887,0.01602
2644.28014,0.01578
2642.35142,0.01559
2640.42270,0.01543
2638.49397,0.01523
2636.56525,0.01500
2634.63653,0.01474
2632.70780,0.01450
2630.77908,0.01433
2628.85036,0.01414
2626.92163,0.01381
2624.99291,0.01338
2623.06418,0.01304
2621.13546,0.01285
2619.20674,0.01268
2617.27801,0.01245
2615.34929,0.01218
2613.42057,0.01192
2611.49184,0.01174
2609.56312,0.01164
2607.63440,0.01152
2605.70567,0.01136
2603.77695,0.01112
2601.84822,0.01089
2599.91950,0.01073
2597.99078,0.01053
2596.06205,0.01028
2594.13333,0.01007
2592.20461,0.00988
2590.27588,0.00965
2588.34716,0.00938
2586.41843,0.00910
2584.48971,0.00886
2582.56099,0.00872
2580.63226,0.00858
2578.70354,0.00837
2576.77482,0.00816
2574.84609,0.00800
2572.91737,0.00787
2570.98865,0.00769
2569.05992,0.00747
2567.13120,0.00730
2565.20247,0.00716
2563.27375,0.00700
2561.34503,0.00685
2559.41630,0.00675
2557.48758,0.00670
2555.55886,0.00669
2553.63013,0.00661
2551.70141,0.00641
2549.77269,0.00615
2547.84396,0.00594
2545.91524,0.00580
2543.98651,0.00565
2542.05779,0.00553
2540.12907,0.00550
2538.20034,0.00543
2536.27162,0.00527
2534.34290,0.00507
2532.41417,0.00488
2530.48545,0.00474
2528.55673,0.00468
2526.62800,0.00463
2524.69928,0.00447
2522.77055,0.00425
2520.84183,0.00408
2518.91311,0.00399
2516.98438,0.00397
2515.05566,0.00396
2513.12694,0.00382
2511.19821,0.00363
2509.26949,0.00358
2507.34076,0.00357
2505.41204,0.00342
2503.48332,0.00325
2501.55459,0.00321
2499.62587,0.00315
2497.69715,0.00296
2495.76842,0.00278
2493.83970,0.00272
2491.91098,0.00271
2489.98225,0.00261
2488.05353,0.00249
2486.12480,0.00241
2484.19608,0.00238
2482.26736,0.00229
2480.33863,0.00215
2478.40991,0.00205
2476.48119,0.00195
2474.55246,0.00186
2472.62374,0.00179
2470.69502,0.00174
2468.76629,0.00162
2466.83757,0.00152
2464.90884,0.00152
2462.98012,0.00156
2461.05140,0.00149
2459.12267,0.00130
2457.19395,0.00119
2455.26523,0.00129
2453.33650,0.00140
2451.40778,0.00133
2449.47905,0.00117
2447.55033,0.00107
2445.62161,0.00105
2443.69288,0.00101
2441.76416,0.00090
2439.83544,0.00081
2437.90671,0.00078
2435.97799,0.00076
2434.04927,0.00077
2432.12054,0.00077
2430.19182,0.00070
2428.26309,0.00061
2426.33437,0.00055
2424.40565,0.00051
2422.47692,0.00048
2420.54820,0.00048
2418.61948,0.00050
2416.69075,0.00050
2414.76203,0.00046
2412.83331,0.00039
2410.90458,0.00033
2408.97586,0.00027
2407.04713,0.00019
2405.11841,0.00018
2403.18969,0.00027
2401.26096,0.00035
2399.33224,0.00032
2397.40352,0.00026
2395.47479,0.00023
2393.54607,0.00018
2391.61734,0.00008
2389.68862,0.00000
2387.75990,0.00000
2385.83117,0.00010
2383.90245,0.00024
2381.97373,0.00038
2380.04500,0.00049
2378.11628,0.00054
2376.18756,0.00045
2374.25883,0.00028
2372.33011,0.00027
2370.40138,0.00044
2368.47266,0.00059
2366.54394,0.00059
2364.61521,0.00053
2362.68649,0.00051
2360.75777,0.00048
2358.82904,0.00032
2356.90032,0.00010
2354.97160,0.00000
2353.04287,0.00023
2351.11415,0.00087
2349.18542,0.00138
2347.25670,0.00118
2345.32798,0.00064
2343.39925,0.00035
2341.47053,0.00031
2339.54181,0.00031
2337.61308,0.00032
2335.68436,0.00030
2333.75563,0.00025
2331.82691,0.00025
2329.89819,0.00031
2327.96946,0.00036
2326.04074,0.00034
2324.11202,0.00031
2322.18329,0.00029
2320.25457,0.00023
2318.32585,0.00018
2316.39712,0.00016
2314.46840,0.00016
2312.53967,0.00017
2310.61095,0.00018
2308.68223,0.00017
2306.75350,0.00017
2304.82478,0.00019
2302.89606,0.00016
2300.96733,0.00007
2299.03861,-0.00001
2297.10989,-0.00005
2295.18116,-0.00010
2293.25244,-0.00020
2291.32371,-0.00027
2289.39499,-0.00025
2287.46627,-0.00017
2285.53754,-0.00009
2283.60882,-0.00002
2281.68010,0.00002
2279.75137,0.00001
2277.82265,-0.00003
2275.89392,-0.00007
2273.96520,-0.00011
2272.03648,-0.00012
2270.10775,-0.00011
2268.17903,-0.00007
2266.25031,-0.00002
2264.32158,0.00001
2262.39286,0.00002
2260.46414,0.00002
2258.53541,0.00004
2256.60669,0.00006
2254.67796,0.00005
2252.74924,-0.00001
2250.82052,-0.00010
2248.89179,-0.00015
2246.96307,-0.00009
2245.03435,0.00003
2243.10562,0.00006
2241.17690,0.00000
2239.24818,-0.00004
2237.31945,-0.00006
2235.39073,-0.00008
2233.46200,-0.00011
2231.53328,-0.00010
2229.60456,-0.00005
2227.67583,0.00002
2225.74711,0.00007
2223.81839,0.00008
2221.88966,0.00002
2219.96094,-0.00002
2218.03221,0.00000
2216.10349,0.00000
2214.17477,-0.00006
2212.24604,-0.00013
2210.31732,-0.00014
2208.38860,-0.00008
2206.45987,0.00000
2204.53115,0.00002
2202.60243,0.00003
2200.67370,0.00005
2198.74498,0.00007
2196.81625,0.00006
2194.88753,0.00001
2192.95881,-0.00002
2191.03008,0.00001
2189.10136,0.00005
2187.17264,0.00007
2185.24391,0.00005
2183.31519,-0.00002
2181.38647,-0.00008
2179.45774,-0.00007
2177.52902,-0.00006
2175.60029,-0.00013
2173.67157,-0.00018
2171.74285,-0.00013
2169.81412,-0.00005
2167.88540,0.00000
2165.95668,0.00002
2164.02795,0.00004
2162.09923,0.00009
2160.17050,0.00010
2158.24178,0.00005
2156.31306,0.00002
2154.38433,0.00006
2152.45561,0.00012
2150.52689,0.00013
2148.59816,0.00014
2146.66944,0.00020
2144.74072,0.00026
2142.81199,0.00027
2140.88327,0.00022
2138.95454,0.00016
2137.02582,0.00012
2135.09710,0.00011
2133.16837,0.00016
2131.23965,0.00020
2129.31093,0.00017
2127.38220,0.00011
2125.45348,0.00010
2123.52476,0.00006
2121.59603,-0.00001
2119.66731,-0.00009
2117.73858,-0.00014
2115.80986,-0.00013
2113.88114,-0.00006
2111.95241,0.00004
2110.02369,0.00007
2108.09497,0.00003
2106.16624,-0.00003
2104.23752,-0.00004
2102.30880,-0.00002
2100.38007,-0.00003
2098.45135,-0.00006
2096.52262,-0.00004
2094.59390,0.00000
2092.66518,-0.00004
2090.73645,-0.00010
2088.80773,-0.00017
2086.87901,-0.00025
2084.95028,-0.00033
2083.02156,-0.00037
2081.09283,-0.00039
2079.16411,-0.00041
2077.23539,-0.00042
2075.30666,-0.00044
2073.37794,-0.00049
2071.44922,-0.00054
2069.52049,-0.00053
2067.59177,-0.00045
2065.66305,-0.00037
2063.73432,-0.00034
2061.80560,-0.00032
2059.87687,-0.00031
2057.94815,-0.00030
2056.01943,-0.00027
2054.09070,-0.00024
2052.16198,-0.00022
2050.23326,-0.00017
2048.30453,-0.00005
2046.37581,0.00010
2044.44709,0.00022
2042.51836,0.00031
2040.58964,0.00041
2038.66091,0.00055
2036.73219,0.00070
2034.80347,0.00079
2032.87474,0.00080
2030.94602,0.00080
2029.01730,0.00089
2027.08857,0.00102
2025.15985,0.00112
2023.23112,0.00119
2021.30240,0.00131
2019.37368,0.00142
2017.44495,0.00145
2015.51623,0.00146
2013.58751,0.00150
2011.65878,0.00154
2009.73006,0.00156
2007.80134,0.00162
2005.87261,0.00176
2003.94389,0.00190
2002.01516,0.00194
2000.08644,0.00192
1998.15772,0.00198
1996.22899,0.00211
1994.30027,0.00218
1992.37155,0.00212
1990.44282,0.00206
1988.51410,0.00202
1986.58538,0.00200
1984.65665,0.00195
1982.72793,0.00188
1980.79920,0.00183
1978.87048,0.00179
1976.94176,0.00169
1975.01303,0.00157
1973.08431,0.00155
1971.15559,0.00164
1969.22686,0.00170
1967.29814,0.00162
1965.36941,0.00144
1963.44069,0.00126
1961.51197,0.00106
1959.58324,0.00087
1957.65452,0.00074
1955.72580,0.00069
1953.79707,0.00063
1951.86835,0.00053
1949.93963,0.00040
1948.01090,0.00026
1946.08218,0.00015
1944.15345,0.00005
1942.22473,-0.00001
1940.29601,-0.00002
1938.36728,0.00003
1936.43856,0.00002
1934.50984,-0.00005
1932.58111,-0.00011
1930.65239,-0.00009
1928.72367,-0.00004
1926.79494,0.00000
1924.86622,0.00001
1922.93749,0.00004
1921.00877,0.00010
1919.08005,0.00018
1917.15132,0.00029
1915.22260,0.00043
1913.29388,0.00061
1911.36515,0.00082
1909.43643,0.00105
1907.50770,0.00129
1905.57898,0.00154
1903.65026,0.00185
1901.72153,0.00218
1899.79281,0.00246
1897.86409,0.00270
1895.93536,0.00296
1894.00664,0.00323
1892.07792,0.00347
1890.14919,0.00363
1888.22047,0.00377
1886.29174,0.00395
1884.36302,0.00413
1882.43430,0.00427
1880.50557,0.00438
1878.57685,0.00447
1876.64813,0.00454
1874.71940,0.00457
1872.79068,0.00456
1870.86196,0.00454
1868.93323,0.00447
1867.00451,0.00433
1865.07578,0.00421
1863.14706,0.00409
1861.21834,0.00393
1859.28961,0.00371
1857.36089,0.00350
1855.43217,0.00332
1853.50344,0.00312
1851.57472,0.00291
1849.64599,0.00267
1847.71727,0.00236
1845.78855,0.00194
1843.85982,0.00154
1841.93110,0.00134
1840.00238,0.00128
1838.07365,0.00116
1836.14493,0.00096
1834.21621,0.00076
1832.28748,0.00057
1830.35876,0.00034
1828.43003,0.00013
1826.50131,0.00000
1824.57259,-0.00007
1822.64386,-0.00007
1820.71514,-0.00004
1818.78642,-0.00003
1816.85769,-0.00003
1814.92897,0.00000
1813.00025,-0.00012
1811.07152,-0.00028
1809.14280,-0.00048
1807.21407,-0.00061
1805.28535,-0.00066
1803.35663,-0.00067
1801.42790,-0.00067
1799.49918,-0.00062
1797.57046,-0.00049
1795.64173,-0.00031
1793.71301,-0.00022
1791.78428,-0.00014
1789.85556,0.00008
1787.92684,0.00045
1785.99811,0.00081
1784.06939,0.00108
1782.14067,0.00131
1780.21194,0.00162
1778.28322,0.00205
1776.35450,0.00250
1774.42577,0.00287
1772.49705,0.00315
1770.56832,0.00345
1768.63960,0.00389
1766.71088,0.00441
1764.78215,0.00486
1762.85343,0.00521
1760.92471,0.00556
1758.99598,0.00596
1757.06726,0.00637
1755.13854,0.00684
1753.20981,0.00731
1751.28109,0.00775
1749.35236,0.00822
1747.42364,0.00879
1745.49492,0.00945
1743.56619,0.01019
1741.63747,0.01104
1739.70875,0.01200
1737.78002,0.01300
1735.85130,0.01401
1733.92257,0.01518
1731.99385,0.01644
1730.06513,0.01765
1728.13640,0.01889
1726.20768,0.02025
1724.27896,0.02172
1722.35023,0.02313
1720.42151,0.02441
1718.49279,0.02592
1716.56406,0.02794
1714.63534,0.03006
1712.70661,0.03195
1710.77789,0.03372
1708.84917,0.03550
1706.92044,0.03745
1704.99172,0.03954
1703.06300,0.04164
1701.13427,0.04399
1699.20555,0.04674
1697.27683,0.04962
1695.34810,0.05267
1693.41938,0.05557
1691.49065,0.05813
1689.56193,0.06067
1687.63321,0.06321
1685.70448,0.06605
1683.77576,0.06971
1681.84704,0.07339
1679.91831,0.07638
1677.98959,0.07901
1676.06087,0.08175
1674.13214,0.08464
1672.20342,0.08736
1670.27469,0.09022
1668.34597,0.09334
1666.41725,0.09609
1664.48852,0.09853
1662.55980,0.10112
1660.63108,0.10359
1658.70235,0.10553
1656.77363,0.10697
1654.84490,0.10833
1652.91618,0.11000
1650.98746,0.11159
1649.05873,0.11280
1647.13001,0.11399
1645.20129,0.11525
1643.27256,0.11629
1641.34384,0.11706
1639.41512,0.11756
1637.48639,0.11773
1635.55767,0.11765
1633.62894,0.11757
1631.70022,0.11748
1629.77150,0.11707
1627.84277,0.11619
1625.91405,0.11490
1623.98533,0.11317
1622.05660,0.11119
1620.12788,0.10922
1618.19916,0.10681
1616.27043,0.10362
1614.34171,0.10055
1612.41298,0.09803
1610.48426,0.09553
1608.55554,0.09281
1606.62681,0.09005
1604.69809,0.08733
1602.76937,0.08460
1600.84064,0.08199
1598.91192,0.07962
1596.98319,0.07741
1595.05447,0.07525
1593.12575,0.07318
1591.19702,0.07126
1589.26830,0.06947
1587.33958,0.06776
1585.41085,0.06611
1583.48213,0.06453
1581.55341,0.06310
1579.62468,0.06181
1577.69596,0.06044
1575.76723,0.05891
1573.83851,0.05770
1571.90979,0.05679
1569.98106,0.05577
1568.05234,0.05472
1566.12362,0.05389
1564.19489,0.05325
1562.26617,0.05265
1560.33745,0.05169
1558.40872,0.05025
1556.48000,0.04918
1554.55127,0.04862
1552.62255,0.04810
1550.69383,0.04741
1548.76510,0.04656
1546.83638,0.04565
1544.90766,0.04459
1542.97893,0.04308
1541.05021,0.04107
1539.12148,0.03934
1537.19276,0.03853
1535.26404,0.03780
1533.33531,0.03651
1531.40659,0.03507
1529.47787,0.03387
1527.54914,0.03263
1525.62042,0.03120
1523.69170,0.02969
1521.76297,0.02813
1519.83425,0.02677
1517.90552,0.02570
1515.97680,0.02466
1514.04808,0.02359
1512.11935,0.02251
1510.19063,0.02123
1508.26191,0.01935
1506.33318,0.01696
1504.40446,0.01515
1502.47574,0.01397
1500.54701,0.01271
1498.61829,0.01109
1496.68956,0.00945
1494.76084,0.00825
1492.83212,0.00744
1490.90339,0.00663
1488.97467,0.00576
1487.04595,0.00513
1485.11722,0.00483
1483.18850,0.00470
1481.25977,0.00473
1479.33105,0.00499
1477.40233,0.00548
1475.47360,0.00621
1473.54488,0.00745
1471.61616,0.00934
1469.68743,0.01133
1467.75871,0.01293
1465.82999,0.01403
1463.90126,0.01468
1461.97254,0.01505
1460.04381,0.01521
1458.11509,0.01525
1456.18637,0.01533
1454.25764,0.01559
1452.32892,0.01589
1450.40020,0.01610
1448.47147,0.01620
1446.54275,0.01630
1444.61403,0.01649
1442.68530,0.01681
1440.75658,0.01721
1438.82785,0.01762
1436.89913,0.01797
1434.97041,0.01828
1433.04168,0.01862
1431.11296,0.01906
1429.18424,0.01956
1427.25551,0.02002
1425.32679,0.02050
1423.39806,0.02108
1421.46934,0.02170
1419.54062,0.02233
1417.61189,0.02306
1415.68317,0.02386
1413.75445,0.02472
1411.82572,0.02572
1409.89700,0.02689
1407.96828,0.02812
1406.03955,0.02927
1404.11083,0.03015
1402.18210,0.03050
1400.25338,0.03014
1398.32466,0.02903
1396.39593,0.02733
1394.46721,0.02529
1392.53849,0.02326
1390.60976,0.02149
1388.68104,0.01990
1386.75232,0.01851
1384.82359,0.01737
1382.89487,0.01630
1380.96614,0.01514
1379.03742,0.01396
1377.10870,0.01276
1375.17997,0.01146
1373.25125,0.01019
1371.32253,0.00919
1369.39380,0.00835
1367.46508,0.00748
1365.53635,0.00654
1363.60763,0.00553
1361.67891,0.00456
1359.75018,0.00381
1357.82146,0.00325
1355.89274,0.00278
1353.96401,0.00237
1352.03529,0.00199
1350.10657,0.00158
1348.17784,0.00118
1346.24912,0.00084
1344.32039,0.00057
1342.39167,0.00029
1340.46295,0.00000
1338.53422,-0.00010
1336.60550,0.00009
1334.67678,0.00024
1332.74805,0.00012
1330.81933,-0.00010
1328.89061,-0.00021
1326.96188,-0.00016
1325.03316,-0.00005
1323.10443,0.00013
1321.17571,0.00036
1319.24699,0.00062
1317.31826,0.00092
1315.38954,0.00127
1313.46082,0.00169
1311.53209,0.00223
1309.60337,0.00287
1307.67464,0.00357
1305.74592,0.00442
1303.81720,0.00549
1301.88847,0.00669
1299.95975,0.00775
1298.03103,0.00868
1296.10230,0.00970
1294.17358,0.01086
1292.24486,0.01202
1290.31613,0.01319
1288.38741,0.01438
1286.45868,0.01560
1284.52996,0.01699
1282.60124,0.01867
1280.67251,0.02065
1278.74379,0.02291
1276.81507,0.02543
1274.88634,0.02821
1272.95762,0.03139
1271.02890,0.03516
1269.10017,0.03958
1267.17145,0.04458
1265.24272,0.05013
1263.31400,0.05625
1261.38528,0.06305
1259.45655,0.07066
1257.52783,0.07906
1255.59911,0.08812
1253.67038,0.09761
1251.74166,0.10723
1249.81294,0.11678
1247.88421,0.12606
1245.95549,0.13493
1244.02676,0.14328
1242.09804,0.15105
1240.16932,0.15835
1238.24059,0.16523
1236.31187,0.17154
1234.38315,0.17732
1232.45442,0.18269
1230.52570,0.18757
1228.59697,0.19182
1226.66825,0.19560
1224.73953,0.19924
1222.81080,0.20292
1220.88208,0.20659
1218.95336,0.21006
1217.02463,0.21319
1215.09591,0.21608
1213.16719,0.21888
1211.23846,0.22167
1209.30974,0.22444
1207.38101,0.22718
1205.45229,0.22988
1203.52357,0.23258
1201.59484,0.23532
1199.66612,0.23803
1197.73740,0.24076
1195.80867,0.24357
1193.87995,0.24656
1191.95123,0.24962
1190.02250,0.25243
1188.09378,0.25499
1186.16505,0.25770
1184.23633,0.26050
1182.30761,0.26291
1180.37888,0.26496
1178.45016,0.26695
1176.52144,0.26886
1174.59271,0.27074
1172.66399,0.27272
1170.73526,0.27479
1168.80654,0.27681
1166.87782,0.27870
1164.94909,0.28056
1163.02037,0.28264
1161.09165,0.28503
1159.16292,0.28748
1157.23420,0.28964
1155.30548,0.29147
1153.37675,0.29336
1151.44803,0.29550
1149.51930,0.29773
1147.59058,0.29985
1145.66186,0.30196
1143.73313,0.30441
1141.80441,0.30696
1139.87569,0.30909
1137.94696,0.31101
1136.01824,0.31308
1134.08952,0.31522
1132.16079,0.31742
1130.23207,0.32024
1128.30334,0.32378
1126.37462,0.32728
1124.44590,0.33032
1122.51717,0.33361
1120.58845,0.33751
1118.65973,0.34157
1116.73100,0.34594
1114.80228,0.35085
1112.87355,0.35579
1110.94483,0.36052
1109.01611,0.36523
1107.08738,0.37008
1105.15866,0.37463
1103.22994,0.37845
1101.30121,0.38176
1099.37249,0.38489
1097.44377,0.38784
1095.51504,0.39042
1093.58632,0.39239
1091.65759,0.39377
1089.72887,0.39475
1087.80015,0.39542
1085.87142,0.39570
1083.94270,0.39541
1082.01398,0.39438
1080.08525,0.39285
1078.15653,0.39138
1076.22781,0.39034
1074.29908,0.38935
1072.37036,0.38784
1070.44163,0.38561
1068.51291,0.38304
1066.58419,0.38066
1064.65546,0.37837
1062.72674,0.37580
1060.79802,0.37298
1058.86929,0.37020
1056.94057,0.36761
1055.01184,0.36501
1053.08312,0.36196
1051.15440,0.35843
1049.22567,0.35492
1047.29695,0.35149
1045.36823,0.34795
1043.43950,0.34442
1041.51078,0.34083
1039.58206,0.33710
1037.65333,0.33336
1035.72461,0.32950
1033.79588,0.32529
1031.86716,0.32086
1029.93844,0.31630
1028.00971,0.31161
1026.08099,0.30711
1024.15227,0.30282
1022.22354,0.29846
1020.29482,0.29383
1018.36610,0.28881
1016.43737,0.28356
1014.50865,0.27846
1012.57992,0.27359
1010.65120,0.26865
1008.72248,0.26368
1006.79375,0.25878
1004.86503,0.25364
1002.93631,0.24824
1001.00758,0.24278
999.07886,0.23724
997.15013,0.23179
995.22141,0.22648
993.29269,0.22120
991.36396,0.21617
989.43524,0.21160
987.50652,0.20723
985.57779,0.20267
983.64907,0.19803
981.72035,0.19375
979.79162,0.18986
977.86290,0.18629
975.93417,0.18324
974.00545,0.18055
972.07673,0.17784
970.14800,0.17505
968.21928,0.17239
966.29056,0.16986
964.36183,0.16755
962.43311,0.16576
960.50439,0.16442
958.57566,0.16312
956.64694,0.16165
954.71821,0.16014
952.78949,0.15875
950.86077,0.15744
948.93204,0.15589
947.00332,0.15390
945.07460,0.15181
943.14587,0.15015
941.21715,0.14885
939.28842,0.14754
937.35970,0.14597
935.43098,0.14386
933.50225,0.14142
931.57353,0.13928
929.64481,0.13749
927.71608,0.13574
925.78736,0.13383
923.85864,0.13171
921.92991,0.12953
920.00119,0.12733
918.07246,0.12493
916.14374,0.12251
914.21502,0.12011
912.28629,0.11754
910.35757,0.11496
908.42885,0.11244
906.50012,0.10971
904.57140,0.10672
902.64268,0.10366
900.71395,0.10055
898.78523,0.09721
896.85650,0.09360
894.92778,0.09009
892.99906,0.08692
891.07033,0.08388
889.14161,0.08072
887.21289,0.07755
885.28416,0.07457
883.35544,0.07187
881.42671,0.06926
879.49799,0.06634
877.56927,0.06319
875.64054,0.06043
873.71182,0.05806
871.78310,0.05566
869.85437,0.05316
867.92565,0.05065
865.99693,0.04814
864.06820,0.04568
862.13948,0.04331
860.21075,0.04108
858.28203,0.03884
856.35331,0.03654
854.42458,0.03432
852.49586,0.03221
850.56714,0.03041
848.63841,0.02910
846.70969,0.02812
844.78097,0.02761
842.85224,0.02791
840.92352,0.02869
838.99479,0.02931
837.06607,0.02997
835.13735,0.03124
833.20862,0.03304
831.27990,0.03475
829.35118,0.03640
827.42245,0.03847
825.49373,0.04081
823.56501,0.04300
821.63628,0.04508
819.70756,0.04749
817.77883,0.05033
815.85011,0.05303
813.92139,0.05525
811.99266,0.05706
810.06394,0.05877
808.13522,0.06098
806.20649,0.06371
804.27777,0.06622
802.34904,0.06810
800.42032,0.06954
798.49160,0.07058
796.56287,0.07108
794.63415,0.07114
792.70543,0.07084
790.77670,0.07013
788.84798,0.06906
786.91926,0.06768
784.99053,0.06594
783.06181,0.06400
781.13308,0.06220
779.20436,0.06054
777.27564,0.05856
775.34691,0.05609
773.41819,0.05353
771.48947,0.05134
769.56074,0.04971
767.63202,0.04859
765.70330,0.04773
763.77457,0.04695
761.84585,0.04629
759.91712,0.04577
757.98840,0.04553
756.05968,0.04542
754.13095,0.04520
752.20223,0.04495
750.27351,0.04478
748.34478,0.04446
746.41606,0.04395
744.48733,0.04339
742.55861,0.04289
740.62989,0.04259
738.70116,0.04247
736.77244,0.04231
734.84372,0.04217
732.91499,0.04226
730.98627,0.04242
729.05755,0.04251
727.12882,0.04252
725.20010,0.04249
723.27137,0.04245
721.34265,0.04193
719.41393,0.04097
717.48520,0.04033
715.55648,0.04033
713.62776,0.04051
711.69903,0.04057
709.77031,0.04059
707.84159,0.04066
705.91286,0.04100
703.98414,0.04174
702.05541,0.04257
700.12669,0.04311
698.19797,0.04333
696.26924,0.04341
694.34052,0.04347
692.41180,0.04368
690.48307,0.04412
688.55435,0.04465
686.62562,0.04496
684.69690,0.04508
682.76818,0.04531
680.83945,0.04555
678.91073,0.04535
676.98201,0.04484
675.05328,0.04497
673.12456,0.04596
671.19584,0.04634
669.26711,0.04540
667.33839,0.04520
665.40966,0.04612
663.48094,0.04618
661.55222,0.04556
659.62349,0.04551
657.69477,0.04614
655.76605,0.04709
653.83732,0.04819
651.90860,0.04933
649.97988,0.05054
648.05115,0.05204
646.12243,0.05392
644.19370,0.05597
642.26498,0.05797
640.33626,0.06001
638.40753,0.06205
636.47881,0.06376
634.55009,0.06516
632.62136,0.06675
630.69264,0.06877
628.76391,0.07069
626.83519,0.07160
624.90647,0.07155
622.97774,0.07174
621.04902,0.07258
619.12030,0.07362
617.19157,0.07452
615.26285,0.07524
613.33413,0.07603
611.40540,0.07755
609.47668,0.07967
607.54795,0.08132
605.61923,0.08247
603.69051,0.08402
601.76178,0.08596
599.83306,0.08803
597.90434,0.09018
595.97561,0.09200
594.04689,0.09330
592.11817,0.09467
590.18944,0.09664
588.26072,0.09879
586.33199,0.10017
584.40327,0.10055
582.47455,0.10077
580.54582,0.10144
578.61710,0.10205
576.68838,0.10228
574.75965,0.10259
572.83093,0.10322
570.90220,0.10395
568.97348,0.10411
567.04476,0.10283
565.11603,0.10102
563.18731,0.10075
561.25859,0.10207
559.32986,0.10327
557.40114,0.10363
555.47242,0.10386
553.54369,0.10498
551.61497,0.10721
549.68624,0.10972
547.75752,0.11161
545.82880,0.11280
543.90007,0.11388
541.97135,0.11490
540.04263,0.11535
538.11390,0.11552
536.18518,0.11568
534.25646,0.11535
532.32773,0.11449
530.39901,0.11318
528.47028,0.11105
526.54156,0.10893
524.61284,0.10867
522.68411,0.10984
520.75539,0.11040
518.82667,0.11027
516.89794,0.11106
514.96922,0.11317
513.04049,0.11534
511.11177,0.11657
509.18305,0.11774
507.25432,0.12055
505.32560,0.12486
503.39688,0.12914
501.46815,0.13306
499.53943,0.13750
497.61071,0.14281
495.68198,0.14890
493.75326,0.15524
491.82453,0.16062
489.89581,0.16481
487.96709,0.17011
486.03836,0.17865
484.10964,0.18890
482.18092,0.19710
480.25219,0.20257
478.32347,0.20775
476.39475,0.21284
474.46602,0.21561
472.53730,0.21729
470.60857,0.22178
468.67985,0.22803
466.75113,0.23098
464.82240,0.22876
462.89368,0.22448
460.96496,0.22202
459.03623,0.22141
457.10751,0.21911
455.17878,0.21377
453.25006,0.20783
451.32134,0.20323
449.39261,0.20026
447.46389,0.19841
445.53517,0.19544
443.60644,0.18873
441.67772,0.18010
439.74900,0.17389
437.82027,0.16978
435.89155,0.16415
433.96282,0.15723
432.03410,0.15299
430.10538,0.15197
428.17665,0.15044
426.24793,0.14563
424.31921,0.13772
422.39048,0.12901
420.46176,0.12294
418.53304,0.12099
416.60431,0.12040
414.67559,0.11857
412.74686,0.11577
410.81814,0.11069
408.88942,0.10001
406.96069,0.08611
405.03197,0.07695
403.10325,0.07584
401.17452,0.07969
399.24580,0.08499
397.31708,0.08782
395.38835,0.08330
393.45963,0.07274
391.53090,0.06192
389.60218,0.05697
387.67346,0.05569
385.74473,0.04423
383.81601,0.02001
381.88729,0.00224
379.95856,0.00000
378.02984,-0.00365
376.10111,-0.00971
374.17239,-0.01423
372.24367,-0.00701
370.31494,0.00262
368.38622,0.00000
