3996.31543,0.00026
3994.38671,0.00010
3992.45799,0.00000
3990.52926,0.00013
3988.60054,0.00034
3986.67182,0.00041
3984.74309,0.00028
3982.81437,0.00014
3980.88564,0.00021
3978.95692,0.00041
3977.02820,0.00048
3975.09947,0.00035
3973.17075,0.00023
3971.24203,0.00033
3969.31330,0.00058
3967.38458,0.00086
3965.45586,0.00109
3963.52713,0.00125
3961.59841,0.00128
3959.66968,0.00118
3957.74096,0.00102
3955.81224,0.00088
3953.88351,0.00093
3951.95479,0.00121
3950.02607,0.00144
3948.09734,0.00147
3946.16862,0.00152
3944.23990,0.00155
3942.31117,0.00132
3940.38245,0.00111
3938.45372,0.00123
3936.52500,0.00155
3934.59628,0.00180
3932.66755,0.00162
3930.73883,0.00109
3928.81011,0.00088
3926.88138,0.00105
3924.95266,0.00111
3923.02393,0.00117
3921.09521,0.00150
3919.16649,0.00167
3917.23776,0.00127
3915.30904,0.00079
3913.38032,0.00073
3911.45159,0.00102
3909.52287,0.00162
3907.59415,0.00256
3905.66542,0.00320
3903.73670,0.00282
3901.80797,0.00175
3899.87925,0.00076
3897.95053,0.00048
3896.02180,0.00117
3894.09308,0.00209
3892.16436,0.00215
3890.23563,0.00168
3888.30691,0.00173
3886.37819,0.00186
3884.44946,0.00159
3882.52074,0.00139
3880.59201,0.00103
3878.66329,0.00076
3876.73457,0.00143
3874.80584,0.00252
3872.87712,0.00311
3870.94840,0.00299
3869.01967,0.00248
3867.09095,0.00237
3865.16222,0.00240
3863.23350,0.00189
3861.30478,0.00146
3859.37605,0.00197
3857.44733,0.00329
3855.51861,0.00397
3853.58988,0.00241
3851.66116,0.00016
3849.73244,0.00000
3847.80371,0.00124
3845.87499,0.00236
3843.94626,0.00290
3842.01754,0.00317
3840.08882,0.00312
3838.16009,0.00234
3836.23137,0.00146
3834.30265,0.00138
3832.37392,0.00173
3830.44520,0.00199
3828.51648,0.00221
3826.58775,0.00257
3824.65903,0.00329
3822.73030,0.00385
3820.80158,0.00349
3818.87286,0.00298
3816.94413,0.00262
3815.01541,0.00181
3813.08669,0.00160
3811.15796,0.00263
3809.22924,0.00381
3807.30052,0.00408
3805.37179,0.00399
3803.44307,0.00403
3801.51434,0.00334
3799.58562,0.00249
3797.65690,0.00260
3795.72817,0.00293
3793.79945,0.00306
3791.87073,0.00336
3789.94200,0.00385
3788.01328,0.00427
3786.08455,0.00434
3784.15583,0.00423
3782.22711,0.00435
3780.29838,0.00433
3778.36966,0.00398
3776.44094,0.00410
3774.51221,0.00500
3772.58349,0.00603
3770.65477,0.00642
3768.72604,0.00620
3766.79732,0.00601
3764.86859,0.00613
3762.93987,0.00661
3761.01115,0.00716
3759.08242,0.00740
3757.15370,0.00783
3755.22498,0.00897
3753.29625,0.01012
3751.36753,0.01002
3749.43881,0.00932
3747.51008,0.00971
3745.58136,0.01024
3743.65263,0.00986
3741.72391,0.01019
3739.79519,0.01199
3737.86646,0.01378
3735.93774,0.01429
3734.00902,0.01397
3732.08029,0.01428
3730.15157,0.01565
3728.22284,0.01751
3726.29412,0.01909
3724.36540,0.02021
3722.43667,0.02132
3720.50795,0.02270
3718.57923,0.02447
3716.65050,0.02678
3714.72178,0.02951
3712.79306,0.03186
3710.86433,0.03335
3708.93561,0.03500
3707.00688,0.03766
3705.07816,0.04101
3703.14944,0.04436
3701.22071,0.04736
3699.29199,0.05019
3697.36327,0.05319
3695.43454,0.05648
3693.50582,0.05987
3691.57710,0.06286
3689.64837,0.06518
3687.71965,0.06772
3685.79092,0.07135
3683.86220,0.07565
3681.93348,0.07999
3680.00475,0.08415
3678.07603,0.08810
3676.14731,0.09170
3674.21858,0.09531
3672.28986,0.09938
3670.36113,0.10336
3668.43241,0.10686
3666.50369,0.11056
3664.57496,0.11471
3662.64624,0.11893
3660.71752,0.12301
3658.78879,0.12686
3656.86007,0.13030
3654.93135,0.13356
3653.00262,0.13701
3651.07390,0.14008
3649.14517,0.14200
3647.21645,0.14381
3645.28773,0.14675
3643.35900,0.15027
3641.43028,0.15354
3639.50156,0.15642
3637.57283,0.15920
3635.64411,0.16199
3633.71539,0.16478
3631.78666,0.16735
3629.85794,0.16914
3627.92921,0.17026
3626.00049,0.17196
3624.07177,0.17453
3622.14304,0.17704
3620.21432,0.17860
3618.28560,0.17942
3616.35687,0.18062
3614.42815,0.18236
3612.49942,0.18399
3610.57070,0.18528
3608.64198,0.18628
3606.71325,0.18730
3604.78453,0.18881
3602.85581,0.19056
3600.92708,0.19200
3598.99836,0.19313
3597.06964,0.19425
3595.14091,0.19546
3593.21219,0.19697
3591.28346,0.19881
3589.35474,0.20028
3587.42602,0.20078
3585.49729,0.20123
3583.56857,0.20266
3581.63985,0.20461
3579.71112,0.20638
3577.78240,0.20783
3575.85368,0.20897
3573.92495,0.20988
3571.99623,0.21106
3570.06750,0.21260
3568.13878,0.21374
3566.21006,0.21418
3564.28133,0.21487
3562.35261,0.21624
3560.42389,0.21770
3558.49516,0.21881
3556.56644,0.21979
3554.63771,0.22088
3552.70899,0.22204
3550.78027,0.22319
3548.85154,0.22433
3546.92282,0.22520
3544.99410,0.22583
3543.06537,0.22664
3541.13665,0.22777
3539.20793,0.22893
3537.27920,0.22986
3535.35048,0.23070
3533.42175,0.23177
3531.49303,0.23298
3529.56431,0.23399
3527.63558,0.23479
3525.70686,0.23560
3523.77814,0.23648
3521.84941,0.23739
3519.92069,0.23836
3517.99197,0.23932
3516.06324,0.24029
3514.13452,0.24129
3512.20579,0.24219
3510.27707,0.24289
3508.34835,0.24365
3506.41962,0.24483
3504.49090,0.24611
3502.56218,0.24687
3500.63345,0.24735
3498.70473,0.24806
3496.77600,0.24897
3494.84728,0.24991
3492.91856,0.25081
3490.98983,0.25154
3489.06111,0.25207
3487.13239,0.25266
3485.20366,0.25351
3483.27494,0.25438
3481.34622,0.25495
3479.41749,0.25537
3477.48877,0.25597
3475.56004,0.25684
3473.63132,0.25779
3471.70260,0.25848
3469.77387,0.25886
3467.84515,0.25922
3465.91643,0.25970
3463.98770,0.26019
3462.05898,0.26062
3460.13026,0.26118
3458.20153,0.26190
3456.27281,0.26245
3454.34408,0.26278
3452.41536,0.26315
3450.48664,0.26364
3448.55791,0.26409
3446.62919,0.26433
3444.70047,0.26449
3442.77174,0.26484
3440.84302,0.26528
3438.91429,0.26562
3436.98557,0.26607
3435.05685,0.26676
3433.12812,0.26733
3431.19940,0.26744
3429.27068,0.26727
3427.34195,0.26724
3425.41323,0.26756
3423.48451,0.26806
3421.55578,0.26830
3419.62706,0.26826
3417.69833,0.26849
3415.76961,0.26900
3413.84089,0.26939
3411.91216,0.26953
3409.98344,0.26965
3408.05472,0.26987
3406.12599,0.27002
3404.19727,0.26987
3402.26855,0.26957
3400.33982,0.26937
3398.41110,0.26929
3396.48237,0.26928
3394.55365,0.26920
3392.62493,0.26892
3390.69620,0.26855
3388.76748,0.26834
3386.83876,0.26830
3384.91003,0.26829
3382.98131,0.26822
3381.05259,0.26802
3379.12386,0.26765
3377.19514,0.26726
3375.26641,0.26701
3373.33769,0.26686
3371.40897,0.26667
3369.48024,0.26635
3367.55152,0.26596
3365.62280,0.26562
3363.69407,0.26545
3361.76535,0.26537
3359.83662,0.26514
3357.90790,0.26470
3355.97918,0.26407
3354.05045,0.26341
3352.12173,0.26299
3350.19301,0.26275
3348.26428,0.26246
3346.33556,0.26209
3344.40684,0.26179
3342.47811,0.26154
3340.54939,0.26119
3338.62066,0.26066
3336.69194,0.26014
3334.76322,0.25977
3332.83449,0.25939
3330.90577,0.25893
3328.97705,0.25846
3327.04832,0.25789
3325.11960,0.25731
3323.19088,0.25695
3321.26215,0.25676
3319.33343,0.25645
3317.40470,0.25601
3315.47598,0.25555
3313.54726,0.25511
3311.61853,0.25476
3309.68981,0.25445
3307.76109,0.25405
3305.83236,0.25369
3303.90364,0.25344
3301.97491,0.25312
3300.04619,0.25271
3298.11747,0.25236
3296.18874,0.25201
3294.26002,0.25159
3292.33130,0.25128
3290.40257,0.25119
3288.47385,0.25110
3286.54513,0.25069
3284.61640,0.25017
3282.68768,0.24985
3280.75895,0.24955
3278.83023,0.24899
3276.90151,0.24826
3274.97278,0.24767
3273.04406,0.24737
3271.11534,0.24720
3269.18661,0.24690
3267.25789,0.24652
3265.32917,0.24623
3263.40044,0.24589
3261.47172,0.24534
3259.54299,0.24479
3257.61427,0.24441
3255.68555,0.24411
3253.75682,0.24384
3251.82810,0.24358
3249.89938,0.24325
3247.97065,0.24279
3246.04193,0.24222
3244.11320,0.24161
3242.18448,0.24111
3240.25576,0.24079
3238.32703,0.24049
3236.39831,0.23996
3234.46959,0.23926
3232.54086,0.23860
3230.61214,0.23803
3228.68342,0.23753
3226.75469,0.23705
3224.82597,0.23653
3222.89724,0.23596
3220.96852,0.23536
3219.03980,0.23470
3217.11107,0.23405
3215.18235,0.23354
3213.25363,0.23320
3211.32490,0.23278
3209.39618,0.23201
3207.46746,0.23096
3205.53873,0.23001
3203.61001,0.22924
3201.68128,0.22848
3199.75256,0.22764
3197.82384,0.22686
3195.89511,0.22620
3193.96639,0.22550
3192.03767,0.22459
3190.10894,0.22362
3188.18022,0.22280
3186.25149,0.22211
3184.32277,0.22140
3182.39405,0.22057
3180.46532,0.21969
3178.53660,0.21889
3176.60788,0.21820
3174.67915,0.21749
3172.75043,0.21669
3170.82171,0.21582
3168.89298,0.21492
3166.96426,0.21392
3165.03553,0.21288
3163.10681,0.21196
3161.17809,0.21114
3159.24936,0.21027
3157.32064,0.20933
3155.39192,0.20845
3153.46319,0.20766
3151.53447,0.20687
3149.60575,0.20602
3147.67702,0.20517
3145.74830,0.20440
3143.81957,0.20364
3141.89085,0.20273
3139.96213,0.20168
3138.03340,0.20062
3136.10468,0.19972
3134.17596,0.19896
3132.24723,0.19821
3130.31851,0.19726
3128.38978,0.19609
3126.46106,0.19497
3124.53234,0.19410
3122.60361,0.19336
3120.67489,0.19257
3118.74617,0.19175
3116.81744,0.19085
3114.88872,0.18980
3112.96000,0.18861
3111.03127,0.18747
3109.10255,0.18647
3107.17382,0.18550
3105.24510,0.18443
3103.31638,0.18328
3101.38765,0.18214
3099.45893,0.18106
3097.53021,0.18005
3095.60148,0.17902
3093.67276,0.17783
3091.74404,0.17658
3089.81531,0.17543
3087.88659,0.17429
3085.95786,0.17308
3084.02914,0.17186
3082.10042,0.17068
3080.17169,0.16952
3078.24297,0.16840
3076.31425,0.16734
3074.38552,0.16629
3072.45680,0.16518
3070.52807,0.16399
3068.59935,0.16283
3066.67063,0.16176
3064.74190,0.16067
3062.81318,0.15942
3060.88446,0.15811
3058.95573,0.15690
3057.02701,0.15579
3055.09829,0.15475
3053.16956,0.15380
3051.24084,0.15288
3049.31211,0.15189
3047.38339,0.15089
3045.45467,0.14999
3043.52594,0.14905
3041.59722,0.14798
3039.66850,0.14690
3037.73977,0.14586
3035.81105,0.14490
3033.88233,0.14398
3031.95360,0.14300
3030.02488,0.14198
3028.09615,0.14108
3026.16743,0.14035
3024.23871,0.13967
3022.30998,0.13899
3020.38126,0.13819
3018.45254,0.13723
3016.52381,0.13624
3014.59509,0.13529
3012.66636,0.13440
3010.73764,0.13361
3008.80892,0.13292
3006.88019,0.13224
3004.95147,0.13147
3003.02275,0.13065
3001.09402,0.12984
2999.16530,0.12908
2997.23658,0.12841
2995.30785,0.12781
2993.37913,0.12723
2991.45040,0.12672
2989.52168,0.12625
2987.59296,0.12565
2985.66423,0.12503
2983.73551,0.12466
2981.80679,0.12443
2979.87806,0.12420
2977.94934,0.12402
2976.02062,0.12388
2974.09189,0.12360
2972.16317,0.12324
2970.23444,0.12297
2968.30572,0.12273
2966.37700,0.12247
2964.44827,0.12219
2962.51955,0.12185
2960.59083,0.12141
2958.66210,0.12102
2956.73338,0.12062
2954.80466,0.12001
2952.87593,0.11925
2950.94721,0.11855
2949.01848,0.11794
2947.08976,0.11742
2945.16104,0.11708
2943.23231,0.11688
2941.30359,0.11676
2939.37487,0.11676
2937.44614,0.11681
2935.51742,0.11681
2933.58869,0.11680
2931.65997,0.11680
2929.73125,0.11667
2927.80252,0.11627
2925.87380,0.11552
2923.94508,0.11440
2922.01635,0.11287
2920.08763,0.11111
2918.15891,0.10935
2916.23018,0.10767
2914.30146,0.10614
2912.37273,0.10474
2910.44401,0.10331
2908.51529,0.10185
2906.58656,0.10048
2904.65784,0.09920
2902.72912,0.09795
2900.80039,0.09680
2898.87167,0.09577
2896.94295,0.09478
2895.01422,0.09372
2893.08550,0.09255
2891.15677,0.09139
2889.22805,0.09044
2887.29933,0.08975
2885.37060,0.08911
2883.44188,0.08835
2881.51316,0.08753
2879.58443,0.08687
2877.65571,0.08645
2875.72698,0.08611
2873.79826,0.08562
2871.86954,0.08489
2869.94081,0.08401
2868.01209,0.08321
2866.08337,0.08256
2864.15464,0.08209
2862.22592,0.08182
2860.29720,0.08161
2858.36847,0.08133
2856.43975,0.08107
2854.51102,0.08081
2852.58230,0.08025
2850.65358,0.07911
2848.72485,0.07745
2846.79613,0.07547
2844.86741,0.07343
2842.93868,0.07165
2841.00996,0.07021
2839.08124,0.06892
2837.15251,0.06766
2835.22379,0.06651
2833.29506,0.06551
2831.36634,0.06455
2829.43762,0.06370
2827.50889,0.06299
2825.58017,0.06225
2823.65145,0.06146
2821.72272,0.06076
2819.79400,0.06014
2817.86527,0.05948
2815.93655,0.05877
2814.00783,0.05810
2812.07910,0.05750
2810.15038,0.05692
2808.22166,0.05633
2806.29293,0.05573
2804.36421,0.05507
2802.43549,0.05441
2800.50676,0.05387
2798.57804,0.05336
2796.64931,0.05283
2794.72059,0.05230
2792.79187,0.05181
2790.86314,0.05129
2788.93442,0.05075
2787.00570,0.05015
2785.07697,0.04952
2783.14825,0.04897
2781.21953,0.04846
2779.29080,0.04789
2777.36208,0.04734
2775.43335,0.04685
2773.50463,0.04635
2771.57591,0.04585
2769.64718,0.04529
2767.71846,0.04467
2765.78974,0.04417
2763.86101,0.04379
2761.93229,0.04333
2760.00356,0.04275
2758.07484,0.04225
2756.14612,0.04184
2754.21739,0.04134
2752.28867,0.04084
2750.35995,0.04048
2748.43122,0.04015
2746.50250,0.03969
2744.57378,0.03918
2742.64505,0.03868
2740.71633,0.03825
2738.78760,0.03789
2736.85888,0.03748
2734.93016,0.03692
2733.00143,0.03636
2731.07271,0.03590
2729.14399,0.03552
2727.21526,0.03513
2725.28654,0.03468
2723.35782,0.03424
2721.42909,0.03378
2719.50037,0.03327
2717.57164,0.03282
2715.64292,0.03249
2713.71420,0.03219
2711.78547,0.03184
2709.85675,0.03140
2707.92803,0.03092
2705.99930,0.03048
2704.07058,0.03008
2702.14185,0.02969
2700.21313,0.02933
2698.28441,0.02903
2696.35568,0.02871
2694.42696,0.02825
2692.49824,0.02780
2690.56951,0.02745
2688.64079,0.02707
2686.71207,0.02670
2684.78334,0.02641
2682.85462,0.02611
2680.92589,0.02576
2678.99717,0.02538
2677.06845,0.02505
2675.13972,0.02473
2673.21100,0.02436
2671.28228,0.02393
2669.35355,0.02348
2667.42483,0.02311
2665.49611,0.02284
2663.56738,0.02261
2661.63866,0.02236
2659.70993,0.02206
2657.78121,0.02168
2655.85249,0.02130
2653.92376,0.02096
2651.99504,0.02058
2650.06632,0.02016
2648.13759,0.01980
2646.20887,0.01954
2644.28014,0.01931
2642.35142,0.01907
2640.42270,0.01877
2638.49397,0.01845
2636.56525,0.01817
2634.63653,0.01800
2632.70780,0.01780
2630.77908,0.01753
2628.85036,0.01724
2626.92163,0.01694
2624.99291,0.01666
2623.06418,0.01645
2621.13546,0.01628
2619.20674,0.01607
2617.27801,0.01572
2615.34929,0.01525
2613.42057,0.01487
2611.49184,0.01466
2609.56312,0.01448
2607.63440,0.01427
2605.70567,0.01409
2603.77695,0.01390
2601.84822,0.01363
2599.91950,0.01332
2597.99078,0.01302
2596.06205,0.01281
2594.13333,0.01274
2592.20461,0.01267
2590.27588,0.01242
2588.34716,0.01207
2586.41843,0.01181
2584.48971,0.01164
2582.56099,0.01142
2580.63226,0.01110
2578.70354,0.01083
2576.77482,0.01072
2574.84609,0.01070
2572.91737,0.01056
2570.98865,0.01029
2569.05992,0.01004
2567.13120,0.00979
2565.20247,0.00952
2563.27375,0.00934
2561.34503,0.00928
2559.41630,0.00921
2557.48758,0.00903
2555.55886,0.00875
2553.63013,0.00852
2551.70141,0.00837
2549.77269,0.00823
2547.84396,0.00811
2545.91524,0.00799
2543.98651,0.00781
2542.05779,0.00761
2540.12907,0.00748
2538.20034,0.00738
2536.27162,0.00724
2534.34290,0.00713
2532.41417,0.00701
2530.48545,0.00682
2528.55673,0.00665
2526.62800,0.00648
2524.69928,0.00631
2522.77055,0.00621
2520.84183,0.00616
2518.91311,0.00605
2516.98438,0.00586
2515.05566,0.00566
2513.12694,0.00551
2511.19821,0.00538
2509.26949,0.00526
2507.34076,0.00514
2505.41204,0.00504
2503.48332,0.00497
2501.55459,0.00489
2499.62587,0.00478
2497.69715,0.00461
2495.76842,0.00444
2493.83970,0.00435
2491.91098,0.00431
2489.98225,0.00423
2488.05353,0.00414
2486.12480,0.00406
2484.19608,0.00393
2482.26736,0.00379
2480.33863,0.00371
2478.40991,0.00360
2476.48119,0.00344
2474.55246,0.00335
2472.62374,0.00331
2470.69502,0.00324
2468.76629,0.00312
2466.83757,0.00298
2464.90884,0.00280
2462.98012,0.00263
2461.05140,0.00254
2459.12267,0.00256
2457.19395,0.00261
2455.26523,0.00259
2453.33650,0.00246
2451.40778,0.00230
2449.47905,0.00221
2447.55033,0.00214
2445.62161,0.00202
2443.69288,0.00186
2441.76416,0.00174
2439.83544,0.00170
2437.90671,0.00169
2435.97799,0.00168
2434.04927,0.00167
2432.12054,0.00168
2430.19182,0.00165
2428.26309,0.00155
2426.33437,0.00142
2424.40565,0.00128
2422.47692,0.00113
2420.54820,0.00102
2418.61948,0.00100
2416.69075,0.00104
2414.76203,0.00109
2412.83331,0.00110
2410.90458,0.00102
2408.97586,0.00087
2407.04713,0.00081
2405.11841,0.00082
2403.18969,0.00078
2401.26096,0.00070
2399.33224,0.00068
2397.40352,0.00066
2395.47479,0.00061
2393.54607,0.00055
2391.61734,0.00053
2389.68862,0.00057
2387.75990,0.00066
2385.83117,0.00080
2383.90245,0.00094
2381.97373,0.00105
2380.04500,0.00113
2378.11628,0.00125
2376.18756,0.00141
2374.25883,0.00149
2372.33011,0.00145
2370.40138,0.00138
2368.47266,0.00137
2366.54394,0.00140
2364.61521,0.00132
2362.68649,0.00113
2360.75777,0.00099
2358.82904,0.00083
2356.90032,0.00051
2354.97160,0.00009
2353.04287,0.00000
2351.11415,0.00064
2349.18542,0.00154
2347.25670,0.00176
2345.32798,0.00132
2343.39925,0.00095
2341.47053,0.00090
2339.54181,0.00093
2337.61308,0.00086
2335.68436,0.00072
2333.75563,0.00067
2331.82691,0.00067
2329.89819,0.00062
2327.96946,0.00060
2326.04074,0.00066
2324.11202,0.00069
2322.18329,0.00062
2320.25457,0.00047
2318.32585,0.00035
2316.39712,0.00036
2314.46840,0.00049
2312.53967,0.00058
2310.61095,0.00051
2308.68223,0.00040
2306.75350,0.00037
2304.82478,0.00042
2302.89606,0.00048
2300.96733,0.00050
2299.03861,0.00047
2297.10989,0.00044
2295.18116,0.00044
2293.25244,0.00047
2291.32371,0.00049
2289.39499,0.00046
2287.46627,0.00039
2285.53754,0.00040
2283.60882,0.00046
2281.68010,0.00049
2279.75137,0.00053
2277.82265,0.00059
2275.89392,0.00061
2273.96520,0.00053
2272.03648,0.00046
2270.10775,0.00046
2268.17903,0.00048
2266.25031,0.00044
2264.32158,0.00041
2262.39286,0.00047
2260.46414,0.00055
2258.53541,0.00053
2256.60669,0.00049
2254.67796,0.00049
2252.74924,0.00051
2250.82052,0.00050
2248.89179,0.00047
2246.96307,0.00042
2245.03435,0.00034
2243.10562,0.00028
2241.17690,0.00032
2239.24818,0.00039
2237.31945,0.00042
2235.39073,0.00037
2233.46200,0.00028
2231.53328,0.00020
2229.60456,0.00016
2227.67583,0.00013
2225.74711,0.00008
2223.81839,0.00003
2221.88966,-0.00000
2219.96094,0.00004
2218.03221,0.00013
2216.10349,0.00019
2214.17477,0.00020
2212.24604,0.00019
2210.31732,0.00016
2208.38860,0.00010
2206.45987,0.00000
2204.53115,-0.00004
2202.60243,0.00004
2200.67370,0.00014
2198.74498,0.00016
2196.81625,0.00015
2194.88753,0.00010
2192.95881,0.00004
2191.03008,-0.00001
2189.10136,0.00001
2187.17264,0.00010
2185.24391,0.00018
2183.31519,0.00017
2181.38647,0.00006
2179.45774,-0.00006
2177.52902,-0.00014
2175.60029,-0.00016
2173.67157,-0.00010
2171.74285,-0.00002
2169.81412,-0.00002
2167.88540,-0.00003
2165.95668,0.00006
2164.02795,0.00012
2162.09923,0.00013
2160.17050,0.00013
2158.24178,0.00014
2156.31306,0.00011
2154.38433,0.00004
2152.45561,-0.00001
2150.52689,0.00001
2148.59816,0.00005
2146.66944,0.00010
2144.74072,0.00013
2142.81199,0.00011
2140.88327,0.00010
2138.95454,0.00014
2137.02582,0.00016
2135.09710,0.00011
2133.16837,0.00007
2131.23965,0.00009
2129.31093,0.00017
2127.38220,0.00025
2125.45348,0.00023
2123.52476,0.00014
2121.59603,0.00009
2119.66731,0.00006
2117.73858,0.00002
2115.80986,0.00000
2113.88114,0.00005
2111.95241,0.00011
2110.02369,0.00015
2108.09497,0.00020
2106.16624,0.00022
2104.23752,0.00012
2102.30880,0.00007
2100.38007,0.00012
2098.45135,0.00015
2096.52262,0.00009
2094.59390,0.00000
2092.66518,-0.00009
2090.73645,-0.00009
2088.80773,-0.00008
2086.87901,-0.00014
2084.95028,-0.00025
2083.02156,-0.00032
2081.09283,-0.00029
2079.16411,-0.00024
2077.23539,-0.00027
2075.30666,-0.00039
2073.37794,-0.00049
2071.44922,-0.00049
2069.52049,-0.00038
2067.59177,-0.00021
2065.66305,-0.00012
2063.73432,-0.00013
2061.80560,-0.00017
2059.87687,-0.00015
2057.94815,-0.00009
2056.01943,0.00003
2054.09070,0.00021
2052.16198,0.00035
2050.23326,0.00041
2048.30453,0.00052
2046.37581,0.00073
2044.44709,0.00096
2042.51836,0.00113
2040.58964,0.00120
2038.66091,0.00125
2036.73219,0.00137
2034.80347,0.00157
2032.87474,0.00179
2030.94602,0.00200
2029.01730,0.00223
2027.08857,0.00245
2025.15985,0.00261
2023.23112,0.00276
2021.30240,0.00300
2019.37368,0.00323
2017.44495,0.00331
2015.51623,0.00330
2013.58751,0.00337
2011.65878,0.00353
2009.73006,0.00367
2007.80134,0.00374
2005.87261,0.00375
2003.94389,0.00380
2002.01516,0.00390
2000.08644,0.00398
1998.15772,0.00401
1996.22899,0.00407
1994.30027,0.00409
1992.37155,0.00395
1990.44282,0.00374
1988.51410,0.00369
1986.58538,0.00375
1984.65665,0.00375
1982.72793,0.00366
1980.79920,0.00355
1978.87048,0.00343
1976.94176,0.00334
1975.01303,0.00325
1973.08431,0.00311
1971.15559,0.00297
1969.22686,0.00289
1967.29814,0.00270
1965.36941,0.00237
1963.44069,0.00209
1961.51197,0.00196
1959.58324,0.00186
1957.65452,0.00171
1955.72580,0.00152
1953.79707,0.00138
1951.86835,0.00129
1949.93963,0.00116
1948.01090,0.00101
1946.08218,0.00094
1944.15345,0.00082
1942.22473,0.00054
1940.29601,0.00034
1938.36728,0.00036
1936.43856,0.00040
1934.50984,0.00035
1932.58111,0.00029
1930.65239,0.00024
1928.72367,0.00023
1926.79494,0.00031
1924.86622,0.00041
1922.93749,0.00042
1921.00877,0.00050
1919.08005,0.00068
1917.15132,0.00082
1915.22260,0.00107
1913.29388,0.00152
1911.36515,0.00198
1909.43643,0.00228
1907.50770,0.00253
1905.57898,0.00297
1903.65026,0.00357
1901.72153,0.00413
1899.79281,0.00456
1897.86409,0.00494
1895.93536,0.00529
1894.00664,0.00566
1892.07792,0.00615
1890.14919,0.00661
1888.22047,0.00693
1886.29174,0.00728
1884.36302,0.00769
1882.43430,0.00801
1880.50557,0.00825
1878.57685,0.00840
1876.64813,0.00843
1874.71940,0.00848
1872.79068,0.00873
1870.86196,0.00890
1868.93323,0.00855
1867.00451,0.00785
1865.07578,0.00737
1863.14706,0.00714
1861.21834,0.00688
1859.28961,0.00652
1857.36089,0.00610
1855.43217,0.00563
1853.50344,0.00516
1851.57472,0.00481
1849.64599,0.00462
1847.71727,0.00445
1845.78855,0.00394
1843.85982,0.00303
1841.93110,0.00232
1840.00238,0.00212
1838.07365,0.00208
1836.14493,0.00193
1834.21621,0.00179
1832.28748,0.00165
1830.35876,0.00126
1828.43003,0.00071
1826.50131,0.00034
1824.57259,0.00011
1822.64386,0.00001
1820.71514,0.00008
1818.78642,0.00012
1816.85769,0.00004
1814.92897,0.00000
1813.00025,-0.00010
1811.07152,-0.00028
1809.14280,-0.00047
1807.21407,-0.00045
1805.28535,-0.00025
1803.35663,-0.00009
1801.42790,-0.00014
1799.49918,-0.00026
1797.57046,-0.00013
1795.64173,0.00026
1793.71301,0.00054
1791.78428,0.00049
1789.85556,0.00057
1787.92684,0.00117
1785.99811,0.00196
1784.06939,0.00260
1782.14067,0.00304
1780.21194,0.00337
1778.28322,0.00384
1776.35450,0.00461
1774.42577,0.00536
1772.49705,0.00564
1770.56832,0.00572
1768.63960,0.00613
1766.71088,0.00685
1764.78215,0.00768
1762.85343,0.00833
1760.92471,0.00869
1758.99598,0.00897
1757.06726,0.00929
1755.13854,0.00981
1753.20981,0.01058
1751.28109,0.01117
1749.35236,0.01137
1747.42364,0.01172
1745.49492,0.01257
1743.56619,0.01367
1741.63747,0.01477
1739.70875,0.01593
1737.78002,0.01742
1735.85130,0.01909
1733.92257,0.02047
1731.99385,0.02165
1730.06513,0.02317
1728.13640,0.02506
1726.20768,0.02713
1724.27896,0.02926
1722.35023,0.03140
1720.42151,0.03345
1718.49279,0.03509
1716.56406,0.03631
1714.63534,0.03773
1712.70661,0.03966
1710.77789,0.04190
1708.84917,0.04422
1706.92044,0.04644
1704.99172,0.04855
1703.06300,0.05075
1701.13427,0.05304
1699.20555,0.05532
1697.27683,0.05766
1695.34810,0.06018
1693.41938,0.06291
1691.49065,0.06588
1689.56193,0.06898
1687.63321,0.07205
1685.70448,0.07497
1683.77576,0.07772
1681.84704,0.08044
1679.91831,0.08342
1677.98959,0.08654
1676.06087,0.08953
1674.13214,0.09231
1672.20342,0.09499
1670.27469,0.09761
1668.34597,0.10020
1666.41725,0.10278
1664.48852,0.10531
1662.55980,0.10765
1660.63108,0.10984
1658.70235,0.11216
1656.77363,0.11461
1654.84490,0.11656
1652.91618,0.11746
1650.98746,0.11828
1649.05873,0.11978
1647.13001,0.12123
1645.20129,0.12222
1643.27256,0.12315
1641.34384,0.12425
1639.41512,0.12533
1637.48639,0.12591
1635.55767,0.12560
1633.62894,0.12515
1631.70022,0.12520
1629.77150,0.12518
1627.84277,0.12452
1625.91405,0.12321
1623.98533,0.12126
1622.05660,0.11907
1620.12788,0.11724
1618.19916,0.11495
1616.27043,0.11138
1614.34171,0.10788
1612.41298,0.10522
1610.48426,0.10253
1608.55554,0.09935
1606.62681,0.09602
1604.69809,0.09275
1602.76937,0.08954
1600.84064,0.08654
1598.91192,0.08379
1596.98319,0.08114
1595.05447,0.07853
1593.12575,0.07607
1591.19702,0.07386
1589.26830,0.07180
1587.33958,0.06981
1585.41085,0.06783
1583.48213,0.06590
1581.55341,0.06425
1579.62468,0.06294
1577.69596,0.06132
1575.76723,0.05907
1573.83851,0.05738
1571.90979,0.05652
1569.98106,0.05537
1568.05234,0.05379
1566.12362,0.05266
1564.19489,0.05229
1562.26617,0.05232
1560.33745,0.05128
1558.40872,0.04827
1556.48000,0.04610
1554.55127,0.04571
1552.62255,0.04550
1550.69383,0.04482
1548.76510,0.04404
1546.83638,0.04354
1544.90766,0.04316
1542.97893,0.04220
1541.05021,0.03973
1539.12148,0.03658
1537.19276,0.03515
1535.26404,0.03469
1533.33531,0.03337
1531.40659,0.03163
1529.47787,0.03046
1527.54914,0.02929
1525.62042,0.02764
1523.69170,0.02584
1521.76297,0.02394
1519.83425,0.02229
1517.90552,0.02117
1515.97680,0.02011
1514.04808,0.01912
1512.11935,0.01842
1510.19063,0.01769
1508.26191,0.01570
1506.33318,0.01204
1504.40446,0.00931
1502.47574,0.00845
1500.54701,0.00788
1498.61829,0.00657
1496.68956,0.00480
1494.76084,0.00358
1492.83212,0.00309
1490.90339,0.00243
1488.97467,0.00125
1487.04595,0.00043
1485.11722,0.00042
1483.18850,0.00083
1481.25977,0.00133
1479.33105,0.00195
1477.40233,0.00275
1475.47360,0.00363
1473.54488,0.00454
1471.61616,0.00565
1469.68743,0.00718
1467.75871,0.00887
1465.82999,0.01021
1463.90126,0.01117
1461.97254,0.01214
1460.04381,0.01297
1458.11509,0.01302
1456.18637,0.01260
1454.25764,0.01285
1452.32892,0.01368
1450.40020,0.01438
1448.47147,0.01470
1446.54275,0.01489
1444.61403,0.01525
1442.68530,0.01578
1440.75658,0.01636
1438.82785,0.01682
1436.89913,0.01705
1434.97041,0.01731
1433.04168,0.01790
1431.11296,0.01863
1429.18424,0.01930
1427.25551,0.02000
1425.32679,0.02082
1423.39806,0.02182
1421.46934,0.02292
1419.54062,0.02386
1417.61189,0.02474
1415.68317,0.02598
1413.75445,0.02755
1411.82572,0.02926
1409.89700,0.03109
1407.96828,0.03305
1406.03955,0.03499
1404.11083,0.03661
1402.18210,0.03761
1400.25338,0.03772
1398.32466,0.03669
1396.39593,0.03457
1394.46721,0.03177
1392.53849,0.02927
1390.60976,0.02782
1388.68104,0.02763
1386.75232,0.02849
1384.82359,0.02884
1382.89487,0.02685
1380.96614,0.02295
1379.03742,0.01920
1377.10870,0.01662
1375.17997,0.01461
1373.25125,0.01266
1371.32253,0.01103
1369.39380,0.00976
1367.46508,0.00864
1365.53635,0.00757
1363.60763,0.00640
1361.67891,0.00515
1359.75018,0.00423
1357.82146,0.00368
1355.89274,0.00316
1353.96401,0.00257
1352.03529,0.00205
1350.10657,0.00166
1348.17784,0.00133
1346.24912,0.00106
1344.32039,0.00086
1342.39167,0.00069
1340.46295,0.00040
1338.53422,0.00005
1336.60550,-0.00013
1334.67678,-0.00014
1332.74805,-0.00010
1330.81933,0.00007
1328.89061,0.00040
1326.96188,0.00077
1325.03316,0.00111
1323.10443,0.00150
1321.17571,0.00193
1319.24699,0.00227
1317.31826,0.00248
1315.38954,0.00267
1313.46082,0.00292
1311.53209,0.00326
1309.60337,0.00368
1307.67464,0.00420
1305.74592,0.00482
1303.81720,0.00549
1301.88847,0.00627
1299.95975,0.00736
1298.03103,0.00873
1296.10230,0.01018
1294.17358,0.01174
1292.24486,0.01349
1290.31613,0.01539
1288.38741,0.01748
1286.45868,0.01978
1284.52996,0.02222
1282.60124,0.02491
1280.67251,0.02802
1278.74379,0.03152
1276.81507,0.03538
1274.88634,0.03968
1272.95762,0.04451
1271.02890,0.04989
1269.10017,0.05581
1267.17145,0.06233
1265.24272,0.06960
1263.31400,0.07780
1261.38528,0.08712
1259.45655,0.09751
1257.52783,0.10868
1255.59911,0.12040
1253.67038,0.13249
1251.74166,0.14458
1249.81294,0.15633
1247.88421,0.16746
1245.95549,0.17786
1244.02676,0.18748
1242.09804,0.19627
1240.16932,0.20424
1238.24059,0.21155
1236.31187,0.21835
1234.38315,0.22470
1232.45442,0.23053
1230.52570,0.23573
1228.59697,0.24035
1226.66825,0.24450
1224.73953,0.24848
1222.81080,0.25249
1220.88208,0.25633
1218.95336,0.25967
1217.02463,0.26258
1215.09591,0.26538
1213.16719,0.26817
1211.23846,0.27097
1209.30974,0.27380
1207.38101,0.27645
1205.45229,0.27877
1203.52357,0.28124
1201.59484,0.28407
1199.66612,0.28668
1197.73740,0.28884
1195.80867,0.29105
1193.87995,0.29356
1191.95123,0.29606
1190.02250,0.29815
1188.09378,0.29999
1186.16505,0.30200
1184.23633,0.30418
1182.30761,0.30635
1180.37888,0.30858
1178.45016,0.31097
1176.52144,0.31355
1174.59271,0.31622
1172.66399,0.31868
1170.73526,0.32067
1168.80654,0.32230
1166.87782,0.32401
1164.94909,0.32624
1163.02037,0.32874
1161.09165,0.33077
1159.16292,0.33237
1157.23420,0.33416
1155.30548,0.33605
1153.37675,0.33787
1151.44803,0.33992
1149.51930,0.34218
1147.59058,0.34429
1145.66186,0.34634
1143.73313,0.34858
1141.80441,0.35078
1139.87569,0.35290
1137.94696,0.35527
1136.01824,0.35762
1134.08952,0.35950
1132.16079,0.36124
1130.23207,0.36354
1128.30334,0.36648
1126.37462,0.36984
1124.44590,0.37348
1122.51717,0.37720
1120.58845,0.38125
1118.65973,0.38586
1116.73100,0.39073
1114.80228,0.39568
1112.87355,0.40106
1110.94483,0.40702
1109.01611,0.41307
1107.08738,0.41923
1105.15866,0.42577
1103.22994,0.43185
1101.30121,0.43669
1099.37249,0.44044
1097.44377,0.44335
1095.51504,0.44572
1093.58632,0.44789
1091.65759,0.44976
1089.72887,0.45121
1087.80015,0.45201
1085.87142,0.45187
1083.94270,0.45111
1082.01398,0.45029
1080.08525,0.44929
1078.15653,0.44765
1076.22781,0.44562
1074.29908,0.44325
1072.37036,0.44017
1070.44163,0.43655
1068.51291,0.43283
1066.58419,0.42937
1064.65546,0.42614
1062.72674,0.42247
1060.79802,0.41787
1058.86929,0.41309
1056.94057,0.40867
1055.01184,0.40394
1053.08312,0.39849
1051.15440,0.39261
1049.22567,0.38634
1047.29695,0.38007
1045.36823,0.37417
1043.43950,0.36783
1041.51078,0.36050
1039.58206,0.35282
1037.65333,0.34550
1035.72461,0.33884
1033.79588,0.33240
1031.86716,0.32533
1029.93844,0.31763
1028.00971,0.31007
1026.08099,0.30303
1024.15227,0.29619
1022.22354,0.28931
1020.29482,0.28246
1018.36610,0.27584
1016.43737,0.26953
1014.50865,0.26323
1012.57992,0.25665
1010.65120,0.25009
1008.72248,0.24393
1006.79375,0.23827
1004.86503,0.23292
1002.93631,0.22729
1001.00758,0.22148
999.07886,0.21616
997.15013,0.21112
995.22141,0.20594
993.29269,0.20079
991.36396,0.19592
989.43524,0.19125
987.50652,0.18673
985.57779,0.18250
983.64907,0.17884
981.72035,0.17588
979.79162,0.17330
977.86290,0.17075
975.93417,0.16843
974.00545,0.16677
972.07673,0.16566
970.14800,0.16455
968.21928,0.16331
966.29056,0.16213
964.36183,0.16119
962.43311,0.16046
960.50439,0.15990
958.57566,0.15949
956.64694,0.15885
954.71821,0.15780
952.78949,0.15669
950.86077,0.15568
948.93204,0.15467
947.00332,0.15357
945.07460,0.15222
943.14587,0.15056
941.21715,0.14887
939.28842,0.14726
937.35970,0.14529
935.43098,0.14287
933.50225,0.14043
931.57353,0.13801
929.64481,0.13544
927.71608,0.13274
925.78736,0.13015
923.85864,0.12760
921.92991,0.12476
920.00119,0.12165
918.07246,0.11842
916.14374,0.11503
914.21502,0.11174
912.28629,0.10876
910.35757,0.10553
908.42885,0.10179
906.50012,0.09812
904.57140,0.09467
902.64268,0.09097
900.71395,0.08698
898.78523,0.08325
896.85650,0.07985
894.92778,0.07634
892.99906,0.07274
891.07033,0.06931
889.14161,0.06594
887.21289,0.06263
885.28416,0.05957
883.35544,0.05654
881.42671,0.05340
879.49799,0.05041
877.56927,0.04777
875.64054,0.04518
873.71182,0.04227
871.78310,0.03933
869.85437,0.03682
867.92565,0.03476
865.99693,0.03272
864.06820,0.03060
862.13948,0.02866
860.21075,0.02699
858.28203,0.02532
856.35331,0.02363
854.42458,0.02217
852.49586,0.02114
850.56714,0.02053
848.63841,0.02023
846.70969,0.02033
844.78097,0.02112
842.85224,0.02274
840.92352,0.02498
838.99479,0.02747
837.06607,0.03021
835.13735,0.03360
833.20862,0.03740
831.27990,0.04088
829.35118,0.04404
827.42245,0.04755
825.49373,0.05170
823.56501,0.05604
821.63628,0.05992
819.70756,0.06330
817.77883,0.06663
815.85011,0.07017
813.92139,0.07401
811.99266,0.07791
810.06394,0.08143
808.13522,0.08468
806.20649,0.08788
804.27777,0.09074
802.34904,0.09294
800.42032,0.09432
798.49160,0.09503
796.56287,0.09550
794.63415,0.09567
792.70543,0.09516
790.77670,0.09386
788.84798,0.09201
786.91926,0.08985
784.99053,0.08718
783.06181,0.08377
781.13308,0.08000
779.20436,0.07633
777.27564,0.07247
775.34691,0.06796
773.41819,0.06338
771.48947,0.05971
769.56074,0.05702
767.63202,0.05489
765.70330,0.05325
763.77457,0.05226
761.84585,0.05171
759.91712,0.05110
757.98840,0.05038
756.05968,0.04986
754.13095,0.04960
752.20223,0.04928
750.27351,0.04873
748.34478,0.04831
746.41606,0.04803
744.48733,0.04763
742.55861,0.04714
740.62989,0.04655
738.70116,0.04589
736.77244,0.04537
734.84372,0.04514
732.91499,0.04501
730.98627,0.04486
729.05755,0.04496
727.12882,0.04542
725.20010,0.04582
723.27137,0.04558
721.34265,0.04479
719.41393,0.04441
717.48520,0.04451
715.55648,0.04428
713.62776,0.04372
711.69903,0.04324
709.77031,0.04283
707.84159,0.04278
705.91286,0.04332
703.98414,0.04400
702.05541,0.04444
700.12669,0.04491
698.19797,0.04565
696.26924,0.04626
694.34052,0.04628
692.41180,0.04600
690.48307,0.04588
688.55435,0.04595
686.62562,0.04612
684.69690,0.04650
682.76818,0.04708
680.83945,0.04770
678.91073,0.04798
676.98201,0.04781
675.05328,0.04783
673.12456,0.04837
671.19584,0.04790
669.26711,0.04528
667.33839,0.04355
665.40966,0.04503
663.48094,0.04700
661.55222,0.04781
659.62349,0.04811
657.69477,0.04851
655.76605,0.04905
653.83732,0.04967
651.90860,0.05060
649.97988,0.05229
648.05115,0.05460
646.12243,0.05676
644.19370,0.05844
642.26498,0.06003
640.33626,0.06163
638.40753,0.06292
636.47881,0.06408
634.55009,0.06567
632.62136,0.06787
630.69264,0.07022
628.76391,0.07184
626.83519,0.07233
624.90647,0.07279
622.97774,0.07371
621.04902,0.07444
619.12030,0.07491
617.19157,0.07543
615.26285,0.07608
613.33413,0.07708
611.40540,0.07876
609.47668,0.08110
607.54795,0.08315
605.61923,0.08398
603.69051,0.08438
601.76178,0.08580
599.83306,0.08849
597.90434,0.09130
595.97561,0.09306
594.04689,0.09400
592.11817,0.09529
590.18944,0.09718
588.26072,0.09881
586.33199,0.10018
584.40327,0.10177
582.47455,0.10293
580.54582,0.10315
578.61710,0.10317
576.68838,0.10365
574.75965,0.10423
572.83093,0.10438
570.90220,0.10420
568.97348,0.10384
567.04476,0.10336
565.11603,0.10310
563.18731,0.10339
561.25859,0.10414
559.32986,0.10518
557.40114,0.10619
555.47242,0.10662
553.54369,0.10682
551.61497,0.10786
549.68624,0.10946
547.75752,0.11064
545.82880,0.11138
543.90007,0.11229
541.97135,0.11433
540.04263,0.11670
538.11390,0.11645
536.18518,0.11352
534.25646,0.11097
532.32773,0.10975
530.39901,0.10905
528.47028,0.10925
526.54156,0.11071
524.61284,0.11235
522.68411,0.11322
520.75539,0.11320
518.82667,0.11226
516.89794,0.11165
514.96922,0.11340
513.04049,0.11704
511.11177,0.12043
509.18305,0.12342
507.25432,0.12769
505.32560,0.13308
503.39688,0.13833
501.46815,0.14408
499.53943,0.15122
497.61071,0.15883
495.68198,0.16605
493.75326,0.17360
491.82453,0.18220
489.89581,0.19062
487.96709,0.19780
486.03836,0.20484
484.10964,0.21228
482.18092,0.21878
480.25219,0.22437
478.32347,0.23159
476.39475,0.24215
474.46602,0.25390
472.53730,0.26304
470.60857,0.26899
468.67985,0.27312
466.75113,0.27502
464.82240,0.27428
462.89368,0.27194
460.96496,0.26923
459.03623,0.26553
457.10751,0.25998
455.17878,0.25516
453.25006,0.25250
451.32134,0.24886
449.39261,0.24277
447.46389,0.23682
445.53517,0.23121
443.60644,0.22349
441.67772,0.21529
439.74900,0.20970
437.82027,0.20503
435.89155,0.19893
433.96282,0.19198
432.03410,0.18518
430.10538,0.17834
428.17665,0.17109
426.24793,0.16442
424.31921,0.15957
422.39048,0.15414
420.46176,0.14589
418.53304,0.13926
416.60431,0.13721
414.67559,0.13316
412.74686,0.12279
410.81814,0.10981
408.88942,0.09808
406.96069,0.08707
405.03197,0.07802
403.10325,0.07472
401.17452,0.07968
399.24580,0.09208
397.31708,0.10258
395.38835,0.09955
393.45963,0.08595
391.53090,0.06997
389.60218,0.05720
387.67346,0.05342
385.74473,0.05996
383.81601,0.06844
381.88729,0.06994
379.95856,0.06783
378.02984,0.06753
376.10111,0.05839
374.17239,0.02760
372.24367,0.00000
370.31494,-0.01291
368.38622,0.00000
