3996.31543,0.00016
3994.38671,0.00009
3992.45799,0.00003
3990.52926,0.00000
3988.60054,0.00003
3986.67182,0.00011
3984.74309,0.00021
3982.81437,0.00032
3980.88564,0.00041
3978.95692,0.00041
3977.02820,0.00040
3975.09947,0.00045
3973.17075,0.00051
3971.24203,0.00051
3969.31330,0.00036
3967.38458,0.00016
3965.45586,0.00007
3963.52713,0.00016
3961.59841,0.00030
3959.66968,0.00039
3957.74096,0.00048
3955.81224,0.00056
3953.88351,0.00057
3951.95479,0.00055
3950.02607,0.00050
3948.09734,0.00033
3946.16862,0.00011
3944.23990,-0.00000
3942.31117,-0.00001
3940.38245,0.00000
3938.45372,0.00003
3936.52500,0.00013
3934.59628,0.00030
3932.66755,0.00047
3930.73883,0.00058
3928.81011,0.00062
3926.88138,0.00055
3924.95266,0.00041
3923.02393,0.00036
3921.09521,0.00046
3919.16649,0.00061
3917.23776,0.00058
3915.30904,0.00037
3913.38032,0.00020
3911.45159,0.00015
3909.52287,0.00015
3907.59415,0.00024
3905.66542,0.00047
3903.73670,0.00069
3901.80797,0.00075
3899.87925,0.00074
3897.95053,0.00071
3896.02180,0.00060
3894.09308,0.00043
3892.16436,0.00028
3890.23563,0.00025
3888.30691,0.00027
3886.37819,0.00026
3884.44946,0.00021
3882.52074,0.00012
3880.59201,0.00003
3878.66329,0.00000
3876.73457,0.00005
3874.80584,0.00013
3872.87712,0.00016
3870.94840,0.00011
3869.01967,0.00012
3867.09095,0.00026
3865.16222,0.00028
3863.23350,0.00012
3861.30478,0.00002
3859.37605,0.00013
3857.44733,0.00028
3855.51861,0.00022
3853.58988,0.00002
3851.66116,0.00005
3849.73244,0.00023
3847.80371,0.00031
3845.87499,0.00027
3843.94626,0.00020
3842.01754,0.00016
3840.08882,0.00015
3838.16009,0.00017
3836.23137,0.00025
3834.30265,0.00038
3832.37392,0.00047
3830.44520,0.00053
3828.51648,0.00056
3826.58775,0.00053
3824.65903,0.00049
3822.73030,0.00045
3820.80158,0.00034
3818.87286,0.00026
3816.94413,0.00027
3815.01541,0.00033
3813.08669,0.00047
3811.15796,0.00071
3809.22924,0.00098
3807.30052,0.00117
3805.37179,0.00123
3803.44307,0.00118
3801.51434,0.00110
3799.58562,0.00106
3797.65690,0.00113
3795.72817,0.00128
3793.79945,0.00141
3791.87073,0.00156
3789.94200,0.00178
3788.01328,0.00193
3786.08455,0.00194
3784.15583,0.00189
3782.22711,0.00190
3780.29838,0.00207
3778.36966,0.00232
3776.44094,0.00250
3774.51221,0.00260
3772.58349,0.00279
3770.65477,0.00312
3768.72604,0.00347
3766.79732,0.00373
3764.86859,0.00388
3762.93987,0.00401
3761.01115,0.00425
3759.08242,0.00464
3757.15370,0.00506
3755.22498,0.00538
3753.29625,0.00571
3751.36753,0.00611
3749.43881,0.00647
3747.51008,0.00682
3745.58136,0.00736
3743.65263,0.00801
3741.72391,0.00856
3739.79519,0.00908
3737.86646,0.00967
3735.93774,0.01024
3734.00902,0.01071
3732.08029,0.01128
3730.15157,0.01202
3728.22284,0.01287
3726.29412,0.01395
3724.36540,0.01535
3722.43667,0.01684
3720.50795,0.01820
3718.57923,0.01942
3716.65050,0.02065
3714.72178,0.02213
3712.79306,0.02406
3710.86433,0.02633
3708.93561,0.02853
3707.00688,0.03061
3705.07816,0.03282
3703.14944,0.03532
3701.22071,0.03799
3699.29199,0.04051
3697.36327,0.04278
3695.43454,0.04489
3693.50582,0.04695
3691.57710,0.04923
3689.64837,0.05206
3687.71965,0.05518
3685.79092,0.05813
3683.86220,0.06094
3681.93348,0.06383
3680.00475,0.06688
3678.07603,0.07026
3676.14731,0.07435
3674.21858,0.07855
3672.28986,0.08190
3670.36113,0.08507
3668.43241,0.08855
3666.50369,0.09178
3664.57496,0.09477
3662.64624,0.09784
3660.71752,0.10096
3658.78879,0.10413
3656.86007,0.10747
3654.93135,0.11071
3653.00262,0.11350
3651.07390,0.11644
3649.14517,0.12014
3647.21645,0.12383
3645.28773,0.12679
3643.35900,0.12936
3641.43028,0.13193
3639.50156,0.13452
3637.57283,0.13703
3635.64411,0.13951
3633.71539,0.14200
3631.78666,0.14449
3629.85794,0.14716
3627.92921,0.14999
3626.00049,0.15233
3624.07177,0.15412
3622.14304,0.15573
3620.21432,0.15745
3618.28560,0.15931
3616.35687,0.16106
3614.42815,0.16267
3612.49942,0.16423
3610.57070,0.16570
3608.64198,0.16709
3606.71325,0.16848
3604.78453,0.16980
3602.85581,0.17105
3600.92708,0.17235
3598.99836,0.17375
3597.06964,0.17514
3595.14091,0.17641
3593.21219,0.17763
3591.28346,0.17885
3589.35474,0.18009
3587.42602,0.18145
3585.49729,0.18289
3583.56857,0.18427
3581.63985,0.18552
3579.71112,0.18670
3577.78240,0.18783
3575.85368,0.18889
3573.92495,0.18987
3571.99623,0.19076
3570.06750,0.19167
3568.13878,0.19273
3566.21006,0.19396
3564.28133,0.19514
3562.35261,0.19615
3560.42389,0.19704
3558.49516,0.19788
3556.56644,0.19863
3554.63771,0.19926
3552.70899,0.19992
3550.78027,0.20065
3548.85154,0.20132
3546.92282,0.20186
3544.99410,0.20238
3543.06537,0.20302
3541.13665,0.20374
3539.20793,0.20443
3537.27920,0.20504
3535.35048,0.20556
3533.42175,0.20602
3531.49303,0.20642
3529.56431,0.20679
3527.63558,0.20718
3525.70686,0.20756
3523.77814,0.20791
3521.84941,0.20836
3519.92069,0.20898
3517.99197,0.20975
3516.06324,0.21052
3514.13452,0.21110
3512.20579,0.21156
3510.27707,0.21215
3508.34835,0.21280
3506.41962,0.21335
3504.49090,0.21389
3502.56218,0.21448
3500.63345,0.21493
3498.70473,0.21528
3496.77600,0.21571
3494.84728,0.21620
3492.91856,0.21663
3490.98983,0.21707
3489.06111,0.21763
3487.13239,0.21822
3485.20366,0.21874
3483.27494,0.21923
3481.34622,0.21976
3479.41749,0.22020
3477.48877,0.22050
3475.56004,0.22082
3473.63132,0.22124
3471.70260,0.22178
3469.77387,0.22247
3467.84515,0.22314
3465.91643,0.22353
3463.98770,0.22371
3462.05898,0.22396
3460.13026,0.22441
3458.20153,0.22489
3456.27281,0.22527
3454.34408,0.22563
3452.41536,0.22603
3450.48664,0.22635
3448.55791,0.22651
3446.62919,0.22661
3444.70047,0.22677
3442.77174,0.22695
3440.84302,0.22721
3438.91429,0.22765
3436.98557,0.22815
3435.05685,0.22841
3433.12812,0.22856
3431.19940,0.22886
3429.27068,0.22924
3427.34195,0.22946
3425.41323,0.22944
3423.48451,0.22938
3421.55578,0.22957
3419.62706,0.22997
3417.69833,0.23029
3415.76961,0.23044
3413.84089,0.23054
3411.91216,0.23054
3409.98344,0.23039
3408.05472,0.23030
3406.12599,0.23032
3404.19727,0.23023
3402.26855,0.23000
3400.33982,0.22985
3398.41110,0.22992
3396.48237,0.23004
3394.55365,0.22996
3392.62493,0.22976
3390.69620,0.22955
3388.76748,0.22921
3386.83876,0.22883
3384.91003,0.22861
3382.98131,0.22847
3381.05259,0.22822
3379.12386,0.22791
3377.19514,0.22764
3375.26641,0.22739
3373.33769,0.22700
3371.40897,0.22658
3369.48024,0.22638
3367.55152,0.22628
3365.62280,0.22606
3363.69407,0.22574
3361.76535,0.22541
3359.83662,0.22500
3357.90790,0.22460
3355.97918,0.22426
3354.05045,0.22393
3352.12173,0.22361
3350.19301,0.22329
3348.26428,0.22282
3346.33556,0.22224
3344.40684,0.22171
3342.47811,0.22121
3340.54939,0.22073
3338.62066,0.22026
3336.69194,0.21983
3334.76322,0.21952
3332.83449,0.21923
3330.90577,0.21867
3328.97705,0.21791
3327.04832,0.21726
3325.11960,0.21679
3323.19088,0.21633
3321.26215,0.21578
3319.33343,0.21527
3317.40470,0.21499
3315.47598,0.21490
3313.54726,0.21469
3311.61853,0.21422
3309.68981,0.21356
3307.76109,0.21294
3305.83236,0.21254
3303.90364,0.21229
3301.97491,0.21186
3300.04619,0.21117
3298.11747,0.21050
3296.18874,0.21009
3294.26002,0.20982
3292.33130,0.20953
3290.40257,0.20909
3288.47385,0.20859
3286.54513,0.20817
3284.61640,0.20784
3282.68768,0.20760
3280.75895,0.20732
3278.83023,0.20680
3276.90151,0.20619
3274.97278,0.20568
3273.04406,0.20527
3271.11534,0.20494
3269.18661,0.20460
3267.25789,0.20419
3265.32917,0.20375
3263.40044,0.20339
3261.47172,0.20303
3259.54299,0.20250
3257.61427,0.20194
3255.68555,0.20156
3253.75682,0.20135
3251.82810,0.20110
3249.89938,0.20059
3247.97065,0.19989
3246.04193,0.19935
3244.11320,0.19907
3242.18448,0.19882
3240.25576,0.19842
3238.32703,0.19800
3236.39831,0.19759
3234.46959,0.19706
3232.54086,0.19646
3230.61214,0.19593
3228.68342,0.19545
3226.75469,0.19499
3224.82597,0.19456
3222.89724,0.19408
3220.96852,0.19348
3219.03980,0.19278
3217.11107,0.19212
3215.18235,0.19153
3213.25363,0.19094
3211.32490,0.19032
3209.39618,0.18967
3207.46746,0.18899
3205.53873,0.18828
3203.61001,0.18756
3201.68128,0.18691
3199.75256,0.18626
3197.82384,0.18554
3195.89511,0.18483
3193.96639,0.18418
3192.03767,0.18342
3190.10894,0.18264
3188.18022,0.18204
3186.25149,0.18143
3184.32277,0.18063
3182.39405,0.17975
3180.46532,0.17890
3178.53660,0.17818
3176.60788,0.17748
3174.67915,0.17669
3172.75043,0.17590
3170.82171,0.17517
3168.89298,0.17434
3166.96426,0.17341
3165.03553,0.17251
3163.10681,0.17169
3161.17809,0.17086
3159.24936,0.17006
3157.32064,0.16936
3155.39192,0.16862
3153.46319,0.16779
3151.53447,0.16701
3149.60575,0.16626
3147.67702,0.16542
3145.74830,0.16458
3143.81957,0.16378
3141.89085,0.16300
3139.96213,0.16220
3138.03340,0.16142
3136.10468,0.16068
3134.17596,0.15989
3132.24723,0.15907
3130.31851,0.15837
3128.38978,0.15775
3126.46106,0.15702
3124.53234,0.15619
3122.60361,0.15531
3120.67489,0.15444
3118.74617,0.15364
3116.81744,0.15285
3114.88872,0.15194
3112.96000,0.15098
3111.03127,0.15012
3109.10255,0.14933
3107.17382,0.14855
3105.24510,0.14772
3103.31638,0.14677
3101.38765,0.14570
3099.45893,0.14459
3097.53021,0.14352
3095.60148,0.14253
3093.67276,0.14160
3091.74404,0.14072
3089.81531,0.13991
3087.88659,0.13914
3085.95786,0.13830
3084.02914,0.13733
3082.10042,0.13634
3080.17169,0.13537
3078.24297,0.13440
3076.31425,0.13340
3074.38552,0.13247
3072.45680,0.13164
3070.52807,0.13078
3068.59935,0.12986
3066.67063,0.12896
3064.74190,0.12801
3062.81318,0.12704
3060.88446,0.12620
3058.95573,0.12550
3057.02701,0.12477
3055.09829,0.12390
3053.16956,0.12299
3051.24084,0.12210
3049.31211,0.12122
3047.38339,0.12033
3045.45467,0.11944
3043.52594,0.11865
3041.59722,0.11793
3039.66850,0.11720
3037.73977,0.11644
3035.81105,0.11569
3033.88233,0.11498
3031.95360,0.11431
3030.02488,0.11368
3028.09615,0.11306
3026.16743,0.11237
3024.23871,0.11155
3022.30998,0.11070
3020.38126,0.11001
3018.45254,0.10941
3016.52381,0.10876
3014.59509,0.10805
3012.66636,0.10737
3010.73764,0.10675
3008.80892,0.10611
3006.88019,0.10536
3004.95147,0.10459
3003.02275,0.10399
3001.09402,0.10356
2999.16530,0.10310
2997.23658,0.10249
2995.30785,0.10185
2993.37913,0.10131
2991.45040,0.10081
2989.52168,0.10033
2987.59296,0.09995
2985.66423,0.09964
2983.73551,0.09930
2981.80679,0.09903
2979.87806,0.09885
2977.94934,0.09877
2976.02062,0.09885
2974.09189,0.09914
2972.16317,0.09959
2970.23444,0.10007
2968.30572,0.10053
2966.37700,0.10092
2964.44827,0.10113
2962.51955,0.10115
2960.59083,0.10097
2958.66210,0.10049
2956.73338,0.09971
2954.80466,0.09884
2952.87593,0.09799
2950.94721,0.09718
2949.01848,0.09651
2947.08976,0.09606
2945.16104,0.09590
2943.23231,0.09606
2941.30359,0.09644
2939.37487,0.09701
2937.44614,0.09779
2935.51742,0.09868
2933.58869,0.09954
2931.65997,0.10030
2929.73125,0.10087
2927.80252,0.10108
2925.87380,0.10081
2923.94508,0.09988
2922.01635,0.09822
2920.08763,0.09610
2918.15891,0.09391
2916.23018,0.09191
2914.30146,0.09012
2912.37273,0.08851
2910.44401,0.08703
2908.51529,0.08556
2906.58656,0.08411
2904.65784,0.08276
2902.72912,0.08151
2900.80039,0.08029
2898.87167,0.07910
2896.94295,0.07791
2895.01422,0.07670
2893.08550,0.07556
2891.15677,0.07457
2889.22805,0.07371
2887.29933,0.07289
2885.37060,0.07208
2883.44188,0.07135
2881.51316,0.07080
2879.58443,0.07049
2877.65571,0.07033
2875.72698,0.07017
2873.79826,0.06990
2871.86954,0.06955
2869.94081,0.06919
2868.01209,0.06892
2866.08337,0.06868
2864.15464,0.06847
2862.22592,0.06844
2860.29720,0.06872
2858.36847,0.06923
2856.43975,0.06966
2854.51102,0.06964
2852.58230,0.06890
2850.65358,0.06735
2848.72485,0.06524
2846.79613,0.06297
2844.86741,0.06076
2842.93868,0.05868
2841.00996,0.05682
2839.08124,0.05527
2837.15251,0.05393
2835.22379,0.05276
2833.29506,0.05178
2831.36634,0.05091
2829.43762,0.05005
2827.50889,0.04924
2825.58017,0.04849
2823.65145,0.04778
2821.72272,0.04721
2819.79400,0.04671
2817.86527,0.04608
2815.93655,0.04536
2814.00783,0.04475
2812.07910,0.04429
2810.15038,0.04381
2808.22166,0.04324
2806.29293,0.04265
2804.36421,0.04211
2802.43549,0.04162
2800.50676,0.04117
2798.57804,0.04078
2796.64931,0.04034
2794.72059,0.03980
2792.79187,0.03926
2790.86314,0.03880
2788.93442,0.03843
2787.00570,0.03804
2785.07697,0.03755
2783.14825,0.03707
2781.21953,0.03663
2779.29080,0.03613
2777.36208,0.03559
2775.43335,0.03515
2773.50463,0.03477
2771.57591,0.03438
2769.64718,0.03400
2767.71846,0.03362
2765.78974,0.03317
2763.86101,0.03269
2761.93229,0.03224
2760.00356,0.03183
2758.07484,0.03148
2756.14612,0.03118
2754.21739,0.03080
2752.28867,0.03034
2750.35995,0.02990
2748.43122,0.02953
2746.50250,0.02920
2744.57378,0.02887
2742.64505,0.02858
2740.71633,0.02828
2738.78760,0.02792
2736.85888,0.02758
2734.93016,0.02730
2733.00143,0.02704
2731.07271,0.02668
2729.14399,0.02620
2727.21526,0.02568
2725.28654,0.02527
2723.35782,0.02498
2721.42909,0.02471
2719.50037,0.02438
2717.57164,0.02401
2715.64292,0.02363
2713.71420,0.02325
2711.78547,0.02289
2709.85675,0.02250
2707.92803,0.02214
2705.99930,0.02179
2704.07058,0.02146
2702.14185,0.02122
2700.21313,0.02104
2698.28441,0.02077
2696.35568,0.02039
2694.42696,0.02003
2692.49824,0.01977
2690.56951,0.01948
2688.64079,0.01909
2686.71207,0.01871
2684.78334,0.01841
2682.85462,0.01819
2680.92589,0.01801
2678.99717,0.01781
2677.06845,0.01754
2675.13972,0.01720
2673.21100,0.01686
2671.28228,0.01654
2669.35355,0.01622
2667.42483,0.01591
2665.49611,0.01564
2663.56738,0.01539
2661.63866,0.01517
2659.70993,0.01494
2657.78121,0.01461
2655.85249,0.01422
2653.92376,0.01389
2651.99504,0.01370
2650.06632,0.01358
2648.13759,0.01339
2646.20887,0.01314
2644.28014,0.01293
2642.35142,0.01273
2640.42270,0.01241
2638.49397,0.01201
2636.56525,0.01170
2634.63653,0.01150
2632.70780,0.01131
2630.77908,0.01108
2628.85036,0.01085
2626.92163,0.01066
2624.99291,0.01050
2623.06418,0.01033
2621.13546,0.01018
2619.20674,0.00999
2617.27801,0.00971
2615.34929,0.00945
2613.42057,0.00932
2611.49184,0.00921
2609.56312,0.00901
2607.63440,0.00872
2605.70567,0.00848
2603.77695,0.00833
2601.84822,0.00820
2599.91950,0.00802
2597.99078,0.00787
2596.06205,0.00775
2594.13333,0.00754
2592.20461,0.00730
2590.27588,0.00711
2588.34716,0.00696
2586.41843,0.00686
2584.48971,0.00682
2582.56099,0.00672
2580.63226,0.00650
2578.70354,0.00625
2576.77482,0.00611
2574.84609,0.00606
2572.91737,0.00599
2570.98865,0.00582
2569.05992,0.00559
2567.13120,0.00538
2565.20247,0.00523
2563.27375,0.00509
2561.34503,0.00493
2559.41630,0.00471
2557.48758,0.00451
2555.55886,0.00443
2553.63013,0.00440
2551.70141,0.00430
2549.77269,0.00411
2547.84396,0.00399
2545.91524,0.00394
2543.98651,0.00385
2542.05779,0.00369
2540.12907,0.00355
2538.20034,0.00351
2536.27162,0.00351
2534.34290,0.00348
2532.41417,0.00343
2530.48545,0.00333
2528.55673,0.00317
2526.62800,0.00303
2524.69928,0.00295
2522.77055,0.00289
2520.84183,0.00282
2518.91311,0.00270
2516.98438,0.00260
2515.05566,0.00257
2513.12694,0.00256
2511.19821,0.00254
2509.26949,0.00255
2507.34076,0.00253
2505.41204,0.00245
2503.48332,0.00235
2501.55459,0.00227
2499.62587,0.00215
2497.69715,0.00204
2495.76842,0.00198
2493.83970,0.00195
2491.91098,0.00196
2489.98225,0.00202
2488.05353,0.00199
2486.12480,0.00191
2484.19608,0.00186
2482.26736,0.00178
2480.33863,0.00161
2478.40991,0.00139
2476.48119,0.00124
2474.55246,0.00116
2472.62374,0.00110
2470.69502,0.00101
2468.76629,0.00094
2466.83757,0.00089
2464.90884,0.00083
2462.98012,0.00075
2461.05140,0.00067
2459.12267,0.00061
2457.19395,0.00058
2455.26523,0.00055
2453.33650,0.00051
2451.40778,0.00046
2449.47905,0.00043
2447.55033,0.00041
2445.62161,0.00037
2443.69288,0.00032
2441.76416,0.00028
2439.83544,0.00022
2437.90671,0.00014
2435.97799,0.00006
2434.04927,0.00003
2432.12054,0.00011
2430.19182,0.00027
2428.26309,0.00037
2426.33437,0.00034
2424.40565,0.00029
2422.47692,0.00028
2420.54820,0.00023
2418.61948,0.00019
2416.69075,0.00019
2414.76203,0.00018
2412.83331,0.00015
2410.90458,0.00013
2408.97586,0.00009
2407.04713,0.00004
2405.11841,0.00000
2403.18969,-0.00003
2401.26096,-0.00004
2399.33224,-0.00004
2397.40352,-0.00005
2395.47479,-0.00008
2393.54607,-0.00013
2391.61734,-0.00016
2389.68862,-0.00012
2387.75990,-0.00000
2385.83117,0.00015
2383.90245,0.00028
2381.97373,0.00033
2380.04500,0.00029
2378.11628,0.00019
2376.18756,0.00008
2374.25883,0.00000
2372.33011,-0.00001
2370.40138,0.00000
2368.47266,-0.00002
2366.54394,-0.00003
2364.61521,-0.00005
2362.68649,-0.00004
2360.75777,0.00009
2358.82904,0.00007
2356.90032,-0.00024
2354.97160,-0.00043
2353.04287,0.00017
2351.11415,0.00147
2349.18542,0.00208
2347.25670,0.00108
2345.32798,-0.00033
2343.39925,-0.00072
2341.47053,-0.00030
2339.54181,0.00026
2337.61308,0.00062
2335.68436,0.00062
2333.75563,0.00038
2331.82691,0.00018
2329.89819,0.00013
2327.96946,0.00019
2326.04074,0.00022
2324.11202,0.00014
2322.18329,-0.00002
2320.25457,-0.00008
2318.32585,0.00005
2316.39712,0.00018
2314.46840,0.00019
2312.53967,0.00019
2310.61095,0.00026
2308.68223,0.00031
2306.75350,0.00028
2304.82478,0.00020
2302.89606,0.00013
2300.96733,0.00007
2299.03861,0.00002
2297.10989,-0.00002
2295.18116,-0.00004
2293.25244,-0.00004
2291.32371,-0.00000
2289.39499,0.00004
2287.46627,0.00002
2285.53754,-0.00009
2283.60882,-0.00019
2281.68010,-0.00017
2279.75137,-0.00011
2277.82265,-0.00008
2275.89392,-0.00008
2273.96520,-0.00006
2272.03648,-0.00001
2270.10775,0.00008
2268.17903,0.00015
2266.25031,0.00018
2264.32158,0.00014
2262.39286,0.00006
2260.46414,0.00000
2258.53541,-0.00000
2256.60669,0.00002
2254.67796,0.00005
2252.74924,0.00007
2250.82052,0.00005
2248.89179,0.00002
2246.96307,-0.00001
2245.03435,-0.00001
2243.10562,0.00003
2241.17690,0.00008
2239.24818,0.00013
2237.31945,0.00016
2235.39073,0.00017
2233.46200,0.00017
2231.53328,0.00017
2229.60456,0.00016
2227.67583,0.00012
2225.74711,0.00008
2223.81839,0.00009
2221.88966,0.00010
2219.96094,0.00008
2218.03221,0.00003
2216.10349,0.00003
2214.17477,0.00006
2212.24604,0.00004
2210.31732,-0.00000
2208.38860,-0.00000
2206.45987,0.00000
2204.53115,-0.00007
2202.60243,-0.00014
2200.67370,-0.00016
2198.74498,-0.00014
2196.81625,-0.00010
2194.88753,-0.00007
2192.95881,-0.00010
2191.03008,-0.00015
2189.10136,-0.00013
2187.17264,-0.00010
2185.24391,-0.00014
2183.31519,-0.00020
2181.38647,-0.00017
2179.45774,-0.00009
2177.52902,-0.00005
2175.60029,-0.00004
2173.67157,-0.00005
2171.74285,-0.00007
2169.81412,-0.00006
2167.88540,0.00001
2165.95668,0.00002
2164.02795,-0.00003
2162.09923,-0.00004
2160.17050,0.00003
2158.24178,0.00007
2156.31306,0.00007
2154.38433,0.00008
2152.45561,0.00007
2150.52689,0.00005
2148.59816,0.00005
2146.66944,0.00011
2144.74072,0.00017
2142.81199,0.00019
2140.88327,0.00017
2138.95454,0.00020
2137.02582,0.00021
2135.09710,0.00020
2133.16837,0.00018
2131.23965,0.00016
2129.31093,0.00016
2127.38220,0.00011
2125.45348,0.00005
2123.52476,0.00006
2121.59603,0.00009
2119.66731,0.00007
2117.73858,0.00006
2115.80986,0.00005
2113.88114,0.00000
2111.95241,-0.00004
2110.02369,-0.00004
2108.09497,-0.00003
2106.16624,0.00001
2104.23752,0.00006
2102.30880,0.00006
2100.38007,-0.00002
2098.45135,-0.00008
2096.52262,-0.00006
2094.59390,0.00000
2092.66518,-0.00004
2090.73645,-0.00013
2088.80773,-0.00022
2086.87901,-0.00029
2084.95028,-0.00032
2083.02156,-0.00037
2081.09283,-0.00046
2079.16411,-0.00055
2077.23539,-0.00060
2075.30666,-0.00058
2073.37794,-0.00054
2071.44922,-0.00051
2069.52049,-0.00053
2067.59177,-0.00054
2065.66305,-0.00047
2063.73432,-0.00035
2061.80560,-0.00033
2059.87687,-0.00037
2057.94815,-0.00037
2056.01943,-0.00029
2054.09070,-0.00019
2052.16198,-0.00011
2050.23326,-0.00004
2048.30453,0.00004
2046.37581,0.00014
2044.44709,0.00025
2042.51836,0.00037
2040.58964,0.00045
2038.66091,0.00053
2036.73219,0.00070
2034.80347,0.00095
2032.87474,0.00116
2030.94602,0.00130
2029.01730,0.00145
2027.08857,0.00162
2025.15985,0.00178
2023.23112,0.00193
2021.30240,0.00201
2019.37368,0.00207
2017.44495,0.00221
2015.51623,0.00240
2013.58751,0.00257
2011.65878,0.00267
2009.73006,0.00273
2007.80134,0.00279
2005.87261,0.00288
2003.94389,0.00295
2002.01516,0.00295
2000.08644,0.00295
1998.15772,0.00301
1996.22899,0.00306
1994.30027,0.00305
1992.37155,0.00297
1990.44282,0.00285
1988.51410,0.00275
1986.58538,0.00269
1984.65665,0.00262
1982.72793,0.00256
1980.79920,0.00251
1978.87048,0.00249
1976.94176,0.00241
1975.01303,0.00229
1973.08431,0.00218
1971.15559,0.00208
1969.22686,0.00194
1967.29814,0.00175
1965.36941,0.00157
1963.44069,0.00140
1961.51197,0.00124
1959.58324,0.00108
1957.65452,0.00097
1955.72580,0.00089
1953.79707,0.00080
1951.86835,0.00068
1949.93963,0.00056
1948.01090,0.00050
1946.08218,0.00047
1944.15345,0.00040
1942.22473,0.00028
1940.29601,0.00014
1938.36728,0.00001
1936.43856,-0.00006
1934.50984,-0.00008
1932.58111,-0.00009
1930.65239,-0.00008
1928.72367,-0.00005
1926.79494,0.00000
1924.86622,0.00009
1922.93749,0.00023
1921.00877,0.00035
1919.08005,0.00047
1917.15132,0.00065
1915.22260,0.00085
1913.29388,0.00107
1911.36515,0.00133
1909.43643,0.00168
1907.50770,0.00211
1905.57898,0.00255
1903.65026,0.00294
1901.72153,0.00328
1899.79281,0.00362
1897.86409,0.00402
1895.93536,0.00443
1894.00664,0.00482
1892.07792,0.00515
1890.14919,0.00545
1888.22047,0.00571
1886.29174,0.00594
1884.36302,0.00613
1882.43430,0.00631
1880.50557,0.00647
1878.57685,0.00660
1876.64813,0.00668
1874.71940,0.00673
1872.79068,0.00670
1870.86196,0.00658
1868.93323,0.00639
1867.00451,0.00621
1865.07578,0.00597
1863.14706,0.00563
1861.21834,0.00523
1859.28961,0.00484
1857.36089,0.00444
1855.43217,0.00400
1853.50344,0.00352
1851.57472,0.00305
1849.64599,0.00261
1847.71727,0.00217
1845.78855,0.00176
1843.85982,0.00142
1841.93110,0.00114
1840.00238,0.00090
1838.07365,0.00067
1836.14493,0.00047
1834.21621,0.00030
1832.28748,0.00014
1830.35876,0.00000
1828.43003,-0.00013
1826.50131,-0.00017
1824.57259,-0.00014
1822.64386,-0.00009
1820.71514,-0.00005
1818.78642,-0.00003
1816.85769,-0.00002
1814.92897,0.00000
1813.00025,0.00007
1811.07152,0.00021
1809.14280,0.00036
1807.21407,0.00048
1805.28535,0.00057
1803.35663,0.00065
1801.42790,0.00074
1799.49918,0.00087
1797.57046,0.00096
1795.64173,0.00095
1793.71301,0.00089
1791.78428,0.00095
1789.85556,0.00111
1787.92684,0.00122
1785.99811,0.00131
1784.06939,0.00147
1782.14067,0.00169
1780.21194,0.00188
1778.28322,0.00201
1776.35450,0.00214
1774.42577,0.00235
1772.49705,0.00268
1770.56832,0.00304
1768.63960,0.00328
1766.71088,0.00341
1764.78215,0.00352
1762.85343,0.00370
1760.92471,0.00393
1758.99598,0.00413
1757.06726,0.00430
1755.13854,0.00444
1753.20981,0.00459
1751.28109,0.00481
1749.35236,0.00510
1747.42364,0.00536
1745.49492,0.00560
1743.56619,0.00592
1741.63747,0.00640
1739.70875,0.00699
1737.78002,0.00754
1735.85130,0.00815
1733.92257,0.00911
1731.99385,0.01038
1730.06513,0.01168
1728.13640,0.01298
1726.20768,0.01431
1724.27896,0.01567
1722.35023,0.01700
1720.42151,0.01824
1718.49279,0.01974
1716.56406,0.02180
1714.63534,0.02396
1712.70661,0.02583
1710.77789,0.02753
1708.84917,0.02930
1706.92044,0.03126
1704.99172,0.03327
1703.06300,0.03514
1701.13427,0.03723
1699.20555,0.03976
1697.27683,0.04234
1695.34810,0.04496
1693.41938,0.04744
1691.49065,0.04967
1689.56193,0.05191
1687.63321,0.05414
1685.70448,0.05672
1683.77576,0.06008
1681.84704,0.06322
1679.91831,0.06548
1677.98959,0.06744
1676.06087,0.06966
1674.13214,0.07211
1672.20342,0.07437
1670.27469,0.07665
1668.34597,0.07901
1666.41725,0.08098
1664.48852,0.08276
1662.55980,0.08486
1660.63108,0.08702
1658.70235,0.08870
1656.77363,0.08989
1654.84490,0.09121
1652.91618,0.09320
1650.98746,0.09500
1649.05873,0.09614
1647.13001,0.09738
1645.20129,0.09891
1643.27256,0.10016
1641.34384,0.10100
1639.41512,0.10155
1637.48639,0.10193
1635.55767,0.10233
1633.62894,0.10266
1631.70022,0.10276
1629.77150,0.10261
1627.84277,0.10215
1625.91405,0.10125
1623.98533,0.09985
1622.05660,0.09821
1620.12788,0.09653
1618.19916,0.09443
1616.27043,0.09174
1614.34171,0.08915
1612.41298,0.08691
1610.48426,0.08460
1608.55554,0.08201
1606.62681,0.07919
1604.69809,0.07632
1602.76937,0.07350
1600.84064,0.07083
1598.91192,0.06835
1596.98319,0.06605
1595.05447,0.06388
1593.12575,0.06185
1591.19702,0.05996
1589.26830,0.05816
1587.33958,0.05641
1585.41085,0.05477
1583.48213,0.05325
1581.55341,0.05187
1579.62468,0.05056
1577.69596,0.04911
1575.76723,0.04751
1573.83851,0.04620
1571.90979,0.04520
1569.98106,0.04415
1568.05234,0.04302
1566.12362,0.04200
1564.19489,0.04111
1562.26617,0.04027
1560.33745,0.03926
1558.40872,0.03798
1556.48000,0.03694
1554.55127,0.03627
1552.62255,0.03565
1550.69383,0.03491
1548.76510,0.03409
1546.83638,0.03330
1544.90766,0.03249
1542.97893,0.03142
1541.05021,0.02992
1539.12148,0.02840
1537.19276,0.02742
1535.26404,0.02665
1533.33531,0.02570
1531.40659,0.02467
1529.47787,0.02359
1527.54914,0.02231
1525.62042,0.02090
1523.69170,0.01949
1521.76297,0.01808
1519.83425,0.01673
1517.90552,0.01552
1515.97680,0.01444
1514.04808,0.01348
1512.11935,0.01256
1510.19063,0.01152
1508.26191,0.01019
1506.33318,0.00861
1504.40446,0.00739
1502.47574,0.00655
1500.54701,0.00568
1498.61829,0.00468
1496.68956,0.00377
1494.76084,0.00313
1492.83212,0.00270
1490.90339,0.00239
1488.97467,0.00220
1487.04595,0.00215
1485.11722,0.00216
1483.18850,0.00226
1481.25977,0.00248
1479.33105,0.00273
1477.40233,0.00295
1475.47360,0.00344
1473.54488,0.00465
1471.61616,0.00640
1469.68743,0.00786
1467.75871,0.00882
1465.82999,0.00959
1463.90126,0.01027
1461.97254,0.01068
1460.04381,0.01086
1458.11509,0.01110
1456.18637,0.01147
1454.25764,0.01174
1452.32892,0.01191
1450.40020,0.01212
1448.47147,0.01240
1446.54275,0.01266
1444.61403,0.01287
1442.68530,0.01302
1440.75658,0.01314
1438.82785,0.01329
1436.89913,0.01355
1434.97041,0.01386
1433.04168,0.01411
1431.11296,0.01439
1429.18424,0.01477
1427.25551,0.01517
1425.32679,0.01555
1423.39806,0.01598
1421.46934,0.01648
1419.54062,0.01713
1417.61189,0.01792
1415.68317,0.01865
1413.75445,0.01935
1411.82572,0.02015
1409.89700,0.02109
1407.96828,0.02205
1406.03955,0.02301
1404.11083,0.02384
1402.18210,0.02422
1400.25338,0.02396
1398.32466,0.02314
1396.39593,0.02191
1394.46721,0.02044
1392.53849,0.01905
1390.60976,0.01817
1388.68104,0.01841
1386.75232,0.01978
1384.82359,0.02059
1382.89487,0.01920
1380.96614,0.01621
1379.03742,0.01338
1377.10870,0.01144
1375.17997,0.01001
1373.25125,0.00874
1371.32253,0.00767
1369.39380,0.00680
1367.46508,0.00601
1365.53635,0.00525
1363.60763,0.00447
1361.67891,0.00368
1359.75018,0.00295
1357.82146,0.00240
1355.89274,0.00205
1353.96401,0.00178
1352.03529,0.00142
1350.10657,0.00096
1348.17784,0.00054
1346.24912,0.00022
1344.32039,0.00000
1342.39167,-0.00030
1340.46295,-0.00058
1338.53422,-0.00083
1336.60550,-0.00101
1334.67678,-0.00112
1332.74805,-0.00116
1330.81933,-0.00110
1328.89061,-0.00100
1326.96188,-0.00091
1325.03316,-0.00079
1323.10443,-0.00056
1321.17571,-0.00018
1319.24699,0.00024
1317.31826,0.00059
1315.38954,0.00084
1313.46082,0.00102
1311.53209,0.00117
1309.60337,0.00142
1307.67464,0.00182
1305.74592,0.00242
1303.81720,0.00321
1301.88847,0.00406
1299.95975,0.00486
1298.03103,0.00566
1296.10230,0.00658
1294.17358,0.00761
1292.24486,0.00862
1290.31613,0.00955
1288.38741,0.01054
1286.45868,0.01169
1284.52996,0.01292
1282.60124,0.01422
1280.67251,0.01576
1278.74379,0.01763
1276.81507,0.01989
1274.88634,0.02257
1272.95762,0.02562
1271.02890,0.02904
1269.10017,0.03299
1267.17145,0.03760
1265.24272,0.04281
1263.31400,0.04852
1261.38528,0.05474
1259.45655,0.06146
1257.52783,0.06851
1255.59911,0.07576
1253.67038,0.08327
1251.74166,0.09088
1249.81294,0.09827
1247.88421,0.10517
1245.95549,0.11158
1244.02676,0.11751
1242.09804,0.12292
1240.16932,0.12776
1238.24059,0.13213
1236.31187,0.13628
1234.38315,0.14040
1232.45442,0.14443
1230.52570,0.14823
1228.59697,0.15171
1226.66825,0.15495
1224.73953,0.15816
1222.81080,0.16138
1220.88208,0.16453
1218.95336,0.16761
1217.02463,0.17065
1215.09591,0.17372
1213.16719,0.17681
1211.23846,0.17982
1209.30974,0.18262
1207.38101,0.18541
1205.45229,0.18848
1203.52357,0.19165
1201.59484,0.19444
1199.66612,0.19693
1197.73740,0.19967
1195.80867,0.20284
1193.87995,0.20601
1191.95123,0.20866
1190.02250,0.21089
1188.09378,0.21316
1186.16505,0.21564
1184.23633,0.21822
1182.30761,0.22075
1180.37888,0.22316
1178.45016,0.22533
1176.52144,0.22734
1174.59271,0.22940
1172.66399,0.23161
1170.73526,0.23384
1168.80654,0.23594
1166.87782,0.23797
1164.94909,0.23993
1163.02037,0.24182
1161.09165,0.24396
1159.16292,0.24607
1157.23420,0.24767
1155.30548,0.24912
1153.37675,0.25087
1151.44803,0.25274
1149.51930,0.25450
1147.59058,0.25618
1145.66186,0.25789
1143.73313,0.25968
1141.80441,0.26159
1139.87569,0.26364
1137.94696,0.26574
1136.01824,0.26766
1134.08952,0.26944
1132.16079,0.27147
1130.23207,0.27401
1128.30334,0.27679
1126.37462,0.27946
1124.44590,0.28191
1122.51717,0.28429
1120.58845,0.28705
1118.65973,0.29039
1116.73100,0.29415
1114.80228,0.29787
1112.87355,0.30129
1110.94483,0.30488
1109.01611,0.30902
1107.08738,0.31324
1105.15866,0.31695
1103.22994,0.32018
1101.30121,0.32304
1099.37249,0.32558
1097.44377,0.32789
1095.51504,0.32993
1093.58632,0.33145
1091.65759,0.33220
1089.72887,0.33249
1087.80015,0.33264
1085.87142,0.33264
1083.94270,0.33266
1082.01398,0.33279
1080.08525,0.33292
1078.15653,0.33302
1076.22781,0.33317
1074.29908,0.33303
1072.37036,0.33224
1070.44163,0.33120
1068.51291,0.33052
1066.58419,0.32987
1064.65546,0.32881
1062.72674,0.32792
1060.79802,0.32716
1058.86929,0.32605
1056.94057,0.32476
1055.01184,0.32350
1053.08312,0.32228
1051.15440,0.32089
1049.22567,0.31895
1047.29695,0.31657
1045.36823,0.31456
1043.43950,0.31299
1041.51078,0.31111
1039.58206,0.30887
1037.65333,0.30672
1035.72461,0.30463
1033.79588,0.30218
1031.86716,0.29921
1029.93844,0.29588
1028.00971,0.29249
1026.08099,0.28926
1024.15227,0.28623
1022.22354,0.28333
1020.29482,0.28026
1018.36610,0.27694
1016.43737,0.27356
1014.50865,0.27025
1012.57992,0.26707
1010.65120,0.26388
1008.72248,0.26040
1006.79375,0.25653
1004.86503,0.25256
1002.93631,0.24874
1001.00758,0.24489
999.07886,0.24096
997.15013,0.23699
995.22141,0.23294
993.29269,0.22889
991.36396,0.22495
989.43524,0.22106
987.50652,0.21714
985.57779,0.21330
983.64907,0.20962
981.72035,0.20599
979.79162,0.20238
977.86290,0.19903
975.93417,0.19599
974.00545,0.19303
972.07673,0.19013
970.14800,0.18755
968.21928,0.18522
966.29056,0.18286
964.36183,0.18043
962.43311,0.17795
960.50439,0.17551
958.57566,0.17334
956.64694,0.17138
954.71821,0.16952
952.78949,0.16778
950.86077,0.16603
948.93204,0.16403
947.00332,0.16181
945.07460,0.15962
943.14587,0.15753
941.21715,0.15551
939.28842,0.15336
937.35970,0.15105
935.43098,0.14885
933.50225,0.14685
931.57353,0.14487
929.64481,0.14247
927.71608,0.13953
925.78736,0.13661
923.85864,0.13407
921.92991,0.13173
920.00119,0.12941
918.07246,0.12694
916.14374,0.12432
914.21502,0.12155
912.28629,0.11866
910.35757,0.11593
908.42885,0.11337
906.50012,0.11067
904.57140,0.10755
902.64268,0.10410
900.71395,0.10081
898.78523,0.09797
896.85650,0.09539
894.92778,0.09267
892.99906,0.08982
891.07033,0.08726
889.14161,0.08496
887.21289,0.08241
885.28416,0.07948
883.35544,0.07662
881.42671,0.07398
879.49799,0.07141
877.56927,0.06894
875.64054,0.06664
873.71182,0.06455
871.78310,0.06258
869.85437,0.06058
867.92565,0.05862
865.99693,0.05662
864.06820,0.05449
862.13948,0.05259
860.21075,0.05102
858.28203,0.04933
856.35331,0.04731
854.42458,0.04518
852.49586,0.04317
850.56714,0.04152
848.63841,0.04034
846.70969,0.03953
844.78097,0.03894
842.85224,0.03861
840.92352,0.03871
838.99479,0.03923
837.06607,0.03995
835.13735,0.04075
833.20862,0.04162
831.27990,0.04256
829.35118,0.04360
827.42245,0.04478
825.49373,0.04619
823.56501,0.04780
821.63628,0.04928
819.70756,0.05074
817.77883,0.05271
815.85011,0.05516
813.92139,0.05745
811.99266,0.05930
810.06394,0.06113
808.13522,0.06343
806.20649,0.06612
804.27777,0.06873
802.34904,0.07097
800.42032,0.07283
798.49160,0.07419
796.56287,0.07458
794.63415,0.07382
792.70543,0.07274
790.77670,0.07205
788.84798,0.07137
786.91926,0.07029
784.99053,0.06903
783.06181,0.06791
781.13308,0.06673
779.20436,0.06511
777.27564,0.06311
775.34691,0.06085
773.41819,0.05857
771.48947,0.05669
769.56074,0.05543
767.63202,0.05470
765.70330,0.05426
763.77457,0.05374
761.84585,0.05316
759.91712,0.05281
757.98840,0.05243
756.05968,0.05181
754.13095,0.05136
752.20223,0.05126
750.27351,0.05126
748.34478,0.05118
746.41606,0.05091
744.48733,0.05039
742.55861,0.04966
740.62989,0.04891
738.70116,0.04858
736.77244,0.04876
734.84372,0.04892
732.91499,0.04889
730.98627,0.04902
729.05755,0.04922
727.12882,0.04897
725.20010,0.04847
723.27137,0.04810
721.34265,0.04751
719.41393,0.04682
717.48520,0.04637
715.55648,0.04613
713.62776,0.04590
711.69903,0.04564
709.77031,0.04560
707.84159,0.04583
705.91286,0.04618
703.98414,0.04669
702.05541,0.04747
700.12669,0.04827
698.19797,0.04867
696.26924,0.04872
694.34052,0.04871
692.41180,0.04871
690.48307,0.04874
688.55435,0.04890
686.62562,0.04913
684.69690,0.04928
682.76818,0.04945
680.83945,0.04977
678.91073,0.04999
676.98201,0.04991
675.05328,0.04986
673.12456,0.05016
671.19584,0.04927
669.26711,0.04653
667.33839,0.04605
665.40966,0.04866
663.48094,0.04987
661.55222,0.04929
659.62349,0.04902
657.69477,0.04912
655.76605,0.04936
653.83732,0.05005
651.90860,0.05112
649.97988,0.05226
648.05115,0.05332
646.12243,0.05436
644.19370,0.05564
642.26498,0.05729
640.33626,0.05894
638.40753,0.06015
636.47881,0.06087
634.55009,0.06133
632.62136,0.06203
630.69264,0.06339
628.76391,0.06501
626.83519,0.06606
624.90647,0.06657
622.97774,0.06691
621.04902,0.06688
619.12030,0.06682
617.19157,0.06739
615.26285,0.06835
613.33413,0.06919
611.40540,0.06989
609.47668,0.07064
607.54795,0.07157
605.61923,0.07255
603.69051,0.07336
601.76178,0.07444
599.83306,0.07625
597.90434,0.07838
595.97561,0.08035
594.04689,0.08187
592.11817,0.08308
590.18944,0.08469
588.26072,0.08640
586.33199,0.08716
584.40327,0.08726
582.47455,0.08785
580.54582,0.08888
578.61710,0.08958
576.68838,0.09006
574.75965,0.09040
572.83093,0.09018
570.90220,0.08986
568.97348,0.08980
567.04476,0.08932
565.11603,0.08826
563.18731,0.08765
561.25859,0.08818
559.32986,0.08920
557.40114,0.08988
555.47242,0.09053
553.54369,0.09211
551.61497,0.09499
549.68624,0.09826
547.75752,0.10038
545.82880,0.10094
543.90007,0.10165
541.97135,0.10344
540.04263,0.10450
538.11390,0.10357
536.18518,0.10188
534.25646,0.10144
532.32773,0.10287
530.39901,0.10444
528.47028,0.10451
526.54156,0.10430
524.61284,0.10534
522.68411,0.10692
520.75539,0.10807
518.82667,0.10890
516.89794,0.11004
514.96922,0.11134
513.04049,0.11230
511.11177,0.11353
509.18305,0.11558
507.25432,0.11859
505.32560,0.12294
503.39688,0.12791
501.46815,0.13231
499.53943,0.13645
497.61071,0.14043
495.68198,0.14324
493.75326,0.14571
491.82453,0.15005
489.89581,0.15566
487.96709,0.16075
486.03836,0.16580
484.10964,0.17193
482.18092,0.17851
480.25219,0.18462
478.32347,0.19029
476.39475,0.19498
474.46602,0.19792
472.53730,0.20000
470.60857,0.20312
468.67985,0.20679
466.75113,0.20827
464.82240,0.20718
462.89368,0.20569
460.96496,0.20564
459.03623,0.20769
457.10751,0.20990
455.17878,0.20888
453.25006,0.20372
451.32134,0.19614
449.39261,0.18879
447.46389,0.18322
445.53517,0.17927
443.60644,0.17664
441.67772,0.17580
439.74900,0.17573
437.82027,0.17419
435.89155,0.17073
433.96282,0.16627
432.03410,0.16137
430.10538,0.15636
428.17665,0.15236
426.24793,0.15050
424.31921,0.14869
422.39048,0.14356
420.46176,0.13473
418.53304,0.12520
416.60431,0.12016
414.67559,0.11924
412.74686,0.11727
410.81814,0.11271
408.88942,0.10684
406.96069,0.10051
405.03197,0.09664
403.10325,0.09456
401.17452,0.08773
399.24580,0.07785
397.31708,0.07491
395.38835,0.07589
393.45963,0.06979
391.53090,0.06014
389.60218,0.05746
387.67346,0.06085
385.74473,0.06067
383.81601,0.05270
381.88729,0.04095
379.95856,0.02880
378.02984,0.01404
376.10111,0.00000
374.17239,-0.01552
372.24367,-0.01163
370.31494,-0.00291
368.38622,0.00000
