3996.31543,0.00000
3994.38671,0.00008
3992.45799,0.00029
3990.52926,0.00045
3988.60054,0.00047
3986.67182,0.00040
3984.74309,0.00030
3982.81437,0.00030
3980.88564,0.00039
3978.95692,0.00053
3977.02820,0.00074
3975.09947,0.00094
3973.17075,0.00098
3971.24203,0.00083
3969.31330,0.00064
3967.38458,0.00056
3965.45586,0.00064
3963.52713,0.00073
3961.59841,0.00069
3959.66968,0.00060
3957.74096,0.00061
3955.81224,0.00071
3953.88351,0.00080
3951.95479,0.00081
3950.02607,0.00074
3948.09734,0.00074
3946.16862,0.00091
3944.23990,0.00110
3942.31117,0.00111
3940.38245,0.00101
3938.45372,0.00098
3936.52500,0.00108
3934.59628,0.00116
3932.66755,0.00105
3930.73883,0.00079
3928.81011,0.00066
3926.88138,0.00074
3924.95266,0.00086
3923.02393,0.00100
3921.09521,0.00119
3919.16649,0.00126
3917.23776,0.00111
3915.30904,0.00087
3913.38032,0.00072
3911.45159,0.00065
3909.52287,0.00070
3907.59415,0.00095
3905.66542,0.00126
3903.73670,0.00133
3901.80797,0.00109
3899.87925,0.00078
3897.95053,0.00064
3896.02180,0.00080
3894.09308,0.00108
3892.16436,0.00116
3890.23563,0.00105
3888.30691,0.00105
3886.37819,0.00096
3884.44946,0.00063
3882.52074,0.00031
3880.59201,0.00004
3878.66329,0.00000
3876.73457,0.00035
3874.80584,0.00084
3872.87712,0.00112
3870.94840,0.00105
3869.01967,0.00065
3867.09095,0.00038
3865.16222,0.00027
3863.23350,0.00004
3861.30478,0.00003
3859.37605,0.00060
3857.44733,0.00151
3855.51861,0.00193
3853.58988,0.00106
3851.66116,-0.00028
3849.73244,-0.00061
3847.80371,-0.00013
3845.87499,0.00045
3843.94626,0.00091
3842.01754,0.00126
3840.08882,0.00122
3838.16009,0.00059
3836.23137,-0.00005
3834.30265,-0.00008
3832.37392,0.00020
3830.44520,0.00039
3828.51648,0.00056
3826.58775,0.00081
3824.65903,0.00107
3822.73030,0.00114
3820.80158,0.00092
3818.87286,0.00080
3816.94413,0.00086
3815.01541,0.00078
3813.08669,0.00073
3811.15796,0.00094
3809.22924,0.00126
3807.30052,0.00146
3805.37179,0.00167
3803.44307,0.00198
3801.51434,0.00204
3799.58562,0.00191
3797.65690,0.00194
3795.72817,0.00201
3793.79945,0.00204
3791.87073,0.00218
3789.94200,0.00249
3788.01328,0.00286
3786.08455,0.00318
3784.15583,0.00355
3782.22711,0.00395
3780.29838,0.00416
3778.36966,0.00413
3776.44094,0.00419
3774.51221,0.00452
3772.58349,0.00509
3770.65477,0.00571
3768.72604,0.00618
3766.79732,0.00649
3764.86859,0.00682
3762.93987,0.00733
3761.01115,0.00792
3759.08242,0.00837
3757.15370,0.00881
3755.22498,0.00951
3753.29625,0.01030
3751.36753,0.01084
3749.43881,0.01137
3747.51008,0.01234
3745.58136,0.01349
3743.65263,0.01432
3741.72391,0.01511
3739.79519,0.01630
3737.86646,0.01782
3735.93774,0.01932
3734.00902,0.02069
3732.08029,0.02222
3730.15157,0.02401
3728.22284,0.02588
3726.29412,0.02777
3724.36540,0.02981
3722.43667,0.03208
3720.50795,0.03451
3718.57923,0.03705
3716.65050,0.03971
3714.72178,0.04253
3712.79306,0.04555
3710.86433,0.04879
3708.93561,0.05219
3707.00688,0.05556
3705.07816,0.05885
3703.14944,0.06222
3701.22071,0.06571
3699.29199,0.06920
3697.36327,0.07268
3695.43454,0.07618
3693.50582,0.07961
3691.57710,0.08314
3689.64837,0.08712
3687.71965,0.09141
3685.79092,0.09549
3683.86220,0.09935
3681.93348,0.10329
3680.00475,0.10750
3678.07603,0.11207
3676.14731,0.11704
3674.21858,0.12185
3672.28986,0.12599
3670.36113,0.13011
3668.43241,0.13441
3666.50369,0.13832
3664.57496,0.14201
3662.64624,0.14581
3660.71752,0.14951
3658.78879,0.15283
3656.86007,0.15600
3654.93135,0.15920
3653.00262,0.16225
3651.07390,0.16519
3649.14517,0.16835
3647.21645,0.17168
3645.28773,0.17484
3643.35900,0.17779
3641.43028,0.18063
3639.50156,0.18330
3637.57283,0.18578
3635.64411,0.18816
3633.71539,0.19051
3631.78666,0.19286
3629.85794,0.19529
3627.92921,0.19778
3626.00049,0.20007
3624.07177,0.20221
3622.14304,0.20428
3620.21432,0.20625
3618.28560,0.20811
3616.35687,0.20980
3614.42815,0.21121
3612.49942,0.21249
3610.57070,0.21400
3608.64198,0.21590
3606.71325,0.21791
3604.78453,0.21977
3602.85581,0.22141
3600.92708,0.22294
3598.99836,0.22442
3597.06964,0.22590
3595.14091,0.22746
3593.21219,0.22913
3591.28346,0.23068
3589.35474,0.23193
3587.42602,0.23303
3585.49729,0.23439
3583.56857,0.23605
3581.63985,0.23759
3579.71112,0.23878
3577.78240,0.23983
3575.85368,0.24104
3573.92495,0.24245
3571.99623,0.24387
3570.06750,0.24508
3568.13878,0.24601
3566.21006,0.24679
3564.28133,0.24772
3562.35261,0.24895
3560.42389,0.25033
3558.49516,0.25155
3556.56644,0.25254
3554.63771,0.25349
3552.70899,0.25453
3550.78027,0.25559
3548.85154,0.25662
3546.92282,0.25761
3544.99410,0.25865
3543.06537,0.25968
3541.13665,0.26065
3539.20793,0.26162
3537.27920,0.26269
3535.35048,0.26376
3533.42175,0.26467
3531.49303,0.26540
3529.56431,0.26613
3527.63558,0.26700
3525.70686,0.26787
3523.77814,0.26862
3521.84941,0.26944
3519.92069,0.27033
3517.99197,0.27110
3516.06324,0.27176
3514.13452,0.27248
3512.20579,0.27340
3510.27707,0.27431
3508.34835,0.27503
3506.41962,0.27557
3504.49090,0.27607
3502.56218,0.27662
3500.63345,0.27723
3498.70473,0.27780
3496.77600,0.27841
3494.84728,0.27913
3492.91856,0.27986
3490.98983,0.28056
3489.06111,0.28118
3487.13239,0.28161
3485.20366,0.28192
3483.27494,0.28242
3481.34622,0.28316
3479.41749,0.28384
3477.48877,0.28445
3475.56004,0.28499
3473.63132,0.28523
3471.70260,0.28535
3469.77387,0.28573
3467.84515,0.28633
3465.91643,0.28690
3463.98770,0.28750
3462.05898,0.28804
3460.13026,0.28832
3458.20153,0.28847
3456.27281,0.28875
3454.34408,0.28921
3452.41536,0.28968
3450.48664,0.29011
3448.55791,0.29047
3446.62919,0.29068
3444.70047,0.29080
3442.77174,0.29094
3440.84302,0.29109
3438.91429,0.29130
3436.98557,0.29179
3435.05685,0.29241
3433.12812,0.29277
3431.19940,0.29279
3429.27068,0.29269
3427.34195,0.29272
3425.41323,0.29301
3423.48451,0.29347
3421.55578,0.29391
3419.62706,0.29412
3417.69833,0.29397
3415.76961,0.29378
3413.84089,0.29393
3411.91216,0.29420
3409.98344,0.29437
3408.05472,0.29447
3406.12599,0.29443
3404.19727,0.29428
3402.26855,0.29436
3400.33982,0.29468
3398.41110,0.29489
3396.48237,0.29480
3394.55365,0.29451
3392.62493,0.29418
3390.69620,0.29401
3388.76748,0.29403
3386.83876,0.29407
3384.91003,0.29401
3382.98131,0.29394
3381.05259,0.29390
3379.12386,0.29386
3377.19514,0.29379
3375.26641,0.29366
3373.33769,0.29345
3371.40897,0.29325
3369.48024,0.29312
3367.55152,0.29300
3365.62280,0.29293
3363.69407,0.29285
3361.76535,0.29268
3359.83662,0.29235
3357.90790,0.29197
3355.97918,0.29173
3354.05045,0.29151
3352.12173,0.29108
3350.19301,0.29058
3348.26428,0.29037
3346.33556,0.29051
3344.40684,0.29066
3342.47811,0.29065
3340.54939,0.29049
3338.62066,0.29012
3336.69194,0.28964
3334.76322,0.28932
3332.83449,0.28914
3330.90577,0.28898
3328.97705,0.28861
3327.04832,0.28800
3325.11960,0.28740
3323.19088,0.28705
3321.26215,0.28691
3319.33343,0.28685
3317.40470,0.28679
3315.47598,0.28666
3313.54726,0.28645
3311.61853,0.28619
3309.68981,0.28587
3307.76109,0.28552
3305.83236,0.28523
3303.90364,0.28493
3301.97491,0.28459
3300.04619,0.28427
3298.11747,0.28397
3296.18874,0.28370
3294.26002,0.28350
3292.33130,0.28323
3290.40257,0.28294
3288.47385,0.28281
3286.54513,0.28271
3284.61640,0.28254
3282.68768,0.28239
3280.75895,0.28219
3278.83023,0.28176
3276.90151,0.28117
3274.97278,0.28069
3273.04406,0.28040
3271.11534,0.28014
3269.18661,0.27981
3267.25789,0.27939
3265.32917,0.27883
3263.40044,0.27829
3261.47172,0.27801
3259.54299,0.27777
3257.61427,0.27731
3255.68555,0.27680
3253.75682,0.27643
3251.82810,0.27611
3249.89938,0.27572
3247.97065,0.27522
3246.04193,0.27456
3244.11320,0.27391
3242.18448,0.27348
3240.25576,0.27319
3238.32703,0.27295
3236.39831,0.27271
3234.46959,0.27237
3232.54086,0.27176
3230.61214,0.27106
3228.68342,0.27055
3226.75469,0.27006
3224.82597,0.26945
3222.89724,0.26892
3220.96852,0.26850
3219.03980,0.26801
3217.11107,0.26734
3215.18235,0.26650
3213.25363,0.26573
3211.32490,0.26517
3209.39618,0.26463
3207.46746,0.26397
3205.53873,0.26334
3203.61001,0.26288
3201.68128,0.26245
3199.75256,0.26180
3197.82384,0.26095
3195.89511,0.26012
3193.96639,0.25941
3192.03767,0.25879
3190.10894,0.25817
3188.18022,0.25755
3186.25149,0.25690
3184.32277,0.25614
3182.39405,0.25529
3180.46532,0.25455
3178.53660,0.25396
3176.60788,0.25333
3174.67915,0.25246
3172.75043,0.25145
3170.82171,0.25057
3168.89298,0.24985
3166.96426,0.24906
3165.03553,0.24809
3163.10681,0.24717
3161.17809,0.24642
3159.24936,0.24561
3157.32064,0.24468
3155.39192,0.24385
3153.46319,0.24316
3151.53447,0.24238
3149.60575,0.24144
3147.67702,0.24051
3145.74830,0.23967
3143.81957,0.23892
3141.89085,0.23812
3139.96213,0.23723
3138.03340,0.23635
3136.10468,0.23556
3134.17596,0.23486
3132.24723,0.23412
3130.31851,0.23333
3128.38978,0.23261
3126.46106,0.23186
3124.53234,0.23090
3122.60361,0.22987
3120.67489,0.22895
3118.74617,0.22801
3116.81744,0.22705
3114.88872,0.22624
3112.96000,0.22545
3111.03127,0.22455
3109.10255,0.22357
3107.17382,0.22252
3105.24510,0.22143
3103.31638,0.22047
3101.38765,0.21965
3099.45893,0.21870
3097.53021,0.21752
3095.60148,0.21634
3093.67276,0.21533
3091.74404,0.21449
3089.81531,0.21366
3087.88659,0.21263
3085.95786,0.21146
3084.02914,0.21031
3082.10042,0.20917
3080.17169,0.20799
3078.24297,0.20678
3076.31425,0.20565
3074.38552,0.20465
3072.45680,0.20374
3070.52807,0.20279
3068.59935,0.20175
3066.67063,0.20060
3064.74190,0.19934
3062.81318,0.19808
3060.88446,0.19701
3058.95573,0.19613
3057.02701,0.19522
3055.09829,0.19419
3053.16956,0.19309
3051.24084,0.19200
3049.31211,0.19094
3047.38339,0.18986
3045.45467,0.18877
3043.52594,0.18779
3041.59722,0.18698
3039.66850,0.18620
3037.73977,0.18539
3035.81105,0.18458
3033.88233,0.18374
3031.95360,0.18282
3030.02488,0.18194
3028.09615,0.18118
3026.16743,0.18045
3024.23871,0.17958
3022.30998,0.17866
3020.38126,0.17786
3018.45254,0.17715
3016.52381,0.17638
3014.59509,0.17555
3012.66636,0.17473
3010.73764,0.17390
3008.80892,0.17306
3006.88019,0.17221
3004.95147,0.17141
3003.02275,0.17077
3001.09402,0.17015
2999.16530,0.16944
2997.23658,0.16873
2995.30785,0.16810
2993.37913,0.16743
2991.45040,0.16670
2989.52168,0.16603
2987.59296,0.16556
2985.66423,0.16525
2983.73551,0.16492
2981.80679,0.16451
2979.87806,0.16408
2977.94934,0.16362
2976.02062,0.16317
2974.09189,0.16284
2972.16317,0.16263
2970.23444,0.16248
2968.30572,0.16232
2966.37700,0.16222
2964.44827,0.16215
2962.51955,0.16206
2960.59083,0.16190
2958.66210,0.16158
2956.73338,0.16113
2954.80466,0.16070
2952.87593,0.16028
2950.94721,0.15976
2949.01848,0.15928
2947.08976,0.15914
2945.16104,0.15936
2943.23231,0.15977
2941.30359,0.16029
2939.37487,0.16091
2937.44614,0.16164
2935.51742,0.16245
2933.58869,0.16322
2931.65997,0.16390
2929.73125,0.16444
2927.80252,0.16481
2925.87380,0.16493
2923.94508,0.16465
2922.01635,0.16376
2920.08763,0.16222
2918.15891,0.16009
2916.23018,0.15748
2914.30146,0.15455
2912.37273,0.15155
2910.44401,0.14874
2908.51529,0.14631
2906.58656,0.14422
2904.65784,0.14240
2902.72912,0.14074
2900.80039,0.13918
2898.87167,0.13772
2896.94295,0.13633
2895.01422,0.13490
2893.08550,0.13337
2891.15677,0.13190
2889.22805,0.13060
2887.29933,0.12941
2885.37060,0.12825
2883.44188,0.12718
2881.51316,0.12634
2879.58443,0.12568
2877.65571,0.12496
2875.72698,0.12422
2873.79826,0.12356
2871.86954,0.12289
2869.94081,0.12215
2868.01209,0.12147
2866.08337,0.12098
2864.15464,0.12083
2862.22592,0.12113
2860.29720,0.12178
2858.36847,0.12253
2856.43975,0.12319
2854.51102,0.12356
2852.58230,0.12326
2850.65358,0.12179
2848.72485,0.11899
2846.79613,0.11534
2844.86741,0.11161
2842.93868,0.10834
2841.00996,0.10566
2839.08124,0.10347
2837.15251,0.10169
2835.22379,0.10019
2833.29506,0.09884
2831.36634,0.09751
2829.43762,0.09621
2827.50889,0.09506
2825.58017,0.09404
2823.65145,0.09307
2821.72272,0.09208
2819.79400,0.09104
2817.86527,0.09001
2815.93655,0.08913
2814.00783,0.08836
2812.07910,0.08758
2810.15038,0.08673
2808.22166,0.08583
2806.29293,0.08496
2804.36421,0.08418
2802.43549,0.08344
2800.50676,0.08269
2798.57804,0.08187
2796.64931,0.08102
2794.72059,0.08033
2792.79187,0.07978
2790.86314,0.07919
2788.93442,0.07842
2787.00570,0.07757
2785.07697,0.07677
2783.14825,0.07597
2781.21953,0.07511
2779.29080,0.07429
2777.36208,0.07367
2775.43335,0.07314
2773.50463,0.07248
2771.57591,0.07168
2769.64718,0.07093
2767.71846,0.07031
2765.78974,0.06973
2763.86101,0.06909
2761.93229,0.06840
2760.00356,0.06770
2758.07484,0.06701
2756.14612,0.06630
2754.21739,0.06559
2752.28867,0.06497
2750.35995,0.06441
2748.43122,0.06386
2746.50250,0.06329
2744.57378,0.06268
2742.64505,0.06204
2740.71633,0.06139
2738.78760,0.06069
2736.85888,0.06009
2734.93016,0.05963
2733.00143,0.05910
2731.07271,0.05842
2729.14399,0.05776
2727.21526,0.05720
2725.28654,0.05661
2723.35782,0.05597
2721.42909,0.05539
2719.50037,0.05486
2717.57164,0.05428
2715.64292,0.05367
2713.71420,0.05311
2711.78547,0.05254
2709.85675,0.05191
2707.92803,0.05126
2705.99930,0.05070
2704.07058,0.05014
2702.14185,0.04955
2700.21313,0.04897
2698.28441,0.04841
2696.35568,0.04791
2694.42696,0.04744
2692.49824,0.04694
2690.56951,0.04640
2688.64079,0.04585
2686.71207,0.04532
2684.78334,0.04483
2682.85462,0.04442
2680.92589,0.04404
2678.99717,0.04358
2677.06845,0.04302
2675.13972,0.04248
2673.21100,0.04197
2671.28228,0.04145
2669.35355,0.04093
2667.42483,0.04042
2665.49611,0.03989
2663.56738,0.03933
2661.63866,0.03884
2659.70993,0.03845
2657.78121,0.03805
2655.85249,0.03756
2653.92376,0.03702
2651.99504,0.03650
2650.06632,0.03607
2648.13759,0.03570
2646.20887,0.03532
2644.28014,0.03491
2642.35142,0.03449
2640.42270,0.03407
2638.49397,0.03366
2636.56525,0.03325
2634.63653,0.03285
2632.70780,0.03244
2630.77908,0.03200
2628.85036,0.03153
2626.92163,0.03105
2624.99291,0.03063
2623.06418,0.03029
2621.13546,0.02995
2619.20674,0.02954
2617.27801,0.02911
2615.34929,0.02874
2613.42057,0.02838
2611.49184,0.02799
2609.56312,0.02764
2607.63440,0.02736
2605.70567,0.02701
2603.77695,0.02655
2601.84822,0.02609
2599.91950,0.02571
2597.99078,0.02539
2596.06205,0.02507
2594.13333,0.02476
2592.20461,0.02447
2590.27588,0.02422
2588.34716,0.02398
2586.41843,0.02368
2584.48971,0.02329
2582.56099,0.02292
2580.63226,0.02264
2578.70354,0.02242
2576.77482,0.02223
2574.84609,0.02202
2572.91737,0.02174
2570.98865,0.02142
2569.05992,0.02110
2567.13120,0.02073
2565.20247,0.02039
2563.27375,0.02016
2561.34503,0.01995
2559.41630,0.01970
2557.48758,0.01942
2555.55886,0.01917
2553.63013,0.01896
2551.70141,0.01869
2549.77269,0.01841
2547.84396,0.01822
2545.91524,0.01805
2543.98651,0.01784
2542.05779,0.01763
2540.12907,0.01748
2538.20034,0.01730
2536.27162,0.01704
2534.34290,0.01676
2532.41417,0.01651
2530.48545,0.01632
2528.55673,0.01618
2526.62800,0.01599
2524.69928,0.01574
2522.77055,0.01553
2520.84183,0.01542
2518.91311,0.01531
2516.98438,0.01514
2515.05566,0.01499
2513.12694,0.01482
2511.19821,0.01456
2509.26949,0.01423
2507.34076,0.01393
2505.41204,0.01375
2503.48332,0.01366
2501.55459,0.01353
2499.62587,0.01329
2497.69715,0.01309
2495.76842,0.01296
2493.83970,0.01282
2491.91098,0.01265
2489.98225,0.01244
2488.05353,0.01221
2486.12480,0.01199
2484.19608,0.01176
2482.26736,0.01154
2480.33863,0.01143
2478.40991,0.01145
2476.48119,0.01141
2474.55246,0.01118
2472.62374,0.01088
2470.69502,0.01065
2468.76629,0.01047
2466.83757,0.01023
2464.90884,0.00995
2462.98012,0.00973
2461.05140,0.00962
2459.12267,0.00955
2457.19395,0.00939
2455.26523,0.00912
2453.33650,0.00883
2451.40778,0.00859
2449.47905,0.00843
2447.55033,0.00831
2445.62161,0.00817
2443.69288,0.00802
2441.76416,0.00790
2439.83544,0.00779
2437.90671,0.00764
2435.97799,0.00740
2434.04927,0.00716
2432.12054,0.00706
2430.19182,0.00705
2428.26309,0.00703
2426.33437,0.00694
2424.40565,0.00675
2422.47692,0.00653
2420.54820,0.00634
2418.61948,0.00616
2416.69075,0.00603
2414.76203,0.00592
2412.83331,0.00573
2410.90458,0.00549
2408.97586,0.00532
2407.04713,0.00521
2405.11841,0.00508
2403.18969,0.00496
2401.26096,0.00488
2399.33224,0.00479
2397.40352,0.00465
2395.47479,0.00447
2393.54607,0.00433
2391.61734,0.00423
2389.68862,0.00415
2387.75990,0.00408
2385.83117,0.00401
2383.90245,0.00399
2381.97373,0.00403
2380.04500,0.00413
2378.11628,0.00422
2376.18756,0.00423
2374.25883,0.00417
2372.33011,0.00408
2370.40138,0.00400
2368.47266,0.00404
2366.54394,0.00414
2364.61521,0.00412
2362.68649,0.00400
2360.75777,0.00398
2358.82904,0.00403
2356.90032,0.00393
2354.97160,0.00358
2353.04287,0.00321
2351.11415,0.00305
2349.18542,0.00311
2347.25670,0.00325
2345.32798,0.00330
2343.39925,0.00320
2341.47053,0.00307
2339.54181,0.00295
2337.61308,0.00282
2335.68436,0.00275
2333.75563,0.00276
2331.82691,0.00278
2329.89819,0.00274
2327.96946,0.00260
2326.04074,0.00236
2324.11202,0.00215
2322.18329,0.00209
2320.25457,0.00212
2318.32585,0.00203
2316.39712,0.00183
2314.46840,0.00165
2312.53967,0.00155
2310.61095,0.00151
2308.68223,0.00148
2306.75350,0.00142
2304.82478,0.00132
2302.89606,0.00127
2300.96733,0.00129
2299.03861,0.00133
2297.10989,0.00129
2295.18116,0.00116
2293.25244,0.00103
2291.32371,0.00093
2289.39499,0.00090
2287.46627,0.00094
2285.53754,0.00100
2283.60882,0.00104
2281.68010,0.00103
2279.75137,0.00099
2277.82265,0.00095
2275.89392,0.00095
2273.96520,0.00099
2272.03648,0.00100
2270.10775,0.00098
2268.17903,0.00091
2266.25031,0.00083
2264.32158,0.00075
2262.39286,0.00067
2260.46414,0.00061
2258.53541,0.00059
2256.60669,0.00063
2254.67796,0.00069
2252.74924,0.00065
2250.82052,0.00050
2248.89179,0.00040
2246.96307,0.00042
2245.03435,0.00046
2243.10562,0.00042
2241.17690,0.00032
2239.24818,0.00024
2237.31945,0.00017
2235.39073,0.00010
2233.46200,0.00006
2231.53328,0.00008
2229.60456,0.00012
2227.67583,0.00015
2225.74711,0.00017
2223.81839,0.00017
2221.88966,0.00015
2219.96094,0.00010
2218.03221,0.00008
2216.10349,0.00010
2214.17477,0.00009
2212.24604,0.00009
2210.31732,0.00012
2208.38860,0.00009
2206.45987,0.00000
2204.53115,-0.00003
2202.60243,0.00004
2200.67370,0.00010
2198.74498,0.00010
2196.81625,0.00008
2194.88753,0.00010
2192.95881,0.00018
2191.03008,0.00022
2189.10136,0.00020
2187.17264,0.00019
2185.24391,0.00021
2183.31519,0.00019
2181.38647,0.00012
2179.45774,0.00005
2177.52902,0.00006
2175.60029,0.00017
2173.67157,0.00029
2171.74285,0.00026
2169.81412,0.00016
2167.88540,0.00017
2165.95668,0.00025
2164.02795,0.00031
2162.09923,0.00034
2160.17050,0.00035
2158.24178,0.00035
2156.31306,0.00035
2154.38433,0.00040
2152.45561,0.00051
2150.52689,0.00059
2148.59816,0.00055
2146.66944,0.00043
2144.74072,0.00032
2142.81199,0.00033
2140.88327,0.00043
2138.95454,0.00052
2137.02582,0.00056
2135.09710,0.00052
2133.16837,0.00045
2131.23965,0.00043
2129.31093,0.00045
2127.38220,0.00045
2125.45348,0.00040
2123.52476,0.00031
2121.59603,0.00025
2119.66731,0.00026
2117.73858,0.00025
2115.80986,0.00016
2113.88114,0.00007
2111.95241,0.00007
2110.02369,0.00012
2108.09497,0.00013
2106.16624,0.00006
2104.23752,0.00001
2102.30880,-0.00001
2100.38007,-0.00004
2098.45135,-0.00005
2096.52262,-0.00002
2094.59390,0.00000
2092.66518,-0.00005
2090.73645,-0.00008
2088.80773,-0.00012
2086.87901,-0.00018
2084.95028,-0.00027
2083.02156,-0.00038
2081.09283,-0.00042
2079.16411,-0.00037
2077.23539,-0.00030
2075.30666,-0.00026
2073.37794,-0.00029
2071.44922,-0.00033
2069.52049,-0.00034
2067.59177,-0.00028
2065.66305,-0.00018
2063.73432,-0.00008
2061.80560,-0.00001
2059.87687,0.00005
2057.94815,0.00015
2056.01943,0.00025
2054.09070,0.00034
2052.16198,0.00041
2050.23326,0.00054
2048.30453,0.00074
2046.37581,0.00095
2044.44709,0.00109
2042.51836,0.00114
2040.58964,0.00120
2038.66091,0.00134
2036.73219,0.00155
2034.80347,0.00180
2032.87474,0.00204
2030.94602,0.00222
2029.01730,0.00237
2027.08857,0.00254
2025.15985,0.00275
2023.23112,0.00298
2021.30240,0.00318
2019.37368,0.00329
2017.44495,0.00334
2015.51623,0.00341
2013.58751,0.00353
2011.65878,0.00364
2009.73006,0.00372
2007.80134,0.00378
2005.87261,0.00381
2003.94389,0.00380
2002.01516,0.00380
2000.08644,0.00381
1998.15772,0.00383
1996.22899,0.00385
1994.30027,0.00388
1992.37155,0.00382
1990.44282,0.00369
1988.51410,0.00360
1986.58538,0.00352
1984.65665,0.00344
1982.72793,0.00338
1980.79920,0.00337
1978.87048,0.00334
1976.94176,0.00324
1975.01303,0.00310
1973.08431,0.00296
1971.15559,0.00285
1969.22686,0.00274
1967.29814,0.00260
1965.36941,0.00238
1963.44069,0.00213
1961.51197,0.00193
1959.58324,0.00177
1957.65452,0.00161
1955.72580,0.00141
1953.79707,0.00121
1951.86835,0.00107
1949.93963,0.00100
1948.01090,0.00090
1946.08218,0.00076
1944.15345,0.00057
1942.22473,0.00032
1940.29601,0.00013
1938.36728,0.00006
1936.43856,0.00005
1934.50984,0.00001
1932.58111,-0.00008
1930.65239,-0.00014
1928.72367,-0.00012
1926.79494,0.00000
1924.86622,0.00016
1922.93749,0.00025
1921.00877,0.00031
1919.08005,0.00046
1917.15132,0.00069
1915.22260,0.00098
1913.29388,0.00131
1911.36515,0.00169
1909.43643,0.00212
1907.50770,0.00260
1905.57898,0.00311
1903.65026,0.00359
1901.72153,0.00406
1899.79281,0.00455
1897.86409,0.00501
1895.93536,0.00545
1894.00664,0.00589
1892.07792,0.00637
1890.14919,0.00682
1888.22047,0.00720
1886.29174,0.00756
1884.36302,0.00794
1882.43430,0.00832
1880.50557,0.00860
1878.57685,0.00875
1876.64813,0.00879
1874.71940,0.00880
1872.79068,0.00879
1870.86196,0.00869
1868.93323,0.00840
1867.00451,0.00802
1865.07578,0.00772
1863.14706,0.00745
1861.21834,0.00709
1859.28961,0.00667
1857.36089,0.00624
1855.43217,0.00579
1853.50344,0.00529
1851.57472,0.00479
1849.64599,0.00433
1847.71727,0.00386
1845.78855,0.00334
1843.85982,0.00276
1841.93110,0.00228
1840.00238,0.00195
1838.07365,0.00161
1836.14493,0.00127
1834.21621,0.00105
1832.28748,0.00089
1830.35876,0.00063
1828.43003,0.00031
1826.50131,0.00011
1824.57259,0.00000
1822.64386,-0.00004
1820.71514,-0.00002
1818.78642,-0.00001
1816.85769,-0.00001
1814.92897,0.00000
1813.00025,-0.00010
1811.07152,-0.00019
1809.14280,-0.00018
1807.21407,-0.00004
1805.28535,0.00017
1803.35663,0.00041
1801.42790,0.00062
1799.49918,0.00081
1797.57046,0.00107
1795.64173,0.00145
1793.71301,0.00188
1791.78428,0.00235
1789.85556,0.00294
1787.92684,0.00364
1785.99811,0.00435
1784.06939,0.00504
1782.14067,0.00572
1780.21194,0.00647
1778.28322,0.00732
1776.35450,0.00823
1774.42577,0.00913
1772.49705,0.00994
1770.56832,0.01069
1768.63960,0.01145
1766.71088,0.01229
1764.78215,0.01317
1762.85343,0.01406
1760.92471,0.01492
1758.99598,0.01579
1757.06726,0.01669
1755.13854,0.01762
1753.20981,0.01857
1751.28109,0.01958
1749.35236,0.02075
1747.42364,0.02208
1745.49492,0.02356
1743.56619,0.02522
1741.63747,0.02701
1739.70875,0.02875
1737.78002,0.03033
1735.85130,0.03188
1733.92257,0.03371
1731.99385,0.03569
1730.06513,0.03758
1728.13640,0.03941
1726.20768,0.04116
1724.27896,0.04285
1722.35023,0.04446
1720.42151,0.04601
1718.49279,0.04769
1716.56406,0.04974
1714.63534,0.05200
1712.70661,0.05418
1710.77789,0.05623
1708.84917,0.05826
1706.92044,0.06059
1704.99172,0.06331
1703.06300,0.06619
1701.13427,0.06935
1699.20555,0.07284
1697.27683,0.07637
1695.34810,0.07996
1693.41938,0.08332
1691.49065,0.08641
1689.56193,0.08961
1687.63321,0.09280
1685.70448,0.09624
1683.77576,0.10046
1681.84704,0.10459
1679.91831,0.10793
1677.98959,0.11093
1676.06087,0.11412
1674.13214,0.11747
1672.20342,0.12061
1670.27469,0.12379
1668.34597,0.12707
1666.41725,0.12989
1664.48852,0.13229
1662.55980,0.13471
1660.63108,0.13703
1658.70235,0.13897
1656.77363,0.14049
1654.84490,0.14183
1652.91618,0.14329
1650.98746,0.14467
1649.05873,0.14573
1647.13001,0.14677
1645.20129,0.14794
1643.27256,0.14896
1641.34384,0.14966
1639.41512,0.15001
1637.48639,0.15002
1635.55767,0.14987
1633.62894,0.14984
1631.70022,0.14984
1629.77150,0.14958
1627.84277,0.14885
1625.91405,0.14763
1623.98533,0.14591
1622.05660,0.14403
1620.12788,0.14232
1618.19916,0.14024
1616.27043,0.13739
1614.34171,0.13466
1612.41298,0.13239
1610.48426,0.12999
1608.55554,0.12733
1606.62681,0.12478
1604.69809,0.12245
1602.76937,0.12016
1600.84064,0.11790
1598.91192,0.11579
1596.98319,0.11380
1595.05447,0.11186
1593.12575,0.10994
1591.19702,0.10806
1589.26830,0.10621
1587.33958,0.10443
1585.41085,0.10275
1583.48213,0.10118
1581.55341,0.09978
1579.62468,0.09851
1577.69596,0.09710
1575.76723,0.09547
1573.83851,0.09414
1571.90979,0.09316
1569.98106,0.09210
1568.05234,0.09099
1566.12362,0.09015
1564.19489,0.08960
1562.26617,0.08916
1560.33745,0.08822
1558.40872,0.08641
1556.48000,0.08498
1554.55127,0.08439
1552.62255,0.08395
1550.69383,0.08330
1548.76510,0.08249
1546.83638,0.08161
1544.90766,0.08058
1542.97893,0.07911
1541.05021,0.07693
1539.12148,0.07462
1537.19276,0.07321
1535.26404,0.07206
1533.33531,0.07030
1531.40659,0.06841
1529.47787,0.06682
1527.54914,0.06501
1525.62042,0.06274
1523.69170,0.06033
1521.76297,0.05781
1519.83425,0.05541
1517.90552,0.05326
1515.97680,0.05109
1514.04808,0.04908
1512.11935,0.04737
1510.19063,0.04567
1508.26191,0.04320
1506.33318,0.03986
1504.40446,0.03736
1502.47574,0.03592
1500.54701,0.03449
1498.61829,0.03254
1496.68956,0.03044
1494.76084,0.02895
1492.83212,0.02809
1490.90339,0.02734
1488.97467,0.02661
1487.04595,0.02634
1485.11722,0.02655
1483.18850,0.02704
1481.25977,0.02778
1479.33105,0.02876
1477.40233,0.02997
1475.47360,0.03158
1473.54488,0.03394
1471.61616,0.03687
1469.68743,0.03946
1467.75871,0.04142
1465.82999,0.04305
1463.90126,0.04433
1461.97254,0.04506
1460.04381,0.04540
1458.11509,0.04571
1456.18637,0.04621
1454.25764,0.04681
1452.32892,0.04730
1450.40020,0.04762
1448.47147,0.04790
1446.54275,0.04831
1444.61403,0.04890
1442.68530,0.04960
1440.75658,0.05036
1438.82785,0.05109
1436.89913,0.05171
1434.97041,0.05227
1433.04168,0.05293
1431.11296,0.05388
1429.18424,0.05494
1427.25551,0.05571
1425.32679,0.05617
1423.39806,0.05669
1421.46934,0.05742
1419.54062,0.05830
1417.61189,0.05927
1415.68317,0.06020
1413.75445,0.06102
1411.82572,0.06186
1409.89700,0.06285
1407.96828,0.06394
1406.03955,0.06499
1404.11083,0.06584
1402.18210,0.06625
1400.25338,0.06587
1398.32466,0.06457
1396.39593,0.06255
1394.46721,0.06022
1392.53849,0.05805
1390.60976,0.05620
1388.68104,0.05439
1386.75232,0.05265
1384.82359,0.05127
1382.89487,0.05018
1380.96614,0.04910
1379.03742,0.04790
1377.10870,0.04653
1375.17997,0.04497
1373.25125,0.04339
1371.32253,0.04194
1369.39380,0.04061
1367.46508,0.03940
1365.53635,0.03829
1363.60763,0.03710
1361.67891,0.03588
1359.75018,0.03487
1357.82146,0.03405
1355.89274,0.03335
1353.96401,0.03274
1352.03529,0.03212
1350.10657,0.03145
1348.17784,0.03088
1346.24912,0.03051
1344.32039,0.03025
1342.39167,0.02995
1340.46295,0.02961
1338.53422,0.02933
1336.60550,0.02913
1334.67678,0.02896
1332.74805,0.02879
1330.81933,0.02871
1328.89061,0.02880
1326.96188,0.02912
1325.03316,0.02959
1323.10443,0.03017
1321.17571,0.03093
1319.24699,0.03207
1317.31826,0.03372
1315.38954,0.03586
1313.46082,0.03836
1311.53209,0.04108
1309.60337,0.04396
1307.67464,0.04748
1305.74592,0.05270
1303.81720,0.05986
1301.88847,0.06653
1299.95975,0.06979
1298.03103,0.07053
1296.10230,0.07153
1294.17358,0.07288
1292.24486,0.07315
1290.31613,0.07214
1288.38741,0.07040
1286.45868,0.06834
1284.52996,0.06640
1282.60124,0.06508
1280.67251,0.06460
1278.74379,0.06498
1276.81507,0.06621
1274.88634,0.06827
1272.95762,0.07119
1271.02890,0.07502
1269.10017,0.07966
1267.17145,0.08502
1265.24272,0.09120
1263.31400,0.09830
1261.38528,0.10634
1259.45655,0.11530
1257.52783,0.12497
1255.59911,0.13511
1253.67038,0.14555
1251.74166,0.15615
1249.81294,0.16667
1247.88421,0.17666
1245.95549,0.18575
1244.02676,0.19399
1242.09804,0.20156
1240.16932,0.20846
1238.24059,0.21466
1236.31187,0.22014
1234.38315,0.22516
1232.45442,0.23003
1230.52570,0.23459
1228.59697,0.23869
1226.66825,0.24253
1224.73953,0.24606
1222.81080,0.24914
1220.88208,0.25210
1218.95336,0.25527
1217.02463,0.25850
1215.09591,0.26159
1213.16719,0.26456
1211.23846,0.26738
1209.30974,0.27012
1207.38101,0.27307
1205.45229,0.27638
1203.52357,0.28005
1201.59484,0.28440
1199.66612,0.29016
1197.73740,0.29788
1195.80867,0.30709
1193.87995,0.31602
1191.95123,0.32214
1190.02250,0.32448
1188.09378,0.32528
1186.16505,0.32688
1184.23633,0.32843
1182.30761,0.32806
1180.37888,0.32567
1178.45016,0.32240
1176.52144,0.31931
1174.59271,0.31699
1172.66399,0.31519
1170.73526,0.31344
1168.80654,0.31175
1166.87782,0.31044
1164.94909,0.30974
1163.02037,0.30962
1161.09165,0.30989
1159.16292,0.31018
1157.23420,0.31056
1155.30548,0.31135
1153.37675,0.31253
1151.44803,0.31377
1149.51930,0.31490
1147.59058,0.31606
1145.66186,0.31738
1143.73313,0.31874
1141.80441,0.32012
1139.87569,0.32167
1137.94696,0.32342
1136.01824,0.32522
1134.08952,0.32681
1132.16079,0.32827
1130.23207,0.33016
1128.30334,0.33260
1126.37462,0.33545
1124.44590,0.33883
1122.51717,0.34278
1120.58845,0.34717
1118.65973,0.35213
1116.73100,0.35784
1114.80228,0.36388
1112.87355,0.36972
1110.94483,0.37547
1109.01611,0.38180
1107.08738,0.38947
1105.15866,0.39738
1103.22994,0.40330
1101.30121,0.40751
1099.37249,0.41158
1097.44377,0.41524
1095.51504,0.41763
1093.58632,0.41891
1091.65759,0.41964
1089.72887,0.42010
1087.80015,0.42035
1085.87142,0.42012
1083.94270,0.41910
1082.01398,0.41765
1080.08525,0.41640
1078.15653,0.41486
1076.22781,0.41246
1074.29908,0.40940
1072.37036,0.40596
1070.44163,0.40270
1068.51291,0.39975
1066.58419,0.39615
1064.65546,0.39164
1062.72674,0.38730
1060.79802,0.38335
1058.86929,0.37917
1056.94057,0.37449
1055.01184,0.36901
1053.08312,0.36285
1051.15440,0.35665
1049.22567,0.35046
1047.29695,0.34376
1045.36823,0.33659
1043.43950,0.32958
1041.51078,0.32282
1039.58206,0.31587
1037.65333,0.30883
1035.72461,0.30216
1033.79588,0.29554
1031.86716,0.28859
1029.93844,0.28163
1028.00971,0.27484
1026.08099,0.26827
1024.15227,0.26213
1022.22354,0.25647
1020.29482,0.25118
1018.36610,0.24606
1016.43737,0.24088
1014.50865,0.23577
1012.57992,0.23099
1010.65120,0.22656
1008.72248,0.22257
1006.79375,0.21912
1004.86503,0.21598
1002.93631,0.21286
1001.00758,0.20999
999.07886,0.20750
997.15013,0.20503
995.22141,0.20266
993.29269,0.20083
991.36396,0.19941
989.43524,0.19807
987.50652,0.19688
985.57779,0.19607
983.64907,0.19565
981.72035,0.19535
979.79162,0.19527
977.86290,0.19569
975.93417,0.19628
974.00545,0.19652
972.07673,0.19653
970.14800,0.19648
968.21928,0.19621
966.29056,0.19572
964.36183,0.19521
962.43311,0.19464
960.50439,0.19373
958.57566,0.19250
956.64694,0.19118
954.71821,0.18990
952.78949,0.18864
950.86077,0.18737
948.93204,0.18601
947.00332,0.18439
945.07460,0.18240
943.14587,0.18011
941.21715,0.17765
939.28842,0.17510
937.35970,0.17259
935.43098,0.17025
933.50225,0.16793
931.57353,0.16542
929.64481,0.16273
927.71608,0.15977
925.78736,0.15646
923.85864,0.15306
921.92991,0.14968
920.00119,0.14602
918.07246,0.14206
916.14374,0.13842
914.21502,0.13505
912.28629,0.13133
910.35757,0.12740
908.42885,0.12362
906.50012,0.11977
904.57140,0.11584
902.64268,0.11214
900.71395,0.10870
898.78523,0.10529
896.85650,0.10185
894.92778,0.09862
892.99906,0.09578
891.07033,0.09316
889.14161,0.09045
887.21289,0.08749
885.28416,0.08447
883.35544,0.08179
881.42671,0.07957
879.49799,0.07747
877.56927,0.07508
875.64054,0.07260
873.71182,0.07044
871.78310,0.06842
869.85437,0.06659
867.92565,0.06535
865.99693,0.06452
864.06820,0.06346
862.13948,0.06201
860.21075,0.06053
858.28203,0.05918
856.35331,0.05801
854.42458,0.05720
852.49586,0.05682
850.56714,0.05682
848.63841,0.05722
846.70969,0.05808
844.78097,0.05938
842.85224,0.06088
840.92352,0.06240
838.99479,0.06419
837.06607,0.06659
835.13735,0.06943
833.20862,0.07253
831.27990,0.07585
829.35118,0.07893
827.42245,0.08177
825.49373,0.08489
823.56501,0.08827
821.63628,0.09127
819.70756,0.09382
817.77883,0.09644
815.85011,0.09912
813.92139,0.10156
811.99266,0.10383
810.06394,0.10590
808.13522,0.10792
806.20649,0.11022
804.27777,0.11272
802.34904,0.11480
800.42032,0.11583
798.49160,0.11583
796.56287,0.11536
794.63415,0.11491
792.70543,0.11434
790.77670,0.11294
788.84798,0.11073
786.91926,0.10862
784.99053,0.10664
783.06181,0.10419
781.13308,0.10119
779.20436,0.09768
777.27564,0.09347
775.34691,0.08908
773.41819,0.08537
771.48947,0.08233
769.56074,0.07967
767.63202,0.07759
765.70330,0.07633
763.77457,0.07558
761.84585,0.07487
759.91712,0.07408
757.98840,0.07337
756.05968,0.07293
754.13095,0.07286
752.20223,0.07276
750.27351,0.07245
748.34478,0.07225
746.41606,0.07223
744.48733,0.07237
742.55861,0.07248
740.62989,0.07229
738.70116,0.07207
736.77244,0.07196
734.84372,0.07167
732.91499,0.07140
730.98627,0.07148
729.05755,0.07188
727.12882,0.07243
725.20010,0.07286
723.27137,0.07297
721.34265,0.07304
719.41393,0.07334
717.48520,0.07388
715.55648,0.07458
713.62776,0.07538
711.69903,0.07620
709.77031,0.07684
707.84159,0.07732
705.91286,0.07811
703.98414,0.07932
702.05541,0.08048
700.12669,0.08146
698.19797,0.08249
696.26924,0.08341
694.34052,0.08371
692.41180,0.08345
690.48307,0.08317
688.55435,0.08330
686.62562,0.08386
684.69690,0.08469
682.76818,0.08558
680.83945,0.08648
678.91073,0.08739
676.98201,0.08811
675.05328,0.08842
673.12456,0.08837
671.19584,0.08857
669.26711,0.08977
667.33839,0.09144
665.40966,0.09221
663.48094,0.09222
661.55222,0.09222
659.62349,0.09245
657.69477,0.09292
655.76605,0.09340
653.83732,0.09361
651.90860,0.09384
649.97988,0.09441
648.05115,0.09541
646.12243,0.09693
644.19370,0.09868
642.26498,0.10004
640.33626,0.10085
638.40753,0.10129
636.47881,0.10169
634.55009,0.10260
632.62136,0.10406
630.69264,0.10562
628.76391,0.10692
626.83519,0.10784
624.90647,0.10846
622.97774,0.10910
621.04902,0.10979
619.12030,0.11044
617.19157,0.11142
615.26285,0.11290
613.33413,0.11424
611.40540,0.11509
609.47668,0.11574
607.54795,0.11645
605.61923,0.11747
603.69051,0.11899
601.76178,0.12047
599.83306,0.12135
597.90434,0.12217
595.97561,0.12392
594.04689,0.12651
592.11817,0.12872
590.18944,0.12987
588.26072,0.13059
586.33199,0.13151
584.40327,0.13248
582.47455,0.13316
580.54582,0.13348
578.61710,0.13371
576.68838,0.13408
574.75965,0.13422
572.83093,0.13387
570.90220,0.13380
568.97348,0.13444
567.04476,0.13505
565.11603,0.13505
563.18731,0.13495
561.25859,0.13537
559.32986,0.13611
557.40114,0.13684
555.47242,0.13757
553.54369,0.13821
551.61497,0.13852
549.68624,0.13836
547.75752,0.13761
545.82880,0.13642
543.90007,0.13551
541.97135,0.13522
540.04263,0.13491
538.11390,0.13463
536.18518,0.13518
534.25646,0.13620
532.32773,0.13628
530.39901,0.13467
528.47028,0.13239
526.54156,0.13165
524.61284,0.13270
522.68411,0.13304
520.75539,0.13199
518.82667,0.13171
516.89794,0.13309
514.96922,0.13500
513.04049,0.13712
511.11177,0.13941
509.18305,0.14113
507.25432,0.14252
505.32560,0.14500
503.39688,0.14982
501.46815,0.15651
499.53943,0.16248
497.61071,0.16689
495.68198,0.17197
493.75326,0.17837
491.82453,0.18420
489.89581,0.18941
487.96709,0.19600
486.03836,0.20399
484.10964,0.21166
482.18092,0.21797
480.25219,0.22294
478.32347,0.22800
476.39475,0.23491
474.46602,0.24338
472.53730,0.25054
470.60857,0.25342
468.67985,0.25356
466.75113,0.25535
464.82240,0.25899
462.89368,0.26035
460.96496,0.25744
459.03623,0.25262
457.10751,0.24875
455.17878,0.24583
453.25006,0.24235
451.32134,0.23712
449.39261,0.22950
447.46389,0.22141
445.53517,0.21610
443.60644,0.21266
441.67772,0.20787
439.74900,0.20155
437.82027,0.19502
435.89155,0.18869
433.96282,0.18209
432.03410,0.17544
430.10538,0.17015
428.17665,0.16630
426.24793,0.16211
424.31921,0.15706
422.39048,0.15237
420.46176,0.14744
418.53304,0.14083
416.60431,0.13520
414.67559,0.13022
412.74686,0.12142
410.81814,0.11125
408.88942,0.10710
406.96069,0.10786
405.03197,0.10440
403.10325,0.09689
401.17452,0.09655
399.24580,0.10354
397.31708,0.10283
395.38835,0.09141
393.45963,0.08278
391.53090,0.08144
389.60218,0.08074
387.67346,0.07175
385.74473,0.05361
383.81601,0.04462
381.88729,0.06141
379.95856,0.08944
378.02984,0.10069
376.10111,0.06800
374.17239,0.00829
372.24367,0.00000
370.31494,0.00705
368.38622,0.00000
