3996.31543,0.00000
3994.38671,0.00004
3992.45799,0.00013
3990.52926,0.00018
3988.60054,0.00015
3986.67182,0.00008
3984.74309,0.00011
3982.81437,0.00028
3980.88564,0.00042
3978.95692,0.00039
3977.02820,0.00036
3975.09947,0.00046
3973.17075,0.00064
3971.24203,0.00077
3969.31330,0.00078
3967.38458,0.00071
3965.45586,0.00072
3963.52713,0.00076
3961.59841,0.00072
3959.66968,0.00060
3957.74096,0.00047
3955.81224,0.00041
3953.88351,0.00051
3951.95479,0.00081
3950.02607,0.00110
3948.09734,0.00114
3946.16862,0.00099
3944.23990,0.00088
3942.31117,0.00088
3940.38245,0.00090
3938.45372,0.00086
3936.52500,0.00087
3934.59628,0.00101
3932.66755,0.00120
3930.73883,0.00124
3928.81011,0.00113
3926.88138,0.00098
3924.95266,0.00085
3923.02393,0.00074
3921.09521,0.00066
3919.16649,0.00057
3917.23776,0.00052
3915.30904,0.00059
3913.38032,0.00068
3911.45159,0.00064
3909.52287,0.00052
3907.59415,0.00054
3905.66542,0.00080
3903.73670,0.00113
3901.80797,0.00121
3899.87925,0.00090
3897.95053,0.00047
3896.02180,0.00031
3894.09308,0.00044
3892.16436,0.00052
3890.23563,0.00033
3888.30691,0.00015
3886.37819,0.00014
3884.44946,0.00011
3882.52074,0.00001
3880.59201,0.00000
3878.66329,0.00004
3876.73457,0.00013
3874.80584,0.00021
3872.87712,0.00029
3870.94840,0.00029
3869.01967,0.00006
3867.09095,-0.00024
3865.16222,-0.00032
3863.23350,-0.00020
3861.30478,-0.00006
3859.37605,0.00015
3857.44733,0.00054
3855.51861,0.00088
3853.58988,0.00077
3851.66116,0.00027
3849.73244,-0.00015
3847.80371,-0.00034
3845.87499,-0.00029
3843.94626,-0.00003
3842.01754,0.00032
3840.08882,0.00059
3838.16009,0.00055
3836.23137,0.00028
3834.30265,0.00008
3832.37392,0.00007
3830.44520,0.00025
3828.51648,0.00050
3826.58775,0.00065
3824.65903,0.00078
3822.73030,0.00100
3820.80158,0.00118
3818.87286,0.00121
3816.94413,0.00096
3815.01541,0.00049
3813.08669,0.00022
3811.15796,0.00045
3809.22924,0.00099
3807.30052,0.00139
3805.37179,0.00158
3803.44307,0.00176
3801.51434,0.00186
3799.58562,0.00185
3797.65690,0.00186
3795.72817,0.00188
3793.79945,0.00191
3791.87073,0.00208
3789.94200,0.00238
3788.01328,0.00276
3786.08455,0.00310
3784.15583,0.00334
3782.22711,0.00351
3780.29838,0.00369
3778.36966,0.00388
3776.44094,0.00417
3774.51221,0.00459
3772.58349,0.00521
3770.65477,0.00596
3768.72604,0.00659
3766.79732,0.00698
3764.86859,0.00725
3762.93987,0.00765
3761.01115,0.00833
3759.08242,0.00921
3757.15370,0.01004
3755.22498,0.01086
3753.29625,0.01179
3751.36753,0.01263
3749.43881,0.01336
3747.51008,0.01439
3745.58136,0.01579
3743.65263,0.01720
3741.72391,0.01843
3739.79519,0.01975
3737.86646,0.02146
3735.93774,0.02345
3734.00902,0.02532
3732.08029,0.02694
3730.15157,0.02852
3728.22284,0.03038
3726.29412,0.03271
3724.36540,0.03541
3722.43667,0.03828
3720.50795,0.04118
3718.57923,0.04396
3716.65050,0.04670
3714.72178,0.04983
3712.79306,0.05373
3710.86433,0.05798
3708.93561,0.06171
3707.00688,0.06485
3705.07816,0.06806
3703.14944,0.07199
3701.22071,0.07658
3699.29199,0.08099
3697.36327,0.08475
3695.43454,0.08820
3693.50582,0.09176
3691.57710,0.09579
3689.64837,0.10042
3687.71965,0.10507
3685.79092,0.10918
3683.86220,0.11300
3681.93348,0.11696
3680.00475,0.12113
3678.07603,0.12558
3676.14731,0.13072
3674.21858,0.13601
3672.28986,0.14055
3670.36113,0.14501
3668.43241,0.14960
3666.50369,0.15349
3664.57496,0.15692
3662.64624,0.16043
3660.71752,0.16397
3658.78879,0.16744
3656.86007,0.17095
3654.93135,0.17427
3653.00262,0.17713
3651.07390,0.18022
3649.14517,0.18410
3647.21645,0.18766
3645.28773,0.19014
3643.35900,0.19228
3641.43028,0.19473
3639.50156,0.19743
3637.57283,0.20008
3635.64411,0.20252
3633.71539,0.20468
3631.78666,0.20668
3629.85794,0.20899
3627.92921,0.21171
3626.00049,0.21422
3624.07177,0.21631
3622.14304,0.21817
3620.21432,0.21981
3618.28560,0.22115
3616.35687,0.22245
3614.42815,0.22398
3612.49942,0.22568
3610.57070,0.22738
3608.64198,0.22901
3606.71325,0.23052
3604.78453,0.23189
3602.85581,0.23322
3600.92708,0.23462
3598.99836,0.23612
3597.06964,0.23760
3595.14091,0.23885
3593.21219,0.23995
3591.28346,0.24112
3589.35474,0.24248
3587.42602,0.24408
3585.49729,0.24562
3583.56857,0.24684
3581.63985,0.24789
3579.71112,0.24894
3577.78240,0.25006
3575.85368,0.25130
3573.92495,0.25263
3571.99623,0.25396
3570.06750,0.25521
3568.13878,0.25633
3566.21006,0.25742
3564.28133,0.25859
3562.35261,0.25967
3560.42389,0.26053
3558.49516,0.26125
3556.56644,0.26197
3554.63771,0.26278
3552.70899,0.26366
3550.78027,0.26469
3548.85154,0.26582
3546.92282,0.26682
3544.99410,0.26768
3543.06537,0.26853
3541.13665,0.26931
3539.20793,0.26996
3537.27920,0.27054
3535.35048,0.27108
3533.42175,0.27169
3531.49303,0.27244
3529.56431,0.27309
3527.63558,0.27370
3525.70686,0.27464
3523.77814,0.27588
3521.84941,0.27689
3519.92069,0.27741
3517.99197,0.27775
3516.06324,0.27823
3514.13452,0.27880
3512.20579,0.27938
3510.27707,0.28000
3508.34835,0.28065
3506.41962,0.28136
3504.49090,0.28214
3502.56218,0.28292
3500.63345,0.28362
3498.70473,0.28415
3496.77600,0.28452
3494.84728,0.28489
3492.91856,0.28534
3490.98983,0.28591
3489.06111,0.28664
3487.13239,0.28742
3485.20366,0.28796
3483.27494,0.28830
3481.34622,0.28871
3479.41749,0.28908
3477.48877,0.28923
3475.56004,0.28937
3473.63132,0.28984
3471.70260,0.29051
3469.77387,0.29103
3467.84515,0.29134
3465.91643,0.29161
3463.98770,0.29196
3462.05898,0.29242
3460.13026,0.29290
3458.20153,0.29325
3456.27281,0.29342
3454.34408,0.29362
3452.41536,0.29406
3450.48664,0.29443
3448.55791,0.29461
3446.62919,0.29493
3444.70047,0.29537
3442.77174,0.29562
3440.84302,0.29564
3438.91429,0.29569
3436.98557,0.29604
3435.05685,0.29650
3433.12812,0.29675
3431.19940,0.29678
3429.27068,0.29682
3427.34195,0.29710
3425.41323,0.29744
3423.48451,0.29761
3421.55578,0.29775
3419.62706,0.29806
3417.69833,0.29836
3415.76961,0.29846
3413.84089,0.29836
3411.91216,0.29816
3409.98344,0.29815
3408.05472,0.29845
3406.12599,0.29881
3404.19727,0.29896
3402.26855,0.29887
3400.33982,0.29870
3398.41110,0.29865
3396.48237,0.29878
3394.55365,0.29889
3392.62493,0.29890
3390.69620,0.29898
3388.76748,0.29901
3386.83876,0.29883
3384.91003,0.29871
3382.98131,0.29874
3381.05259,0.29861
3379.12386,0.29823
3377.19514,0.29776
3375.26641,0.29744
3373.33769,0.29745
3371.40897,0.29757
3369.48024,0.29745
3367.55152,0.29731
3365.62280,0.29748
3363.69407,0.29781
3361.76535,0.29793
3359.83662,0.29766
3357.90790,0.29712
3355.97918,0.29661
3354.05045,0.29628
3352.12173,0.29609
3350.19301,0.29595
3348.26428,0.29587
3346.33556,0.29584
3344.40684,0.29568
3342.47811,0.29519
3340.54939,0.29467
3338.62066,0.29456
3336.69194,0.29463
3334.76322,0.29443
3332.83449,0.29408
3330.90577,0.29387
3328.97705,0.29366
3327.04832,0.29326
3325.11960,0.29284
3323.19088,0.29257
3321.26215,0.29247
3319.33343,0.29247
3317.40470,0.29230
3315.47598,0.29179
3313.54726,0.29127
3311.61853,0.29102
3309.68981,0.29087
3307.76109,0.29075
3305.83236,0.29074
3303.90364,0.29059
3301.97491,0.29009
3300.04619,0.28961
3298.11747,0.28958
3296.18874,0.28974
3294.26002,0.28954
3292.33130,0.28895
3290.40257,0.28835
3288.47385,0.28796
3286.54513,0.28772
3284.61640,0.28755
3282.68768,0.28742
3280.75895,0.28720
3278.83023,0.28676
3276.90151,0.28624
3274.97278,0.28582
3273.04406,0.28556
3271.11534,0.28543
3269.18661,0.28525
3267.25789,0.28489
3265.32917,0.28435
3263.40044,0.28378
3261.47172,0.28335
3259.54299,0.28317
3257.61427,0.28303
3255.68555,0.28262
3253.75682,0.28196
3251.82810,0.28127
3249.89938,0.28063
3247.97065,0.28007
3246.04193,0.27967
3244.11320,0.27950
3242.18448,0.27933
3240.25576,0.27888
3238.32703,0.27825
3236.39831,0.27777
3234.46959,0.27750
3232.54086,0.27720
3230.61214,0.27672
3228.68342,0.27628
3226.75469,0.27591
3224.82597,0.27546
3222.89724,0.27492
3220.96852,0.27437
3219.03980,0.27377
3217.11107,0.27314
3215.18235,0.27248
3213.25363,0.27178
3211.32490,0.27109
3209.39618,0.27061
3207.46746,0.27035
3205.53873,0.27005
3203.61001,0.26954
3201.68128,0.26882
3199.75256,0.26800
3197.82384,0.26729
3195.89511,0.26682
3193.96639,0.26629
3192.03767,0.26545
3190.10894,0.26435
3188.18022,0.26331
3186.25149,0.26260
3184.32277,0.26215
3182.39405,0.26164
3180.46532,0.26089
3178.53660,0.26006
3176.60788,0.25950
3174.67915,0.25914
3172.75043,0.25861
3170.82171,0.25781
3168.89298,0.25692
3166.96426,0.25614
3165.03553,0.25551
3163.10681,0.25476
3161.17809,0.25377
3159.24936,0.25279
3157.32064,0.25204
3155.39192,0.25153
3153.46319,0.25103
3151.53447,0.25031
3149.60575,0.24935
3147.67702,0.24837
3145.74830,0.24745
3143.81957,0.24661
3141.89085,0.24585
3139.96213,0.24512
3138.03340,0.24444
3136.10468,0.24388
3134.17596,0.24322
3132.24723,0.24231
3130.31851,0.24143
3128.38978,0.24068
3126.46106,0.23989
3124.53234,0.23907
3122.60361,0.23837
3120.67489,0.23766
3118.74617,0.23687
3116.81744,0.23610
3114.88872,0.23528
3112.96000,0.23438
3111.03127,0.23357
3109.10255,0.23285
3107.17382,0.23214
3105.24510,0.23134
3103.31638,0.23032
3101.38765,0.22924
3099.45893,0.22830
3097.53021,0.22736
3095.60148,0.22636
3093.67276,0.22544
3091.74404,0.22456
3089.81531,0.22358
3087.88659,0.22256
3085.95786,0.22164
3084.02914,0.22081
3082.10042,0.21992
3080.17169,0.21898
3078.24297,0.21809
3076.31425,0.21714
3074.38552,0.21601
3072.45680,0.21487
3070.52807,0.21395
3068.59935,0.21315
3066.67063,0.21224
3064.74190,0.21124
3062.81318,0.21029
3060.88446,0.20932
3058.95573,0.20821
3057.02701,0.20713
3055.09829,0.20628
3053.16956,0.20549
3051.24084,0.20451
3049.31211,0.20338
3047.38339,0.20226
3045.45467,0.20124
3043.52594,0.20040
3041.59722,0.19971
3039.66850,0.19898
3037.73977,0.19809
3035.81105,0.19703
3033.88233,0.19601
3031.95360,0.19524
3030.02488,0.19462
3028.09615,0.19380
3026.16743,0.19266
3024.23871,0.19152
3022.30998,0.19062
3020.38126,0.18991
3018.45254,0.18925
3016.52381,0.18854
3014.59509,0.18774
3012.66636,0.18694
3010.73764,0.18621
3008.80892,0.18555
3006.88019,0.18491
3004.95147,0.18428
3003.02275,0.18365
3001.09402,0.18303
2999.16530,0.18242
2997.23658,0.18182
2995.30785,0.18113
2993.37913,0.18034
2991.45040,0.17968
2989.52168,0.17932
2987.59296,0.17920
2985.66423,0.17910
2983.73551,0.17899
2981.80679,0.17896
2979.87806,0.17902
2977.94934,0.17912
2976.02062,0.17933
2974.09189,0.17962
2972.16317,0.17998
2970.23444,0.18044
2968.30572,0.18085
2966.37700,0.18112
2964.44827,0.18130
2962.51955,0.18141
2960.59083,0.18137
2958.66210,0.18107
2956.73338,0.18053
2954.80466,0.17995
2952.87593,0.17947
2950.94721,0.17900
2949.01848,0.17853
2947.08976,0.17826
2945.16104,0.17845
2943.23231,0.17910
2941.30359,0.18008
2939.37487,0.18118
2937.44614,0.18231
2935.51742,0.18339
2933.58869,0.18442
2931.65997,0.18542
2929.73125,0.18625
2927.80252,0.18673
2925.87380,0.18687
2923.94508,0.18657
2922.01635,0.18567
2920.08763,0.18413
2918.15891,0.18195
2916.23018,0.17900
2914.30146,0.17544
2912.37273,0.17186
2910.44401,0.16875
2908.51529,0.16620
2906.58656,0.16415
2904.65784,0.16242
2902.72912,0.16071
2900.80039,0.15895
2898.87167,0.15725
2896.94295,0.15561
2895.01422,0.15402
2893.08550,0.15249
2891.15677,0.15101
2889.22805,0.14962
2887.29933,0.14839
2885.37060,0.14731
2883.44188,0.14635
2881.51316,0.14555
2879.58443,0.14486
2877.65571,0.14418
2875.72698,0.14357
2873.79826,0.14304
2871.86954,0.14237
2869.94081,0.14161
2868.01209,0.14104
2866.08337,0.14072
2864.15464,0.14065
2862.22592,0.14093
2860.29720,0.14162
2858.36847,0.14260
2856.43975,0.14350
2854.51102,0.14393
2852.58230,0.14344
2850.65358,0.14154
2848.72485,0.13820
2846.79613,0.13414
2844.86741,0.13014
2842.93868,0.12655
2841.00996,0.12350
2839.08124,0.12099
2837.15251,0.11887
2835.22379,0.11702
2833.29506,0.11539
2831.36634,0.11389
2829.43762,0.11241
2827.50889,0.11105
2825.58017,0.10987
2823.65145,0.10880
2821.72272,0.10785
2819.79400,0.10698
2817.86527,0.10607
2815.93655,0.10507
2814.00783,0.10401
2812.07910,0.10297
2810.15038,0.10202
2808.22166,0.10111
2806.29293,0.10019
2804.36421,0.09926
2802.43549,0.09838
2800.50676,0.09758
2798.57804,0.09685
2796.64931,0.09603
2794.72059,0.09512
2792.79187,0.09434
2790.86314,0.09364
2788.93442,0.09280
2787.00570,0.09185
2785.07697,0.09094
2783.14825,0.09010
2781.21953,0.08933
2779.29080,0.08857
2777.36208,0.08774
2775.43335,0.08690
2773.50463,0.08613
2771.57591,0.08535
2769.64718,0.08451
2767.71846,0.08370
2765.78974,0.08300
2763.86101,0.08241
2761.93229,0.08185
2760.00356,0.08116
2758.07484,0.08039
2756.14612,0.07965
2754.21739,0.07900
2752.28867,0.07835
2750.35995,0.07764
2748.43122,0.07690
2746.50250,0.07616
2744.57378,0.07549
2742.64505,0.07483
2740.71633,0.07417
2738.78760,0.07354
2736.85888,0.07291
2734.93016,0.07228
2733.00143,0.07163
2731.07271,0.07089
2729.14399,0.07017
2727.21526,0.06964
2725.28654,0.06914
2723.35782,0.06846
2721.42909,0.06770
2719.50037,0.06700
2717.57164,0.06634
2715.64292,0.06571
2713.71420,0.06508
2711.78547,0.06445
2709.85675,0.06392
2707.92803,0.06342
2705.99930,0.06285
2704.07058,0.06214
2702.14185,0.06132
2700.21313,0.06055
2698.28441,0.05997
2696.35568,0.05944
2694.42696,0.05888
2692.49824,0.05832
2690.56951,0.05774
2688.64079,0.05715
2686.71207,0.05666
2684.78334,0.05618
2682.85462,0.05558
2680.92589,0.05490
2678.99717,0.05432
2677.06845,0.05382
2675.13972,0.05328
2673.21100,0.05271
2671.28228,0.05215
2669.35355,0.05159
2667.42483,0.05109
2665.49611,0.05064
2663.56738,0.05010
2661.63866,0.04950
2659.70993,0.04897
2657.78121,0.04843
2655.85249,0.04783
2653.92376,0.04732
2651.99504,0.04689
2650.06632,0.04640
2648.13759,0.04586
2646.20887,0.04535
2644.28014,0.04482
2642.35142,0.04419
2640.42270,0.04361
2638.49397,0.04311
2636.56525,0.04264
2634.63653,0.04226
2632.70780,0.04199
2630.77908,0.04166
2628.85036,0.04116
2626.92163,0.04061
2624.99291,0.04017
2623.06418,0.03977
2621.13546,0.03929
2619.20674,0.03877
2617.27801,0.03835
2615.34929,0.03799
2613.42057,0.03755
2611.49184,0.03704
2609.56312,0.03659
2607.63440,0.03623
2605.70567,0.03592
2603.77695,0.03559
2601.84822,0.03517
2599.91950,0.03469
2597.99078,0.03424
2596.06205,0.03385
2594.13333,0.03347
2592.20461,0.03308
2590.27588,0.03274
2588.34716,0.03241
2586.41843,0.03205
2584.48971,0.03175
2582.56099,0.03150
2580.63226,0.03109
2578.70354,0.03055
2576.77482,0.03012
2574.84609,0.02986
2572.91737,0.02962
2570.98865,0.02931
2569.05992,0.02900
2567.13120,0.02870
2565.20247,0.02838
2563.27375,0.02800
2561.34503,0.02763
2559.41630,0.02738
2557.48758,0.02719
2555.55886,0.02694
2553.63013,0.02657
2551.70141,0.02616
2549.77269,0.02577
2547.84396,0.02547
2545.91524,0.02526
2543.98651,0.02506
2542.05779,0.02484
2540.12907,0.02467
2538.20034,0.02445
2536.27162,0.02410
2534.34290,0.02376
2532.41417,0.02354
2530.48545,0.02335
2528.55673,0.02307
2526.62800,0.02272
2524.69928,0.02242
2522.77055,0.02226
2520.84183,0.02207
2518.91311,0.02174
2516.98438,0.02143
2515.05566,0.02122
2513.12694,0.02103
2511.19821,0.02079
2509.26949,0.02046
2507.34076,0.02007
2505.41204,0.01974
2503.48332,0.01958
2501.55459,0.01949
2499.62587,0.01930
2497.69715,0.01901
2495.76842,0.01874
2493.83970,0.01849
2491.91098,0.01820
2489.98225,0.01794
2488.05353,0.01772
2486.12480,0.01745
2484.19608,0.01717
2482.26736,0.01701
2480.33863,0.01692
2478.40991,0.01669
2476.48119,0.01632
2474.55246,0.01598
2472.62374,0.01573
2470.69502,0.01549
2468.76629,0.01522
2466.83757,0.01498
2464.90884,0.01477
2462.98012,0.01452
2461.05140,0.01421
2459.12267,0.01393
2457.19395,0.01377
2455.26523,0.01372
2453.33650,0.01360
2451.40778,0.01330
2449.47905,0.01301
2447.55033,0.01284
2445.62161,0.01271
2443.69288,0.01254
2441.76416,0.01235
2439.83544,0.01210
2437.90671,0.01177
2435.97799,0.01146
2434.04927,0.01125
2432.12054,0.01113
2430.19182,0.01099
2428.26309,0.01083
2426.33437,0.01066
2424.40565,0.01046
2422.47692,0.01026
2420.54820,0.01005
2418.61948,0.00990
2416.69075,0.00982
2414.76203,0.00971
2412.83331,0.00947
2410.90458,0.00912
2408.97586,0.00874
2407.04713,0.00849
2405.11841,0.00838
2403.18969,0.00828
2401.26096,0.00811
2399.33224,0.00794
2397.40352,0.00777
2395.47479,0.00759
2393.54607,0.00740
2391.61734,0.00722
2389.68862,0.00706
2387.75990,0.00691
2385.83117,0.00682
2383.90245,0.00681
2381.97373,0.00685
2380.04500,0.00688
2378.11628,0.00688
2376.18756,0.00687
2374.25883,0.00692
2372.33011,0.00707
2370.40138,0.00722
2368.47266,0.00721
2366.54394,0.00712
2364.61521,0.00706
2362.68649,0.00700
2360.75777,0.00690
2358.82904,0.00671
2356.90032,0.00635
2354.97160,0.00592
2353.04287,0.00557
2351.11415,0.00533
2349.18542,0.00525
2347.25670,0.00535
2345.32798,0.00548
2343.39925,0.00546
2341.47053,0.00530
2339.54181,0.00513
2337.61308,0.00496
2335.68436,0.00481
2333.75563,0.00472
2331.82691,0.00472
2329.89819,0.00473
2327.96946,0.00468
2326.04074,0.00449
2324.11202,0.00419
2322.18329,0.00390
2320.25457,0.00374
2318.32585,0.00366
2316.39712,0.00355
2314.46840,0.00341
2312.53967,0.00331
2310.61095,0.00323
2308.68223,0.00314
2306.75350,0.00299
2304.82478,0.00282
2302.89606,0.00265
2300.96733,0.00251
2299.03861,0.00238
2297.10989,0.00227
2295.18116,0.00219
2293.25244,0.00208
2291.32371,0.00194
2289.39499,0.00182
2287.46627,0.00173
2285.53754,0.00165
2283.60882,0.00160
2281.68010,0.00166
2279.75137,0.00175
2277.82265,0.00172
2275.89392,0.00158
2273.96520,0.00142
2272.03648,0.00133
2270.10775,0.00133
2268.17903,0.00137
2266.25031,0.00135
2264.32158,0.00123
2262.39286,0.00109
2260.46414,0.00106
2258.53541,0.00113
2256.60669,0.00118
2254.67796,0.00114
2252.74924,0.00111
2250.82052,0.00111
2248.89179,0.00105
2246.96307,0.00088
2245.03435,0.00080
2243.10562,0.00082
2241.17690,0.00085
2239.24818,0.00086
2237.31945,0.00083
2235.39073,0.00075
2233.46200,0.00071
2231.53328,0.00070
2229.60456,0.00061
2227.67583,0.00050
2225.74711,0.00046
2223.81839,0.00045
2221.88966,0.00038
2219.96094,0.00032
2218.03221,0.00029
2216.10349,0.00024
2214.17477,0.00021
2212.24604,0.00022
2210.31732,0.00019
2208.38860,0.00010
2206.45987,0.00003
2204.53115,0.00007
2202.60243,0.00016
2200.67370,0.00022
2198.74498,0.00023
2196.81625,0.00019
2194.88753,0.00013
2192.95881,0.00012
2191.03008,0.00015
2189.10136,0.00019
2187.17264,0.00022
2185.24391,0.00029
2183.31519,0.00037
2181.38647,0.00037
2179.45774,0.00033
2177.52902,0.00032
2175.60029,0.00031
2173.67157,0.00028
2171.74285,0.00025
2169.81412,0.00026
2167.88540,0.00031
2165.95668,0.00040
2164.02795,0.00046
2162.09923,0.00043
2160.17050,0.00040
2158.24178,0.00045
2156.31306,0.00054
2154.38433,0.00057
2152.45561,0.00062
2150.52689,0.00073
2148.59816,0.00079
2146.66944,0.00075
2144.74072,0.00070
2142.81199,0.00071
2140.88327,0.00075
2138.95454,0.00071
2137.02582,0.00065
2135.09710,0.00068
2133.16837,0.00076
2131.23965,0.00077
2129.31093,0.00069
2127.38220,0.00059
2125.45348,0.00056
2123.52476,0.00057
2121.59603,0.00055
2119.66731,0.00053
2117.73858,0.00051
2115.80986,0.00043
2113.88114,0.00035
2111.95241,0.00032
2110.02369,0.00032
2108.09497,0.00036
2106.16624,0.00041
2104.23752,0.00042
2102.30880,0.00034
2100.38007,0.00027
2098.45135,0.00024
2096.52262,0.00015
2094.59390,0.00000
2092.66518,-0.00009
2090.73645,-0.00008
2088.80773,-0.00007
2086.87901,-0.00007
2084.95028,-0.00007
2083.02156,-0.00007
2081.09283,-0.00009
2079.16411,-0.00012
2077.23539,-0.00013
2075.30666,-0.00007
2073.37794,0.00003
2071.44922,0.00009
2069.52049,0.00007
2067.59177,-0.00000
2065.66305,-0.00005
2063.73432,-0.00002
2061.80560,0.00006
2059.87687,0.00012
2057.94815,0.00018
2056.01943,0.00029
2054.09070,0.00043
2052.16198,0.00058
2050.23326,0.00075
2048.30453,0.00088
2046.37581,0.00102
2044.44709,0.00118
2042.51836,0.00135
2040.58964,0.00153
2038.66091,0.00173
2036.73219,0.00196
2034.80347,0.00219
2032.87474,0.00238
2030.94602,0.00254
2029.01730,0.00273
2027.08857,0.00294
2025.15985,0.00310
2023.23112,0.00323
2021.30240,0.00335
2019.37368,0.00344
2017.44495,0.00355
2015.51623,0.00367
2013.58751,0.00377
2011.65878,0.00387
2009.73006,0.00395
2007.80134,0.00404
2005.87261,0.00413
2003.94389,0.00421
2002.01516,0.00422
2000.08644,0.00418
1998.15772,0.00418
1996.22899,0.00425
1994.30027,0.00432
1992.37155,0.00435
1990.44282,0.00426
1988.51410,0.00408
1986.58538,0.00393
1984.65665,0.00388
1982.72793,0.00386
1980.79920,0.00380
1978.87048,0.00373
1976.94176,0.00364
1975.01303,0.00347
1973.08431,0.00321
1971.15559,0.00302
1969.22686,0.00297
1967.29814,0.00293
1965.36941,0.00277
1963.44069,0.00256
1961.51197,0.00237
1959.58324,0.00218
1957.65452,0.00197
1955.72580,0.00174
1953.79707,0.00154
1951.86835,0.00137
1949.93963,0.00121
1948.01090,0.00107
1946.08218,0.00098
1944.15345,0.00087
1942.22473,0.00066
1940.29601,0.00041
1938.36728,0.00029
1936.43856,0.00031
1934.50984,0.00032
1932.58111,0.00024
1930.65239,0.00008
1928.72367,-0.00004
1926.79494,0.00000
1924.86622,0.00015
1922.93749,0.00035
1921.00877,0.00056
1919.08005,0.00080
1917.15132,0.00107
1915.22260,0.00132
1913.29388,0.00159
1911.36515,0.00191
1909.43643,0.00227
1907.50770,0.00267
1905.57898,0.00311
1903.65026,0.00360
1901.72153,0.00413
1899.79281,0.00468
1897.86409,0.00522
1895.93536,0.00570
1894.00664,0.00612
1892.07792,0.00652
1890.14919,0.00695
1888.22047,0.00738
1886.29174,0.00777
1884.36302,0.00806
1882.43430,0.00830
1880.50557,0.00850
1878.57685,0.00863
1876.64813,0.00871
1874.71940,0.00880
1872.79068,0.00893
1870.86196,0.00900
1868.93323,0.00888
1867.00451,0.00854
1865.07578,0.00813
1863.14706,0.00771
1861.21834,0.00724
1859.28961,0.00671
1857.36089,0.00615
1855.43217,0.00558
1853.50344,0.00503
1851.57472,0.00456
1849.64599,0.00415
1847.71727,0.00375
1845.78855,0.00329
1843.85982,0.00279
1841.93110,0.00233
1840.00238,0.00195
1838.07365,0.00153
1836.14493,0.00113
1834.21621,0.00085
1832.28748,0.00068
1830.35876,0.00050
1828.43003,0.00028
1826.50131,0.00013
1824.57259,0.00008
1822.64386,0.00003
1820.71514,-0.00002
1818.78642,-0.00007
1816.85769,-0.00009
1814.92897,0.00000
1813.00025,0.00012
1811.07152,0.00027
1809.14280,0.00039
1807.21407,0.00055
1805.28535,0.00085
1803.35663,0.00129
1801.42790,0.00183
1799.49918,0.00240
1797.57046,0.00291
1795.64173,0.00341
1793.71301,0.00406
1791.78428,0.00490
1789.85556,0.00574
1787.92684,0.00651
1785.99811,0.00730
1784.06939,0.00823
1782.14067,0.00928
1780.21194,0.01036
1778.28322,0.01139
1776.35450,0.01243
1774.42577,0.01359
1772.49705,0.01489
1770.56832,0.01615
1768.63960,0.01725
1766.71088,0.01822
1764.78215,0.01917
1762.85343,0.02031
1760.92471,0.02165
1758.99598,0.02300
1757.06726,0.02435
1755.13854,0.02576
1753.20981,0.02724
1751.28109,0.02894
1749.35236,0.03087
1747.42364,0.03279
1745.49492,0.03471
1743.56619,0.03675
1741.63747,0.03885
1739.70875,0.04091
1737.78002,0.04283
1735.85130,0.04485
1733.92257,0.04728
1731.99385,0.04965
1730.06513,0.05152
1728.13640,0.05322
1726.20768,0.05504
1724.27896,0.05705
1722.35023,0.05907
1720.42151,0.06090
1718.49279,0.06285
1716.56406,0.06516
1714.63534,0.06745
1712.70661,0.06945
1710.77789,0.07138
1708.84917,0.07349
1706.92044,0.07594
1704.99172,0.07853
1703.06300,0.08106
1701.13427,0.08389
1699.20555,0.08725
1697.27683,0.09077
1695.34810,0.09434
1693.41938,0.09757
1691.49065,0.10044
1689.56193,0.10339
1687.63321,0.10648
1685.70448,0.11001
1683.77576,0.11421
1681.84704,0.11798
1679.91831,0.12089
1677.98959,0.12362
1676.06087,0.12670
1674.13214,0.13003
1672.20342,0.13313
1670.27469,0.13611
1668.34597,0.13893
1666.41725,0.14123
1664.48852,0.14332
1662.55980,0.14553
1660.63108,0.14757
1658.70235,0.14917
1656.77363,0.15057
1654.84490,0.15216
1652.91618,0.15391
1650.98746,0.15512
1649.05873,0.15582
1647.13001,0.15644
1645.20129,0.15704
1643.27256,0.15757
1641.34384,0.15809
1639.41512,0.15854
1637.48639,0.15883
1635.55767,0.15891
1633.62894,0.15878
1631.70022,0.15845
1629.77150,0.15789
1627.84277,0.15714
1625.91405,0.15618
1623.98533,0.15486
1622.05660,0.15330
1620.12788,0.15187
1618.19916,0.15024
1616.27043,0.14793
1614.34171,0.14550
1612.41298,0.14340
1610.48426,0.14138
1608.55554,0.13925
1606.62681,0.13711
1604.69809,0.13496
1602.76937,0.13273
1600.84064,0.13047
1598.91192,0.12831
1596.98319,0.12626
1595.05447,0.12430
1593.12575,0.12244
1591.19702,0.12071
1589.26830,0.11903
1587.33958,0.11735
1585.41085,0.11573
1583.48213,0.11422
1581.55341,0.11282
1579.62468,0.11152
1577.69596,0.11013
1575.76723,0.10854
1573.83851,0.10716
1571.90979,0.10609
1569.98106,0.10495
1568.05234,0.10373
1566.12362,0.10277
1564.19489,0.10208
1562.26617,0.10149
1560.33745,0.10068
1558.40872,0.09941
1556.48000,0.09827
1554.55127,0.09753
1552.62255,0.09686
1550.69383,0.09604
1548.76510,0.09511
1546.83638,0.09424
1544.90766,0.09334
1542.97893,0.09209
1541.05021,0.09021
1539.12148,0.08801
1537.19276,0.08641
1535.26404,0.08518
1533.33531,0.08358
1531.40659,0.08173
1529.47787,0.08006
1527.54914,0.07843
1525.62042,0.07675
1523.69170,0.07496
1521.76297,0.07279
1519.83425,0.07043
1517.90552,0.06840
1515.97680,0.06654
1514.04808,0.06478
1512.11935,0.06324
1510.19063,0.06183
1508.26191,0.05974
1506.33318,0.05634
1504.40446,0.05314
1502.47574,0.05101
1500.54701,0.04922
1498.61829,0.04723
1496.68956,0.04519
1494.76084,0.04357
1492.83212,0.04258
1490.90339,0.04195
1488.97467,0.04139
1487.04595,0.04099
1485.11722,0.04092
1483.18850,0.04121
1481.25977,0.04189
1479.33105,0.04292
1477.40233,0.04434
1475.47360,0.04634
1473.54488,0.04922
1471.61616,0.05258
1469.68743,0.05537
1467.75871,0.05739
1465.82999,0.05897
1463.90126,0.06015
1461.97254,0.06095
1460.04381,0.06165
1458.11509,0.06245
1456.18637,0.06311
1454.25764,0.06341
1452.32892,0.06358
1450.40020,0.06382
1448.47147,0.06408
1446.54275,0.06424
1444.61403,0.06430
1442.68530,0.06440
1440.75658,0.06469
1438.82785,0.06525
1436.89913,0.06595
1434.97041,0.06644
1433.04168,0.06667
1431.11296,0.06690
1429.18424,0.06739
1427.25551,0.06812
1425.32679,0.06891
1423.39806,0.06964
1421.46934,0.07031
1419.54062,0.07101
1417.61189,0.07179
1415.68317,0.07258
1413.75445,0.07339
1411.82572,0.07421
1409.89700,0.07502
1407.96828,0.07586
1406.03955,0.07676
1404.11083,0.07758
1402.18210,0.07801
1400.25338,0.07779
1398.32466,0.07683
1396.39593,0.07524
1394.46721,0.07328
1392.53849,0.07136
1390.60976,0.06973
1388.68104,0.06830
1386.75232,0.06701
1384.82359,0.06592
1382.89487,0.06500
1380.96614,0.06407
1379.03742,0.06303
1377.10870,0.06194
1375.17997,0.06072
1373.25125,0.05934
1371.32253,0.05793
1369.39380,0.05663
1367.46508,0.05542
1365.53635,0.05425
1363.60763,0.05305
1361.67891,0.05184
1359.75018,0.05074
1357.82146,0.04977
1355.89274,0.04888
1353.96401,0.04803
1352.03529,0.04722
1350.10657,0.04646
1348.17784,0.04586
1346.24912,0.04545
1344.32039,0.04512
1342.39167,0.04476
1340.46295,0.04440
1338.53422,0.04414
1336.60550,0.04397
1334.67678,0.04380
1332.74805,0.04358
1330.81933,0.04337
1328.89061,0.04322
1326.96188,0.04321
1325.03316,0.04333
1323.10443,0.04350
1321.17571,0.04358
1319.24699,0.04355
1317.31826,0.04345
1315.38954,0.04328
1313.46082,0.04312
1311.53209,0.04297
1309.60337,0.04280
1307.67464,0.04259
1305.74592,0.04232
1303.81720,0.04204
1301.88847,0.04206
1299.95975,0.04266
1298.03103,0.04368
1296.10230,0.04479
1294.17358,0.04602
1292.24486,0.04762
1290.31613,0.04965
1288.38741,0.05205
1286.45868,0.05474
1284.52996,0.05768
1282.60124,0.06077
1280.67251,0.06386
1278.74379,0.06706
1276.81507,0.07060
1274.88634,0.07452
1272.95762,0.07878
1271.02890,0.08331
1269.10017,0.08808
1267.17145,0.09321
1265.24272,0.09892
1263.31400,0.10542
1261.38528,0.11285
1259.45655,0.12111
1257.52783,0.12990
1255.59911,0.13901
1253.67038,0.14834
1251.74166,0.15772
1249.81294,0.16694
1247.88421,0.17562
1245.95549,0.18359
1244.02676,0.19098
1242.09804,0.19778
1240.16932,0.20379
1238.24059,0.20907
1236.31187,0.21376
1234.38315,0.21784
1232.45442,0.22143
1230.52570,0.22504
1228.59697,0.22879
1226.66825,0.23221
1224.73953,0.23487
1222.81080,0.23686
1220.88208,0.23871
1218.95336,0.24083
1217.02463,0.24311
1215.09591,0.24522
1213.16719,0.24708
1211.23846,0.24891
1209.30974,0.25071
1207.38101,0.25238
1205.45229,0.25403
1203.52357,0.25562
1201.59484,0.25706
1199.66612,0.25833
1197.73740,0.25920
1195.80867,0.25950
1193.87995,0.25979
1191.95123,0.26066
1190.02250,0.26232
1188.09378,0.26444
1186.16505,0.26631
1184.23633,0.26793
1182.30761,0.26990
1180.37888,0.27235
1178.45016,0.27491
1176.52144,0.27726
1174.59271,0.27942
1172.66399,0.28148
1170.73526,0.28353
1168.80654,0.28552
1166.87782,0.28741
1164.94909,0.28926
1163.02037,0.29102
1161.09165,0.29250
1159.16292,0.29404
1157.23420,0.29607
1155.30548,0.29827
1153.37675,0.30005
1151.44803,0.30119
1149.51930,0.30169
1147.59058,0.30207
1145.66186,0.30313
1143.73313,0.30500
1141.80441,0.30714
1139.87569,0.30897
1137.94696,0.31022
1136.01824,0.31125
1134.08952,0.31262
1132.16079,0.31448
1130.23207,0.31678
1128.30334,0.31926
1126.37462,0.32164
1124.44590,0.32420
1122.51717,0.32722
1120.58845,0.33054
1118.65973,0.33396
1116.73100,0.33761
1114.80228,0.34177
1112.87355,0.34679
1110.94483,0.35274
1109.01611,0.35905
1107.08738,0.36503
1105.15866,0.37056
1103.22994,0.37600
1101.30121,0.38123
1099.37249,0.38580
1097.44377,0.38955
1095.51504,0.39261
1093.58632,0.39508
1091.65759,0.39715
1089.72887,0.39882
1087.80015,0.39961
1085.87142,0.39929
1083.94270,0.39803
1082.01398,0.39631
1080.08525,0.39469
1078.15653,0.39344
1076.22781,0.39249
1074.29908,0.39104
1072.37036,0.38836
1070.44163,0.38464
1068.51291,0.38077
1066.58419,0.37751
1064.65546,0.37440
1062.72674,0.37081
1060.79802,0.36669
1058.86929,0.36203
1056.94057,0.35698
1055.01184,0.35187
1053.08312,0.34672
1051.15440,0.34126
1049.22567,0.33558
1047.29695,0.33003
1045.36823,0.32445
1043.43950,0.31826
1041.51078,0.31160
1039.58206,0.30512
1037.65333,0.29902
1035.72461,0.29307
1033.79588,0.28723
1031.86716,0.28143
1029.93844,0.27524
1028.00971,0.26878
1026.08099,0.26276
1024.15227,0.25745
1022.22354,0.25255
1020.29482,0.24785
1018.36610,0.24333
1016.43737,0.23891
1014.50865,0.23432
1012.57992,0.22984
1010.65120,0.22611
1008.72248,0.22314
1006.79375,0.22029
1004.86503,0.21712
1002.93631,0.21392
1001.00758,0.21120
999.07886,0.20884
997.15013,0.20658
995.22141,0.20455
993.29269,0.20268
991.36396,0.20063
989.43524,0.19851
987.50652,0.19667
985.57779,0.19528
983.64907,0.19457
981.72035,0.19434
979.79162,0.19391
977.86290,0.19321
975.93417,0.19257
974.00545,0.19228
972.07673,0.19235
970.14800,0.19218
968.21928,0.19179
966.29056,0.19176
964.36183,0.19199
962.43311,0.19206
960.50439,0.19170
958.57566,0.19102
956.64694,0.19042
954.71821,0.18976
952.78949,0.18869
950.86077,0.18744
948.93204,0.18645
947.00332,0.18547
945.07460,0.18396
943.14587,0.18201
941.21715,0.18007
939.28842,0.17813
937.35970,0.17607
935.43098,0.17397
933.50225,0.17174
931.57353,0.16929
929.64481,0.16671
927.71608,0.16416
925.78736,0.16150
923.85864,0.15832
921.92991,0.15480
920.00119,0.15165
918.07246,0.14909
916.14374,0.14630
914.21502,0.14274
912.28629,0.13894
910.35757,0.13532
908.42885,0.13176
906.50012,0.12838
904.57140,0.12521
902.64268,0.12214
900.71395,0.11940
898.78523,0.11693
896.85650,0.11412
894.92778,0.11093
892.99906,0.10789
891.07033,0.10504
889.14161,0.10213
887.21289,0.09943
885.28416,0.09698
883.35544,0.09438
881.42671,0.09178
879.49799,0.08958
877.56927,0.08764
875.64054,0.08572
873.71182,0.08404
871.78310,0.08278
869.85437,0.08162
867.92565,0.08002
865.99693,0.07811
864.06820,0.07656
862.13948,0.07549
860.21075,0.07429
858.28203,0.07266
856.35331,0.07121
854.42458,0.07056
852.49586,0.07048
850.56714,0.07053
848.63841,0.07061
846.70969,0.07077
844.78097,0.07101
842.85224,0.07164
840.92352,0.07312
838.99479,0.07554
837.06607,0.07845
835.13735,0.08114
833.20862,0.08349
831.27990,0.08603
829.35118,0.08882
827.42245,0.09165
825.49373,0.09461
823.56501,0.09758
821.63628,0.10051
819.70756,0.10339
817.77883,0.10598
815.85011,0.10830
813.92139,0.11047
811.99266,0.11250
810.06394,0.11454
808.13522,0.11657
806.20649,0.11861
804.27777,0.12054
802.34904,0.12203
800.42032,0.12286
798.49160,0.12298
796.56287,0.12246
794.63415,0.12164
792.70543,0.12075
790.77670,0.11969
788.84798,0.11848
786.91926,0.11685
784.99053,0.11455
783.06181,0.11198
781.13308,0.10923
779.20436,0.10616
777.27564,0.10304
775.34691,0.09997
773.41819,0.09666
771.48947,0.09345
769.56074,0.09101
767.63202,0.08955
765.70330,0.08881
763.77457,0.08831
761.84585,0.08769
759.91712,0.08707
757.98840,0.08657
756.05968,0.08632
754.13095,0.08637
752.20223,0.08645
750.27351,0.08637
748.34478,0.08630
746.41606,0.08634
744.48733,0.08623
742.55861,0.08588
740.62989,0.08532
738.70116,0.08470
736.77244,0.08454
734.84372,0.08509
732.91499,0.08577
730.98627,0.08588
729.05755,0.08568
727.12882,0.08587
725.20010,0.08632
723.27137,0.08658
721.34265,0.08658
719.41393,0.08683
717.48520,0.08768
715.55648,0.08850
713.62776,0.08886
711.69903,0.08927
709.77031,0.09016
707.84159,0.09118
705.91286,0.09199
703.98414,0.09285
702.05541,0.09394
700.12669,0.09484
698.19797,0.09530
696.26924,0.09561
694.34052,0.09596
692.41180,0.09625
690.48307,0.09643
688.55435,0.09658
686.62562,0.09674
684.69690,0.09694
682.76818,0.09743
680.83945,0.09840
678.91073,0.09938
676.98201,0.09978
675.05328,0.09967
673.12456,0.09932
671.19584,0.09889
669.26711,0.09856
667.33839,0.09840
665.40966,0.09837
663.48094,0.09854
661.55222,0.09919
659.62349,0.10023
657.69477,0.10111
655.76605,0.10177
653.83732,0.10260
651.90860,0.10367
649.97988,0.10461
648.05115,0.10555
646.12243,0.10705
644.19370,0.10878
642.26498,0.10997
640.33626,0.11076
638.40753,0.11177
636.47881,0.11292
634.55009,0.11379
632.62136,0.11439
630.69264,0.11495
628.76391,0.11525
626.83519,0.11519
624.90647,0.11574
622.97774,0.11697
621.04902,0.11806
619.12030,0.11934
617.19157,0.12093
615.26285,0.12199
613.33413,0.12243
611.40540,0.12298
609.47668,0.12413
607.54795,0.12564
605.61923,0.12697
603.69051,0.12795
601.76178,0.12880
599.83306,0.13002
597.90434,0.13160
595.97561,0.13287
594.04689,0.13385
592.11817,0.13509
590.18944,0.13649
588.26072,0.13743
586.33199,0.13774
584.40327,0.13786
582.47455,0.13814
580.54582,0.13855
578.61710,0.13925
576.68838,0.14008
574.75965,0.14073
572.83093,0.14160
570.90220,0.14249
568.97348,0.14250
567.04476,0.14207
565.11603,0.14253
563.18731,0.14346
561.25859,0.14367
559.32986,0.14368
557.40114,0.14401
555.47242,0.14385
553.54369,0.14346
551.61497,0.14398
549.68624,0.14474
547.75752,0.14462
545.82880,0.14455
543.90007,0.14555
541.97135,0.14684
540.04263,0.14742
538.11390,0.14722
536.18518,0.14645
534.25646,0.14540
532.32773,0.14422
530.39901,0.14292
528.47028,0.14148
526.54156,0.14062
524.61284,0.14160
522.68411,0.14399
520.75539,0.14499
518.82667,0.14273
516.89794,0.13964
514.96922,0.13929
513.04049,0.14164
511.11177,0.14510
509.18305,0.14929
507.25432,0.15431
505.32560,0.15913
503.39688,0.16247
501.46815,0.16476
499.53943,0.16800
497.61071,0.17372
495.68198,0.18116
493.75326,0.18825
491.82453,0.19406
489.89581,0.19864
487.96709,0.20230
486.03836,0.20582
484.10964,0.21035
482.18092,0.21661
480.25219,0.22428
478.32347,0.23187
476.39475,0.23768
474.46602,0.24274
472.53730,0.24927
470.60857,0.25513
468.67985,0.25783
466.75113,0.25927
464.82240,0.26013
462.89368,0.25967
460.96496,0.25963
459.03623,0.25936
457.10751,0.25375
455.17878,0.24393
453.25006,0.23832
451.32134,0.23901
449.39261,0.23914
447.46389,0.23272
445.53517,0.22126
443.60644,0.21029
441.67772,0.20283
439.74900,0.19870
437.82027,0.19718
435.89155,0.19761
433.96282,0.19832
432.03410,0.19669
430.10538,0.19171
428.17665,0.18421
426.24793,0.17533
424.31921,0.16776
422.39048,0.16352
420.46176,0.15978
418.53304,0.15303
416.60431,0.14496
414.67559,0.13887
412.74686,0.13539
410.81814,0.13281
408.88942,0.12990
406.96069,0.12791
405.03197,0.12669
403.10325,0.12387
401.17452,0.11982
399.24580,0.12002
397.31708,0.12870
395.38835,0.13404
393.45963,0.12506
391.53090,0.11222
389.60218,0.10565
387.67346,0.10490
385.74473,0.10833
383.81601,0.10446
381.88729,0.07959
379.95856,0.05660
378.02984,0.07413
376.10111,0.12413
374.17239,0.13397
372.24367,0.07624
370.31494,0.01984
368.38622,0.00000
