3996.31543,0.00014
3994.38671,0.00018
3992.45799,0.00016
3990.52926,0.00017
3988.60054,0.00022
3986.67182,0.00019
3984.74309,0.00009
3982.81437,0.00004
3980.88564,0.00001
3978.95692,0.00000
3977.02820,0.00011
3975.09947,0.00031
3973.17075,0.00051
3971.24203,0.00072
3969.31330,0.00084
3967.38458,0.00080
3965.45586,0.00073
3963.52713,0.00072
3961.59841,0.00071
3959.66968,0.00067
3957.74096,0.00069
3955.81224,0.00075
3953.88351,0.00075
3951.95479,0.00065
3950.02607,0.00050
3948.09734,0.00042
3946.16862,0.00057
3944.23990,0.00080
3942.31117,0.00092
3940.38245,0.00100
3938.45372,0.00107
3936.52500,0.00106
3934.59628,0.00096
3932.66755,0.00083
3930.73883,0.00070
3928.81011,0.00067
3926.88138,0.00069
3924.95266,0.00067
3923.02393,0.00075
3921.09521,0.00096
3919.16649,0.00099
3917.23776,0.00080
3915.30904,0.00080
3913.38032,0.00097
3911.45159,0.00100
3909.52287,0.00098
3907.59415,0.00112
3905.66542,0.00126
3903.73670,0.00114
3901.80797,0.00093
3899.87925,0.00084
3897.95053,0.00096
3896.02180,0.00134
3894.09308,0.00170
3892.16436,0.00158
3890.23563,0.00123
3888.30691,0.00121
3886.37819,0.00116
3884.44946,0.00089
3882.52074,0.00091
3880.59201,0.00107
3878.66329,0.00118
3876.73457,0.00144
3874.80584,0.00165
3872.87712,0.00159
3870.94840,0.00135
3869.01967,0.00106
3867.09095,0.00106
3865.16222,0.00110
3863.23350,0.00083
3861.30478,0.00064
3859.37605,0.00097
3857.44733,0.00181
3855.51861,0.00244
3853.58988,0.00172
3851.66116,0.00028
3849.73244,0.00000
3847.80371,0.00067
3845.87499,0.00138
3843.94626,0.00177
3842.01754,0.00191
3840.08882,0.00179
3838.16009,0.00130
3836.23137,0.00078
3834.30265,0.00071
3832.37392,0.00094
3830.44520,0.00123
3828.51648,0.00155
3826.58775,0.00182
3824.65903,0.00207
3822.73030,0.00211
3820.80158,0.00178
3818.87286,0.00163
3816.94413,0.00173
3815.01541,0.00166
3813.08669,0.00184
3811.15796,0.00255
3809.22924,0.00324
3807.30052,0.00341
3805.37179,0.00335
3803.44307,0.00335
3801.51434,0.00298
3799.58562,0.00253
3797.65690,0.00261
3795.72817,0.00283
3793.79945,0.00301
3791.87073,0.00328
3789.94200,0.00357
3788.01328,0.00386
3786.08455,0.00415
3784.15583,0.00434
3782.22711,0.00444
3780.29838,0.00441
3778.36966,0.00439
3776.44094,0.00474
3774.51221,0.00542
3772.58349,0.00607
3770.65477,0.00642
3768.72604,0.00646
3766.79732,0.00648
3764.86859,0.00681
3762.93987,0.00764
3761.01115,0.00856
3759.08242,0.00895
3757.15370,0.00908
3755.22498,0.00969
3753.29625,0.01064
3751.36753,0.01120
3749.43881,0.01150
3747.51008,0.01239
3745.58136,0.01352
3743.65263,0.01413
3741.72391,0.01478
3739.79519,0.01604
3737.86646,0.01746
3735.93774,0.01853
3734.00902,0.01942
3732.08029,0.02071
3730.15157,0.02250
3728.22284,0.02439
3726.29412,0.02609
3724.36540,0.02774
3722.43667,0.02966
3720.50795,0.03184
3718.57923,0.03428
3716.65050,0.03699
3714.72178,0.03988
3712.79306,0.04286
3710.86433,0.04598
3708.93561,0.04926
3707.00688,0.05263
3705.07816,0.05604
3703.14944,0.05953
3701.22071,0.06307
3699.29199,0.06659
3697.36327,0.07008
3695.43454,0.07356
3693.50582,0.07695
3691.57710,0.08023
3689.64837,0.08364
3687.71965,0.08750
3685.79092,0.09169
3683.86220,0.09597
3681.93348,0.10031
3680.00475,0.10458
3678.07603,0.10880
3676.14731,0.11319
3674.21858,0.11764
3672.28986,0.12193
3670.36113,0.12645
3668.43241,0.13114
3666.50369,0.13539
3664.57496,0.13927
3662.64624,0.14313
3660.71752,0.14697
3658.78879,0.15061
3656.86007,0.15418
3654.93135,0.15784
3653.00262,0.16147
3651.07390,0.16481
3649.14517,0.16775
3647.21645,0.17066
3645.28773,0.17385
3643.35900,0.17709
3641.43028,0.18020
3639.50156,0.18323
3637.57283,0.18627
3635.64411,0.18926
3633.71539,0.19198
3631.78666,0.19441
3629.85794,0.19688
3627.92921,0.19952
3626.00049,0.20199
3624.07177,0.20415
3622.14304,0.20617
3620.21432,0.20812
3618.28560,0.20989
3616.35687,0.21153
3614.42815,0.21324
3612.49942,0.21504
3610.57070,0.21681
3608.64198,0.21848
3606.71325,0.22019
3604.78453,0.22198
3602.85581,0.22376
3600.92708,0.22547
3598.99836,0.22715
3597.06964,0.22880
3595.14091,0.23041
3593.21219,0.23200
3591.28346,0.23357
3589.35474,0.23503
3587.42602,0.23653
3585.49729,0.23835
3583.56857,0.24022
3581.63985,0.24164
3579.71112,0.24264
3577.78240,0.24363
3575.85368,0.24483
3573.92495,0.24620
3571.99623,0.24775
3570.06750,0.24924
3568.13878,0.25038
3566.21006,0.25144
3564.28133,0.25300
3562.35261,0.25483
3560.42389,0.25635
3558.49516,0.25749
3556.56644,0.25857
3554.63771,0.25977
3552.70899,0.26103
3550.78027,0.26214
3548.85154,0.26318
3546.92282,0.26437
3544.99410,0.26566
3543.06537,0.26678
3541.13665,0.26774
3539.20793,0.26875
3537.27920,0.26986
3535.35048,0.27098
3533.42175,0.27199
3531.49303,0.27284
3529.56431,0.27365
3527.63558,0.27454
3525.70686,0.27555
3523.77814,0.27677
3521.84941,0.27807
3519.92069,0.27905
3517.99197,0.27962
3516.06324,0.28015
3514.13452,0.28088
3512.20579,0.28174
3510.27707,0.28276
3508.34835,0.28405
3506.41962,0.28526
3504.49090,0.28594
3502.56218,0.28627
3500.63345,0.28684
3498.70473,0.28781
3496.77600,0.28889
3494.84728,0.28986
3492.91856,0.29072
3490.98983,0.29162
3489.06111,0.29254
3487.13239,0.29321
3485.20366,0.29371
3483.27494,0.29439
3481.34622,0.29513
3479.41749,0.29571
3477.48877,0.29626
3475.56004,0.29692
3473.63132,0.29760
3471.70260,0.29831
3469.77387,0.29901
3467.84515,0.29953
3465.91643,0.29991
3463.98770,0.30038
3462.05898,0.30096
3460.13026,0.30152
3458.20153,0.30204
3456.27281,0.30255
3454.34408,0.30305
3452.41536,0.30351
3450.48664,0.30394
3448.55791,0.30428
3446.62919,0.30460
3444.70047,0.30505
3442.77174,0.30552
3440.84302,0.30581
3438.91429,0.30593
3436.98557,0.30616
3435.05685,0.30665
3433.12812,0.30733
3431.19940,0.30792
3429.27068,0.30821
3427.34195,0.30835
3425.41323,0.30865
3423.48451,0.30904
3421.55578,0.30920
3419.62706,0.30911
3417.69833,0.30901
3415.76961,0.30890
3413.84089,0.30877
3411.91216,0.30894
3409.98344,0.30947
3408.05472,0.30995
3406.12599,0.31016
3404.19727,0.31019
3402.26855,0.30999
3400.33982,0.30963
3398.41110,0.30948
3396.48237,0.30957
3394.55365,0.30952
3392.62493,0.30919
3390.69620,0.30891
3388.76748,0.30899
3386.83876,0.30921
3384.91003,0.30903
3382.98131,0.30847
3381.05259,0.30799
3379.12386,0.30780
3377.19514,0.30779
3375.26641,0.30790
3373.33769,0.30800
3371.40897,0.30794
3369.48024,0.30779
3367.55152,0.30748
3365.62280,0.30693
3363.69407,0.30627
3361.76535,0.30587
3359.83662,0.30578
3357.90790,0.30564
3355.97918,0.30517
3354.05045,0.30449
3352.12173,0.30403
3350.19301,0.30381
3348.26428,0.30345
3346.33556,0.30288
3344.40684,0.30236
3342.47811,0.30201
3340.54939,0.30174
3338.62066,0.30151
3336.69194,0.30121
3334.76322,0.30076
3332.83449,0.30028
3330.90577,0.29984
3328.97705,0.29943
3327.04832,0.29904
3325.11960,0.29856
3323.19088,0.29794
3321.26215,0.29737
3319.33343,0.29696
3317.40470,0.29663
3315.47598,0.29625
3313.54726,0.29575
3311.61853,0.29517
3309.68981,0.29457
3307.76109,0.29401
3305.83236,0.29351
3303.90364,0.29312
3301.97491,0.29295
3300.04619,0.29280
3298.11747,0.29243
3296.18874,0.29208
3294.26002,0.29191
3292.33130,0.29161
3290.40257,0.29101
3288.47385,0.29037
3286.54513,0.28988
3284.61640,0.28933
3282.68768,0.28859
3280.75895,0.28793
3278.83023,0.28760
3276.90151,0.28742
3274.97278,0.28708
3273.04406,0.28655
3271.11534,0.28602
3269.18661,0.28559
3267.25789,0.28516
3265.32917,0.28469
3263.40044,0.28428
3261.47172,0.28385
3259.54299,0.28334
3257.61427,0.28273
3255.68555,0.28209
3253.75682,0.28157
3251.82810,0.28117
3249.89938,0.28066
3247.97065,0.27995
3246.04193,0.27919
3244.11320,0.27843
3242.18448,0.27768
3240.25576,0.27713
3238.32703,0.27672
3236.39831,0.27618
3234.46959,0.27546
3232.54086,0.27475
3230.61214,0.27402
3228.68342,0.27320
3226.75469,0.27240
3224.82597,0.27180
3222.89724,0.27135
3220.96852,0.27073
3219.03980,0.26976
3217.11107,0.26886
3215.18235,0.26822
3213.25363,0.26751
3211.32490,0.26655
3209.39618,0.26561
3207.46746,0.26491
3205.53873,0.26435
3203.61001,0.26370
3201.68128,0.26282
3199.75256,0.26173
3197.82384,0.26062
3195.89511,0.25974
3193.96639,0.25903
3192.03767,0.25820
3190.10894,0.25720
3188.18022,0.25619
3186.25149,0.25524
3184.32277,0.25436
3182.39405,0.25351
3180.46532,0.25256
3178.53660,0.25146
3176.60788,0.25037
3174.67915,0.24943
3172.75043,0.24862
3170.82171,0.24776
3168.89298,0.24675
3166.96426,0.24566
3165.03553,0.24467
3163.10681,0.24375
3161.17809,0.24269
3159.24936,0.24155
3157.32064,0.24058
3155.39192,0.23975
3153.46319,0.23886
3151.53447,0.23785
3149.60575,0.23675
3147.67702,0.23553
3145.74830,0.23431
3143.81957,0.23329
3141.89085,0.23237
3139.96213,0.23139
3138.03340,0.23052
3136.10468,0.22969
3134.17596,0.22866
3132.24723,0.22753
3130.31851,0.22653
3128.38978,0.22565
3126.46106,0.22478
3124.53234,0.22394
3122.60361,0.22308
3120.67489,0.22213
3118.74617,0.22099
3116.81744,0.21973
3114.88872,0.21852
3112.96000,0.21740
3111.03127,0.21634
3109.10255,0.21537
3107.17382,0.21442
3105.24510,0.21341
3103.31638,0.21229
3101.38765,0.21106
3099.45893,0.20976
3097.53021,0.20855
3095.60148,0.20749
3093.67276,0.20655
3091.74404,0.20556
3089.81531,0.20441
3087.88659,0.20317
3085.95786,0.20194
3084.02914,0.20078
3082.10042,0.19967
3080.17169,0.19856
3078.24297,0.19747
3076.31425,0.19642
3074.38552,0.19538
3072.45680,0.19433
3070.52807,0.19326
3068.59935,0.19215
3066.67063,0.19096
3064.74190,0.18973
3062.81318,0.18850
3060.88446,0.18728
3058.95573,0.18606
3057.02701,0.18490
3055.09829,0.18387
3053.16956,0.18290
3051.24084,0.18190
3049.31211,0.18083
3047.38339,0.17973
3045.45467,0.17867
3043.52594,0.17768
3041.59722,0.17664
3039.66850,0.17547
3037.73977,0.17421
3035.81105,0.17299
3033.88233,0.17186
3031.95360,0.17080
3030.02488,0.16986
3028.09615,0.16905
3026.16743,0.16818
3024.23871,0.16721
3022.30998,0.16630
3020.38126,0.16549
3018.45254,0.16461
3016.52381,0.16362
3014.59509,0.16265
3012.66636,0.16179
3010.73764,0.16094
3008.80892,0.15999
3006.88019,0.15905
3004.95147,0.15823
3003.02275,0.15758
3001.09402,0.15699
2999.16530,0.15638
2997.23658,0.15580
2995.30785,0.15517
2993.37913,0.15435
2991.45040,0.15356
2989.52168,0.15304
2987.59296,0.15272
2985.66423,0.15236
2983.73551,0.15200
2981.80679,0.15178
2979.87806,0.15163
2977.94934,0.15137
2976.02062,0.15108
2974.09189,0.15102
2972.16317,0.15110
2970.23444,0.15115
2968.30572,0.15119
2966.37700,0.15126
2964.44827,0.15125
2962.51955,0.15103
2960.59083,0.15066
2958.66210,0.15031
2956.73338,0.15001
2954.80466,0.14954
2952.87593,0.14879
2950.94721,0.14806
2949.01848,0.14759
2947.08976,0.14738
2945.16104,0.14737
2943.23231,0.14751
2941.30359,0.14788
2939.37487,0.14842
2937.44614,0.14900
2935.51742,0.14953
2933.58869,0.15000
2931.65997,0.15043
2929.73125,0.15076
2927.80252,0.15077
2925.87380,0.15035
2923.94508,0.14949
2922.01635,0.14810
2920.08763,0.14614
2918.15891,0.14382
2916.23018,0.14134
2914.30146,0.13880
2912.37273,0.13636
2910.44401,0.13409
2908.51529,0.13208
2906.58656,0.13036
2904.65784,0.12874
2902.72912,0.12705
2900.80039,0.12534
2898.87167,0.12380
2896.94295,0.12254
2895.01422,0.12129
2893.08550,0.11991
2891.15677,0.11856
2889.22805,0.11730
2887.29933,0.11610
2885.37060,0.11508
2883.44188,0.11425
2881.51316,0.11346
2879.58443,0.11273
2877.65571,0.11209
2875.72698,0.11146
2873.79826,0.11080
2871.86954,0.11008
2869.94081,0.10930
2868.01209,0.10854
2866.08337,0.10799
2864.15464,0.10767
2862.22592,0.10754
2860.29720,0.10764
2858.36847,0.10799
2856.43975,0.10852
2854.51102,0.10876
2852.58230,0.10823
2850.65358,0.10668
2848.72485,0.10419
2846.79613,0.10117
2844.86741,0.09812
2842.93868,0.09535
2841.00996,0.09298
2839.08124,0.09097
2837.15251,0.08918
2835.22379,0.08754
2833.29506,0.08614
2831.36634,0.08496
2829.43762,0.08384
2827.50889,0.08270
2825.58017,0.08165
2823.65145,0.08068
2821.72272,0.07966
2819.79400,0.07865
2817.86527,0.07779
2815.93655,0.07701
2814.00783,0.07618
2812.07910,0.07531
2810.15038,0.07451
2808.22166,0.07381
2806.29293,0.07317
2804.36421,0.07246
2802.43549,0.07164
2800.50676,0.07085
2798.57804,0.07012
2796.64931,0.06937
2794.72059,0.06862
2792.79187,0.06798
2790.86314,0.06738
2788.93442,0.06676
2787.00570,0.06615
2785.07697,0.06552
2783.14825,0.06480
2781.21953,0.06401
2779.29080,0.06329
2777.36208,0.06266
2775.43335,0.06210
2773.50463,0.06152
2771.57591,0.06086
2769.64718,0.06020
2767.71846,0.05967
2765.78974,0.05916
2763.86101,0.05856
2761.93229,0.05797
2760.00356,0.05739
2758.07484,0.05677
2756.14612,0.05613
2754.21739,0.05546
2752.28867,0.05478
2750.35995,0.05411
2748.43122,0.05359
2746.50250,0.05319
2744.57378,0.05275
2742.64505,0.05217
2740.71633,0.05160
2738.78760,0.05108
2736.85888,0.05059
2734.93016,0.05015
2733.00143,0.04959
2731.07271,0.04890
2729.14399,0.04825
2727.21526,0.04777
2725.28654,0.04740
2723.35782,0.04696
2721.42909,0.04633
2719.50037,0.04564
2717.57164,0.04504
2715.64292,0.04458
2713.71420,0.04411
2711.78547,0.04351
2709.85675,0.04295
2707.92803,0.04251
2705.99930,0.04207
2704.07058,0.04158
2702.14185,0.04107
2700.21313,0.04060
2698.28441,0.04013
2696.35568,0.03962
2694.42696,0.03917
2692.49824,0.03872
2690.56951,0.03817
2688.64079,0.03758
2686.71207,0.03711
2684.78334,0.03671
2682.85462,0.03628
2680.92589,0.03588
2678.99717,0.03549
2677.06845,0.03504
2675.13972,0.03458
2673.21100,0.03419
2671.28228,0.03376
2669.35355,0.03328
2667.42483,0.03281
2665.49611,0.03238
2663.56738,0.03198
2661.63866,0.03163
2659.70993,0.03128
2657.78121,0.03091
2655.85249,0.03048
2653.92376,0.03003
2651.99504,0.02954
2650.06632,0.02902
2648.13759,0.02861
2646.20887,0.02831
2644.28014,0.02795
2642.35142,0.02749
2640.42270,0.02711
2638.49397,0.02678
2636.56525,0.02641
2634.63653,0.02607
2632.70780,0.02579
2630.77908,0.02548
2628.85036,0.02508
2626.92163,0.02467
2624.99291,0.02432
2623.06418,0.02398
2621.13546,0.02358
2619.20674,0.02316
2617.27801,0.02279
2615.34929,0.02252
2613.42057,0.02230
2611.49184,0.02200
2609.56312,0.02157
2607.63440,0.02109
2605.70567,0.02067
2603.77695,0.02030
2601.84822,0.01994
2599.91950,0.01968
2597.99078,0.01948
2596.06205,0.01925
2594.13333,0.01900
2592.20461,0.01880
2590.27588,0.01851
2588.34716,0.01815
2586.41843,0.01782
2584.48971,0.01747
2582.56099,0.01712
2580.63226,0.01682
2578.70354,0.01662
2576.77482,0.01643
2574.84609,0.01615
2572.91737,0.01585
2570.98865,0.01558
2569.05992,0.01534
2567.13120,0.01506
2565.20247,0.01478
2563.27375,0.01464
2561.34503,0.01458
2559.41630,0.01445
2557.48758,0.01419
2555.55886,0.01385
2553.63013,0.01351
2551.70141,0.01330
2549.77269,0.01320
2547.84396,0.01317
2545.91524,0.01310
2543.98651,0.01288
2542.05779,0.01256
2540.12907,0.01230
2538.20034,0.01216
2536.27162,0.01209
2534.34290,0.01196
2532.41417,0.01166
2530.48545,0.01128
2528.55673,0.01105
2526.62800,0.01101
2524.69928,0.01098
2522.77055,0.01083
2520.84183,0.01056
2518.91311,0.01033
2516.98438,0.01022
2515.05566,0.01012
2513.12694,0.00997
2511.19821,0.00978
2509.26949,0.00951
2507.34076,0.00925
2505.41204,0.00908
2503.48332,0.00895
2501.55459,0.00876
2499.62587,0.00854
2497.69715,0.00840
2495.76842,0.00834
2493.83970,0.00826
2491.91098,0.00811
2489.98225,0.00790
2488.05353,0.00766
2486.12480,0.00744
2484.19608,0.00730
2482.26736,0.00724
2480.33863,0.00720
2478.40991,0.00708
2476.48119,0.00689
2474.55246,0.00671
2472.62374,0.00655
2470.69502,0.00638
2468.76629,0.00618
2466.83757,0.00594
2464.90884,0.00577
2462.98012,0.00569
2461.05140,0.00567
2459.12267,0.00567
2457.19395,0.00556
2455.26523,0.00531
2453.33650,0.00510
2451.40778,0.00502
2449.47905,0.00495
2447.55033,0.00480
2445.62161,0.00462
2443.69288,0.00444
2441.76416,0.00429
2439.83544,0.00418
2437.90671,0.00409
2435.97799,0.00402
2434.04927,0.00394
2432.12054,0.00385
2430.19182,0.00379
2428.26309,0.00374
2426.33437,0.00365
2424.40565,0.00350
2422.47692,0.00332
2420.54820,0.00319
2418.61948,0.00311
2416.69075,0.00303
2414.76203,0.00295
2412.83331,0.00287
2410.90458,0.00275
2408.97586,0.00254
2407.04713,0.00240
2405.11841,0.00238
2403.18969,0.00234
2401.26096,0.00221
2399.33224,0.00209
2397.40352,0.00199
2395.47479,0.00187
2393.54607,0.00174
2391.61734,0.00163
2389.68862,0.00160
2387.75990,0.00165
2385.83117,0.00171
2383.90245,0.00172
2381.97373,0.00176
2380.04500,0.00189
2378.11628,0.00202
2376.18756,0.00207
2374.25883,0.00207
2372.33011,0.00206
2370.40138,0.00205
2368.47266,0.00198
2366.54394,0.00177
2364.61521,0.00150
2362.68649,0.00130
2360.75777,0.00124
2358.82904,0.00129
2356.90032,0.00131
2354.97160,0.00117
2353.04287,0.00092
2351.11415,0.00084
2349.18542,0.00109
2347.25670,0.00146
2345.32798,0.00159
2343.39925,0.00141
2341.47053,0.00117
2339.54181,0.00104
2337.61308,0.00104
2335.68436,0.00109
2333.75563,0.00110
2331.82691,0.00108
2329.89819,0.00106
2327.96946,0.00104
2326.04074,0.00100
2324.11202,0.00085
2322.18329,0.00063
2320.25457,0.00050
2318.32585,0.00052
2316.39712,0.00057
2314.46840,0.00058
2312.53967,0.00055
2310.61095,0.00049
2308.68223,0.00040
2306.75350,0.00034
2304.82478,0.00034
2302.89606,0.00035
2300.96733,0.00033
2299.03861,0.00033
2297.10989,0.00032
2295.18116,0.00026
2293.25244,0.00022
2291.32371,0.00023
2289.39499,0.00017
2287.46627,0.00003
2285.53754,-0.00008
2283.60882,-0.00008
2281.68010,0.00001
2279.75137,0.00006
2277.82265,0.00005
2275.89392,0.00004
2273.96520,0.00003
2272.03648,-0.00002
2270.10775,-0.00007
2268.17903,-0.00004
2266.25031,0.00001
2264.32158,0.00004
2262.39286,0.00005
2260.46414,0.00005
2258.53541,0.00008
2256.60669,0.00011
2254.67796,0.00012
2252.74924,0.00010
2250.82052,0.00004
2248.89179,-0.00005
2246.96307,-0.00012
2245.03435,-0.00011
2243.10562,-0.00001
2241.17690,0.00005
2239.24818,0.00003
2237.31945,0.00002
2235.39073,0.00007
2233.46200,0.00009
2231.53328,0.00004
2229.60456,-0.00003
2227.67583,-0.00007
2225.74711,-0.00004
2223.81839,-0.00002
2221.88966,-0.00000
2219.96094,0.00004
2218.03221,0.00006
2216.10349,0.00003
2214.17477,-0.00004
2212.24604,-0.00008
2210.31732,-0.00009
2208.38860,-0.00004
2206.45987,0.00000
2204.53115,-0.00004
2202.60243,-0.00011
2200.67370,-0.00013
2198.74498,-0.00014
2196.81625,-0.00013
2194.88753,-0.00008
2192.95881,-0.00003
2191.03008,-0.00005
2189.10136,-0.00007
2187.17264,-0.00005
2185.24391,-0.00004
2183.31519,-0.00006
2181.38647,-0.00010
2179.45774,-0.00011
2177.52902,-0.00005
2175.60029,0.00004
2173.67157,0.00010
2171.74285,0.00014
2169.81412,0.00018
2167.88540,0.00021
2165.95668,0.00018
2164.02795,0.00013
2162.09923,0.00016
2160.17050,0.00026
2158.24178,0.00031
2156.31306,0.00028
2154.38433,0.00028
2152.45561,0.00032
2150.52689,0.00035
2148.59816,0.00032
2146.66944,0.00023
2144.74072,0.00018
2142.81199,0.00024
2140.88327,0.00037
2138.95454,0.00045
2137.02582,0.00042
2135.09710,0.00035
2133.16837,0.00033
2131.23965,0.00035
2129.31093,0.00036
2127.38220,0.00037
2125.45348,0.00035
2123.52476,0.00031
2121.59603,0.00030
2119.66731,0.00034
2117.73858,0.00034
2115.80986,0.00026
2113.88114,0.00019
2111.95241,0.00018
2110.02369,0.00018
2108.09497,0.00019
2106.16624,0.00022
2104.23752,0.00022
2102.30880,0.00019
2100.38007,0.00021
2098.45135,0.00026
2096.52262,0.00023
2094.59390,0.00011
2092.66518,0.00000
2090.73645,-0.00006
2088.80773,-0.00001
2086.87901,0.00005
2084.95028,0.00005
2083.02156,-0.00004
2081.09283,-0.00018
2079.16411,-0.00030
2077.23539,-0.00038
2075.30666,-0.00035
2073.37794,-0.00022
2071.44922,-0.00009
2069.52049,-0.00006
2067.59177,-0.00007
2065.66305,-0.00006
2063.73432,-0.00001
2061.80560,0.00006
2059.87687,0.00017
2057.94815,0.00027
2056.01943,0.00036
2054.09070,0.00046
2052.16198,0.00056
2050.23326,0.00068
2048.30453,0.00080
2046.37581,0.00091
2044.44709,0.00101
2042.51836,0.00116
2040.58964,0.00135
2038.66091,0.00153
2036.73219,0.00174
2034.80347,0.00201
2032.87474,0.00220
2030.94602,0.00224
2029.01730,0.00228
2027.08857,0.00252
2025.15985,0.00283
2023.23112,0.00302
2021.30240,0.00314
2019.37368,0.00327
2017.44495,0.00338
2015.51623,0.00347
2013.58751,0.00362
2011.65878,0.00380
2009.73006,0.00398
2007.80134,0.00415
2005.87261,0.00419
2003.94389,0.00411
2002.01516,0.00404
2000.08644,0.00404
1998.15772,0.00412
1996.22899,0.00428
1994.30027,0.00439
1992.37155,0.00432
1990.44282,0.00409
1988.51410,0.00388
1986.58538,0.00386
1984.65665,0.00395
1982.72793,0.00398
1980.79920,0.00384
1978.87048,0.00362
1976.94176,0.00343
1975.01303,0.00326
1973.08431,0.00308
1971.15559,0.00291
1969.22686,0.00278
1967.29814,0.00261
1965.36941,0.00241
1963.44069,0.00223
1961.51197,0.00209
1959.58324,0.00204
1957.65452,0.00204
1955.72580,0.00194
1953.79707,0.00171
1951.86835,0.00140
1949.93963,0.00111
1948.01090,0.00093
1946.08218,0.00083
1944.15345,0.00068
1942.22473,0.00042
1940.29601,0.00027
1938.36728,0.00027
1936.43856,0.00027
1934.50984,0.00023
1932.58111,0.00018
1930.65239,0.00017
1928.72367,0.00020
1926.79494,0.00023
1924.86622,0.00024
1922.93749,0.00028
1921.00877,0.00047
1919.08005,0.00071
1917.15132,0.00087
1915.22260,0.00110
1913.29388,0.00146
1911.36515,0.00188
1909.43643,0.00229
1907.50770,0.00269
1905.57898,0.00312
1903.65026,0.00359
1901.72153,0.00411
1899.79281,0.00466
1897.86409,0.00520
1895.93536,0.00570
1894.00664,0.00623
1892.07792,0.00675
1890.14919,0.00719
1888.22047,0.00758
1886.29174,0.00798
1884.36302,0.00833
1882.43430,0.00858
1880.50557,0.00879
1878.57685,0.00899
1876.64813,0.00913
1874.71940,0.00921
1872.79068,0.00926
1870.86196,0.00914
1868.93323,0.00872
1867.00451,0.00828
1865.07578,0.00805
1863.14706,0.00789
1861.21834,0.00760
1859.28961,0.00712
1857.36089,0.00656
1855.43217,0.00598
1853.50344,0.00544
1851.57472,0.00494
1849.64599,0.00453
1847.71727,0.00414
1845.78855,0.00358
1843.85982,0.00283
1841.93110,0.00227
1840.00238,0.00202
1838.07365,0.00185
1836.14493,0.00159
1834.21621,0.00135
1832.28748,0.00111
1830.35876,0.00074
1828.43003,0.00035
1826.50131,0.00012
1824.57259,0.00000
1822.64386,-0.00010
1820.71514,-0.00006
1818.78642,0.00002
1816.85769,0.00004
1814.92897,0.00000
1813.00025,-0.00022
1811.07152,-0.00045
1809.14280,-0.00054
1807.21407,-0.00042
1805.28535,-0.00017
1803.35663,0.00003
1801.42790,0.00006
1799.49918,0.00008
1797.57046,0.00034
1795.64173,0.00086
1793.71301,0.00138
1791.78428,0.00177
1789.85556,0.00221
1787.92684,0.00282
1785.99811,0.00350
1784.06939,0.00412
1782.14067,0.00473
1780.21194,0.00540
1778.28322,0.00613
1776.35450,0.00686
1774.42577,0.00756
1772.49705,0.00820
1770.56832,0.00884
1768.63960,0.00956
1766.71088,0.01031
1764.78215,0.01103
1762.85343,0.01168
1760.92471,0.01228
1758.99598,0.01292
1757.06726,0.01357
1755.13854,0.01425
1753.20981,0.01501
1751.28109,0.01580
1749.35236,0.01662
1747.42364,0.01756
1745.49492,0.01872
1743.56619,0.02006
1741.63747,0.02146
1739.70875,0.02290
1737.78002,0.02443
1735.85130,0.02608
1733.92257,0.02796
1731.99385,0.03007
1730.06513,0.03229
1728.13640,0.03457
1726.20768,0.03685
1724.27896,0.03911
1722.35023,0.04125
1720.42151,0.04310
1718.49279,0.04482
1716.56406,0.04685
1714.63534,0.04931
1712.70661,0.05187
1710.77789,0.05431
1708.84917,0.05663
1706.92044,0.05902
1704.99172,0.06156
1703.06300,0.06409
1701.13427,0.06672
1699.20555,0.06949
1697.27683,0.07238
1695.34810,0.07564
1693.41938,0.07895
1691.49065,0.08201
1689.56193,0.08496
1687.63321,0.08788
1685.70448,0.09107
1683.77576,0.09488
1681.84704,0.09862
1679.91831,0.10184
1677.98959,0.10482
1676.06087,0.10792
1674.13214,0.11106
1672.20342,0.11395
1670.27469,0.11683
1668.34597,0.11989
1666.41725,0.12275
1664.48852,0.12536
1662.55980,0.12800
1660.63108,0.13053
1658.70235,0.13270
1656.77363,0.13453
1654.84490,0.13626
1652.91618,0.13800
1650.98746,0.13949
1649.05873,0.14069
1647.13001,0.14183
1645.20129,0.14298
1643.27256,0.14404
1641.34384,0.14491
1639.41512,0.14548
1637.48639,0.14564
1635.55767,0.14545
1633.62894,0.14535
1631.70022,0.14543
1629.77150,0.14514
1627.84277,0.14419
1625.91405,0.14274
1623.98533,0.14089
1622.05660,0.13888
1620.12788,0.13703
1618.19916,0.13480
1616.27043,0.13174
1614.34171,0.12880
1612.41298,0.12647
1610.48426,0.12403
1608.55554,0.12113
1606.62681,0.11803
1604.69809,0.11499
1602.76937,0.11205
1600.84064,0.10927
1598.91192,0.10669
1596.98319,0.10418
1595.05447,0.10165
1593.12575,0.09919
1591.19702,0.09685
1589.26830,0.09463
1587.33958,0.09251
1585.41085,0.09042
1583.48213,0.08836
1581.55341,0.08650
1579.62468,0.08485
1577.69596,0.08288
1575.76723,0.08043
1573.83851,0.07854
1571.90979,0.07730
1569.98106,0.07582
1568.05234,0.07414
1566.12362,0.07287
1564.19489,0.07205
1562.26617,0.07139
1560.33745,0.06996
1558.40872,0.06736
1556.48000,0.06539
1554.55127,0.06463
1552.62255,0.06403
1550.69383,0.06312
1548.76510,0.06208
1546.83638,0.06107
1544.90766,0.05975
1542.97893,0.05783
1541.05021,0.05539
1539.12148,0.05304
1537.19276,0.05157
1535.26404,0.05038
1533.33531,0.04863
1531.40659,0.04674
1529.47787,0.04519
1527.54914,0.04346
1525.62042,0.04132
1523.69170,0.03909
1521.76297,0.03687
1519.83425,0.03490
1517.90552,0.03322
1515.97680,0.03152
1514.04808,0.02989
1512.11935,0.02842
1510.19063,0.02673
1508.26191,0.02410
1506.33318,0.02063
1504.40446,0.01812
1502.47574,0.01682
1500.54701,0.01556
1498.61829,0.01370
1496.68956,0.01158
1494.76084,0.01013
1492.83212,0.00948
1490.90339,0.00891
1488.97467,0.00819
1487.04595,0.00786
1485.11722,0.00805
1483.18850,0.00842
1481.25977,0.00888
1479.33105,0.00962
1477.40233,0.01064
1475.47360,0.01185
1473.54488,0.01344
1471.61616,0.01566
1469.68743,0.01807
1467.75871,0.02014
1465.82999,0.02176
1463.90126,0.02290
1461.97254,0.02364
1460.04381,0.02409
1458.11509,0.02437
1456.18637,0.02471
1454.25764,0.02526
1452.32892,0.02586
1450.40020,0.02628
1448.47147,0.02654
1446.54275,0.02681
1444.61403,0.02718
1442.68530,0.02761
1440.75658,0.02808
1438.82785,0.02855
1436.89913,0.02894
1434.97041,0.02935
1433.04168,0.02983
1431.11296,0.03036
1429.18424,0.03090
1427.25551,0.03154
1425.32679,0.03225
1423.39806,0.03295
1421.46934,0.03357
1419.54062,0.03421
1417.61189,0.03507
1415.68317,0.03614
1413.75445,0.03720
1411.82572,0.03816
1409.89700,0.03909
1407.96828,0.04003
1406.03955,0.04092
1404.11083,0.04168
1402.18210,0.04210
1400.25338,0.04187
1398.32466,0.04086
1396.39593,0.03916
1394.46721,0.03712
1392.53849,0.03529
1390.60976,0.03399
1388.68104,0.03318
1386.75232,0.03281
1384.82359,0.03236
1382.89487,0.03103
1380.96614,0.02884
1379.03742,0.02659
1377.10870,0.02470
1375.17997,0.02295
1373.25125,0.02123
1371.32253,0.01973
1369.39380,0.01842
1367.46508,0.01724
1365.53635,0.01615
1363.60763,0.01498
1361.67891,0.01375
1359.75018,0.01272
1357.82146,0.01186
1355.89274,0.01095
1353.96401,0.01002
1352.03529,0.00928
1350.10657,0.00877
1348.17784,0.00833
1346.24912,0.00784
1344.32039,0.00741
1342.39167,0.00709
1340.46295,0.00675
1338.53422,0.00637
1336.60550,0.00609
1334.67678,0.00597
1332.74805,0.00591
1330.81933,0.00587
1328.89061,0.00588
1326.96188,0.00596
1325.03316,0.00612
1323.10443,0.00636
1321.17571,0.00666
1319.24699,0.00701
1317.31826,0.00745
1315.38954,0.00795
1313.46082,0.00847
1311.53209,0.00900
1309.60337,0.00951
1307.67464,0.00996
1305.74592,0.01044
1303.81720,0.01117
1301.88847,0.01218
1299.95975,0.01330
1298.03103,0.01453
1296.10230,0.01595
1294.17358,0.01751
1292.24486,0.01923
1290.31613,0.02123
1288.38741,0.02342
1286.45868,0.02571
1284.52996,0.02825
1282.60124,0.03123
1280.67251,0.03460
1278.74379,0.03827
1276.81507,0.04231
1274.88634,0.04684
1272.95762,0.05198
1271.02890,0.05780
1269.10017,0.06431
1267.17145,0.07160
1265.24272,0.07972
1263.31400,0.08872
1261.38528,0.09878
1259.45655,0.10990
1257.52783,0.12185
1255.59911,0.13438
1253.67038,0.14726
1251.74166,0.15998
1249.81294,0.17200
1247.88421,0.18319
1245.95549,0.19358
1244.02676,0.20309
1242.09804,0.21173
1240.16932,0.21970
1238.24059,0.22702
1236.31187,0.23351
1234.38315,0.23924
1232.45442,0.24442
1230.52570,0.24929
1228.59697,0.25396
1226.66825,0.25826
1224.73953,0.26217
1222.81080,0.26577
1220.88208,0.26902
1218.95336,0.27202
1217.02463,0.27483
1215.09591,0.27740
1213.16719,0.28002
1211.23846,0.28289
1209.30974,0.28567
1207.38101,0.28814
1205.45229,0.29049
1203.52357,0.29300
1201.59484,0.29573
1199.66612,0.29837
1197.73740,0.30064
1195.80867,0.30277
1193.87995,0.30507
1191.95123,0.30750
1190.02250,0.30984
1188.09378,0.31213
1186.16505,0.31459
1184.23633,0.31713
1182.30761,0.31957
1180.37888,0.32194
1178.45016,0.32437
1176.52144,0.32690
1174.59271,0.32926
1172.66399,0.33117
1170.73526,0.33291
1168.80654,0.33496
1166.87782,0.33720
1164.94909,0.33921
1163.02037,0.34109
1161.09165,0.34315
1159.16292,0.34544
1157.23420,0.34792
1155.30548,0.35020
1153.37675,0.35195
1151.44803,0.35356
1149.51930,0.35559
1147.59058,0.35799
1145.66186,0.36046
1143.73313,0.36280
1141.80441,0.36484
1139.87569,0.36670
1137.94696,0.36865
1136.01824,0.37098
1134.08952,0.37370
1132.16079,0.37629
1130.23207,0.37875
1128.30334,0.38177
1126.37462,0.38537
1124.44590,0.38911
1122.51717,0.39318
1120.58845,0.39783
1118.65973,0.40317
1116.73100,0.40956
1114.80228,0.41633
1112.87355,0.42263
1110.94483,0.42906
1109.01611,0.43615
1107.08738,0.44350
1105.15866,0.45046
1103.22994,0.45664
1101.30121,0.46187
1099.37249,0.46612
1097.44377,0.46954
1095.51504,0.47226
1093.58632,0.47419
1091.65759,0.47519
1089.72887,0.47541
1087.80015,0.47501
1085.87142,0.47427
1083.94270,0.47328
1082.01398,0.47186
1080.08525,0.47005
1078.15653,0.46756
1076.22781,0.46413
1074.29908,0.46047
1072.37036,0.45760
1070.44163,0.45503
1068.51291,0.45144
1066.58419,0.44640
1064.65546,0.44035
1062.72674,0.43438
1060.79802,0.42908
1058.86929,0.42380
1056.94057,0.41784
1055.01184,0.41135
1053.08312,0.40473
1051.15440,0.39781
1049.22567,0.39024
1047.29695,0.38188
1045.36823,0.37336
1043.43950,0.36534
1041.51078,0.35740
1039.58206,0.34936
1037.65333,0.34119
1035.72461,0.33256
1033.79588,0.32390
1031.86716,0.31584
1029.93844,0.30811
1028.00971,0.30034
1026.08099,0.29259
1024.15227,0.28510
1022.22354,0.27794
1020.29482,0.27103
1018.36610,0.26466
1016.43737,0.25888
1014.50865,0.25323
1012.57992,0.24757
1010.65120,0.24212
1008.72248,0.23697
1006.79375,0.23192
1004.86503,0.22701
1002.93631,0.22256
1001.00758,0.21856
999.07886,0.21466
997.15013,0.21046
995.22141,0.20592
993.29269,0.20145
991.36396,0.19741
989.43524,0.19367
987.50652,0.19008
985.57779,0.18701
983.64907,0.18476
981.72035,0.18315
979.79162,0.18180
977.86290,0.18055
975.93417,0.17937
974.00545,0.17804
972.07673,0.17659
970.14800,0.17561
968.21928,0.17538
966.29056,0.17524
964.36183,0.17457
962.43311,0.17361
960.50439,0.17274
958.57566,0.17179
956.64694,0.17059
954.71821,0.16940
952.78949,0.16833
950.86077,0.16710
948.93204,0.16556
947.00332,0.16381
945.07460,0.16183
943.14587,0.15947
941.21715,0.15676
939.28842,0.15411
937.35970,0.15156
935.43098,0.14853
933.50225,0.14493
931.57353,0.14136
929.64481,0.13798
927.71608,0.13452
925.78736,0.13090
923.85864,0.12727
921.92991,0.12381
920.00119,0.12034
918.07246,0.11656
916.14374,0.11264
914.21502,0.10879
912.28629,0.10485
910.35757,0.10068
908.42885,0.09626
906.50012,0.09167
904.57140,0.08721
902.64268,0.08304
900.71395,0.07885
898.78523,0.07472
896.85650,0.07108
894.92778,0.06761
892.99906,0.06384
891.07033,0.06010
889.14161,0.05680
887.21289,0.05375
885.28416,0.05065
883.35544,0.04758
881.42671,0.04467
879.49799,0.04197
877.56927,0.03947
875.64054,0.03704
873.71182,0.03477
871.78310,0.03279
869.85437,0.03085
867.92565,0.02878
865.99693,0.02670
864.06820,0.02475
862.13948,0.02292
860.21075,0.02136
858.28203,0.02029
856.35331,0.01947
854.42458,0.01853
852.49586,0.01762
850.56714,0.01709
848.63841,0.01717
846.70969,0.01790
844.78097,0.01933
842.85224,0.02147
840.92352,0.02410
838.99479,0.02691
837.06607,0.03015
835.13735,0.03405
833.20862,0.03804
831.27990,0.04163
829.35118,0.04536
827.42245,0.04936
825.49373,0.05308
823.56501,0.05668
821.63628,0.06045
819.70756,0.06408
817.77883,0.06748
815.85011,0.07078
813.92139,0.07409
811.99266,0.07753
810.06394,0.08122
808.13522,0.08481
806.20649,0.08738
804.27777,0.08874
802.34904,0.08977
800.42032,0.09103
798.49160,0.09208
796.56287,0.09243
794.63415,0.09220
792.70543,0.09159
790.77670,0.09008
788.84798,0.08716
786.91926,0.08329
784.99053,0.07972
783.06181,0.07684
781.13308,0.07340
779.20436,0.06875
777.27564,0.06352
775.34691,0.05831
773.41819,0.05331
771.48947,0.04886
769.56074,0.04550
767.63202,0.04330
765.70330,0.04184
763.77457,0.04106
761.84585,0.04077
759.91712,0.04022
757.98840,0.03922
756.05968,0.03839
754.13095,0.03818
752.20223,0.03833
750.27351,0.03812
748.34478,0.03741
746.41606,0.03666
744.48733,0.03613
742.55861,0.03583
740.62989,0.03579
738.70116,0.03582
736.77244,0.03562
734.84372,0.03532
732.91499,0.03508
730.98627,0.03481
729.05755,0.03462
727.12882,0.03465
725.20010,0.03469
723.27137,0.03459
721.34265,0.03469
719.41393,0.03538
717.48520,0.03649
715.55648,0.03738
713.62776,0.03783
711.69903,0.03827
709.77031,0.03882
707.84159,0.03927
705.91286,0.03974
703.98414,0.04051
702.05541,0.04161
700.12669,0.04283
698.19797,0.04402
696.26924,0.04524
694.34052,0.04626
692.41180,0.04649
690.48307,0.04627
688.55435,0.04658
686.62562,0.04736
684.69690,0.04783
682.76818,0.04812
680.83945,0.04856
678.91073,0.04874
676.98201,0.04856
675.05328,0.04829
673.12456,0.04810
671.19584,0.04837
669.26711,0.04937
667.33839,0.05044
665.40966,0.05086
663.48094,0.05097
661.55222,0.05125
659.62349,0.05174
657.69477,0.05239
655.76605,0.05343
653.83732,0.05507
651.90860,0.05681
649.97988,0.05812
648.05115,0.05938
646.12243,0.06118
644.19370,0.06319
642.26498,0.06448
640.33626,0.06492
638.40753,0.06537
636.47881,0.06627
634.55009,0.06736
632.62136,0.06851
630.69264,0.06978
628.76391,0.07112
626.83519,0.07241
624.90647,0.07338
622.97774,0.07399
621.04902,0.07474
619.12030,0.07580
617.19157,0.07662
615.26285,0.07720
613.33413,0.07828
611.40540,0.08002
609.47668,0.08214
607.54795,0.08440
605.61923,0.08653
603.69051,0.08829
601.76178,0.08976
599.83306,0.09095
597.90434,0.09210
595.97561,0.09385
594.04689,0.09569
592.11817,0.09674
590.18944,0.09812
588.26072,0.10103
586.33199,0.10404
584.40327,0.10559
582.47455,0.10599
580.54582,0.10577
578.61710,0.10537
576.68838,0.10578
574.75965,0.10700
572.83093,0.10747
570.90220,0.10699
568.97348,0.10725
567.04476,0.10897
565.11603,0.11089
563.18731,0.11139
561.25859,0.11072
559.32986,0.11033
557.40114,0.11048
555.47242,0.11099
553.54369,0.11190
551.61497,0.11295
549.68624,0.11404
547.75752,0.11517
545.82880,0.11638
543.90007,0.11774
541.97135,0.11847
540.04263,0.11783
538.11390,0.11666
536.18518,0.11629
534.25646,0.11650
532.32773,0.11652
530.39901,0.11642
528.47028,0.11584
526.54156,0.11420
524.61284,0.11239
522.68411,0.11164
520.75539,0.11213
518.82667,0.11338
516.89794,0.11514
514.96922,0.11762
513.04049,0.12054
511.11177,0.12340
509.18305,0.12686
507.25432,0.13249
505.32560,0.14040
503.39688,0.14933
501.46815,0.15755
499.53943,0.16355
497.61071,0.16867
495.68198,0.17508
493.75326,0.18276
491.82453,0.19127
489.89581,0.20018
487.96709,0.20839
486.03836,0.21665
484.10964,0.22674
482.18092,0.23662
480.25219,0.24323
478.32347,0.24834
476.39475,0.25604
474.46602,0.26684
472.53730,0.27646
470.60857,0.28167
468.67985,0.28450
466.75113,0.28708
464.82240,0.28801
462.89368,0.28598
460.96496,0.28369
459.03623,0.28329
457.10751,0.27994
455.17878,0.27032
453.25006,0.25954
451.32134,0.25178
449.39261,0.24647
447.46389,0.24152
445.53517,0.23517
443.60644,0.22686
441.67772,0.21725
439.74900,0.20726
437.82027,0.19617
435.89155,0.18424
433.96282,0.17510
432.03410,0.17043
430.10538,0.16780
428.17665,0.16357
426.24793,0.15567
424.31921,0.14580
422.39048,0.13636
420.46176,0.12638
418.53304,0.11611
416.60431,0.10933
414.67559,0.10300
412.74686,0.09215
410.81814,0.08185
408.88942,0.07939
406.96069,0.08183
405.03197,0.08362
403.10325,0.08416
401.17452,0.07792
399.24580,0.05899
397.31708,0.04243
395.38835,0.04329
393.45963,0.04354
391.53090,0.03075
389.60218,0.01715
387.67346,0.01043
385.74473,0.00533
383.81601,0.00000
381.88729,-0.00581
379.95856,0.00839
378.02984,0.03180
376.10111,0.03463
374.17239,0.00889
372.24367,-0.01311
370.31494,-0.01003
368.38622,0.00000
