3996.31543,0.00000
3994.38671,0.00012
3992.45799,0.00021
3990.52926,0.00021
3988.60054,0.00029
3986.67182,0.00040
3984.74309,0.00044
3982.81437,0.00053
3980.88564,0.00071
3978.95692,0.00083
3977.02820,0.00070
3975.09947,0.00044
3973.17075,0.00034
3971.24203,0.00051
3969.31330,0.00076
3967.38458,0.00092
3965.45586,0.00088
3963.52713,0.00069
3961.59841,0.00071
3959.66968,0.00095
3957.74096,0.00098
3955.81224,0.00081
3953.88351,0.00077
3951.95479,0.00086
3950.02607,0.00088
3948.09734,0.00105
3946.16862,0.00132
3944.23990,0.00112
3942.31117,0.00080
3940.38245,0.00096
3938.45372,0.00128
3936.52500,0.00145
3934.59628,0.00114
3932.66755,0.00057
3930.73883,0.00051
3928.81011,0.00094
3926.88138,0.00110
3924.95266,0.00104
3923.02393,0.00129
3921.09521,0.00134
3919.16649,0.00089
3917.23776,0.00051
3915.30904,0.00068
3913.38032,0.00098
3911.45159,0.00109
3909.52287,0.00136
3907.59415,0.00160
3905.66542,0.00144
3903.73670,0.00133
3901.80797,0.00130
3899.87925,0.00101
3897.95053,0.00127
3896.02180,0.00185
3894.09308,0.00158
3892.16436,0.00095
3890.23563,0.00144
3888.30691,0.00202
3886.37819,0.00162
3884.44946,0.00190
3882.52074,0.00215
3880.59201,0.00166
3878.66329,0.00204
3876.73457,0.00235
3874.80584,0.00201
3872.87712,0.00195
3870.94840,0.00158
3869.01967,0.00175
3867.09095,0.00228
3865.16222,0.00171
3863.23350,0.00129
3861.30478,0.00177
3859.37605,0.00268
3857.44733,0.00311
3855.51861,0.00183
3853.58988,0.00000
3851.66116,0.00058
3849.73244,0.00178
3847.80371,0.00202
3845.87499,0.00179
3843.94626,0.00184
3842.01754,0.00228
3840.08882,0.00212
3838.16009,0.00158
3836.23137,0.00175
3834.30265,0.00215
3832.37392,0.00226
3830.44520,0.00245
3828.51648,0.00243
3826.58775,0.00251
3824.65903,0.00301
3822.73030,0.00250
3820.80158,0.00215
3818.87286,0.00278
3816.94413,0.00209
3815.01541,0.00162
3813.08669,0.00238
3811.15796,0.00281
3809.22924,0.00247
3807.30052,0.00227
3805.37179,0.00315
3803.44307,0.00304
3801.51434,0.00215
3799.58562,0.00276
3797.65690,0.00312
3795.72817,0.00307
3793.79945,0.00342
3791.87073,0.00357
3789.94200,0.00366
3788.01328,0.00382
3786.08455,0.00395
3784.15583,0.00440
3782.22711,0.00477
3780.29838,0.00439
3778.36966,0.00429
3776.44094,0.00484
3774.51221,0.00537
3772.58349,0.00555
3770.65477,0.00551
3768.72604,0.00593
3766.79732,0.00634
3764.86859,0.00681
3762.93987,0.00754
3761.01115,0.00757
3759.08242,0.00769
3757.15370,0.00885
3755.22498,0.00990
3753.29625,0.00974
3751.36753,0.00954
3749.43881,0.01108
3747.51008,0.01255
3745.58136,0.01198
3743.65263,0.01241
3741.72391,0.01471
3739.79519,0.01595
3737.86646,0.01582
3735.93774,0.01578
3734.00902,0.01699
3732.08029,0.01892
3730.15157,0.02081
3728.22284,0.02193
3726.29412,0.02278
3724.36540,0.02433
3722.43667,0.02612
3720.50795,0.02799
3718.57923,0.03015
3716.65050,0.03260
3714.72178,0.03469
3712.79306,0.03649
3710.86433,0.03952
3708.93561,0.04362
3707.00688,0.04723
3705.07816,0.04985
3703.14944,0.05215
3701.22071,0.05552
3699.29199,0.05982
3697.36327,0.06365
3695.43454,0.06712
3693.50582,0.07036
3691.57710,0.07332
3689.64837,0.07700
3687.71965,0.08218
3685.79092,0.08742
3683.86220,0.09152
3681.93348,0.09529
3680.00475,0.09942
3678.07603,0.10353
3676.14731,0.10811
3674.21858,0.11453
3672.28986,0.11964
3670.36113,0.12276
3668.43241,0.12725
3666.50369,0.13185
3664.57496,0.13510
3662.64624,0.13816
3660.71752,0.14159
3658.78879,0.14481
3656.86007,0.14810
3654.93135,0.15236
3653.00262,0.15574
3651.07390,0.15727
3649.14517,0.15955
3647.21645,0.16326
3645.28773,0.16670
3643.35900,0.16903
3641.43028,0.17092
3639.50156,0.17297
3637.57283,0.17518
3635.64411,0.17748
3633.71539,0.17995
3631.78666,0.18196
3629.85794,0.18303
3627.92921,0.18537
3626.00049,0.18878
3624.07177,0.19108
3622.14304,0.19223
3620.21432,0.19307
3618.28560,0.19476
3616.35687,0.19684
3614.42815,0.19809
3612.49942,0.19930
3610.57070,0.20072
3608.64198,0.20201
3606.71325,0.20376
3604.78453,0.20557
3602.85581,0.20670
3600.92708,0.20774
3598.99836,0.20912
3597.06964,0.21041
3595.14091,0.21180
3593.21219,0.21376
3591.28346,0.21545
3589.35474,0.21608
3587.42602,0.21695
3585.49729,0.21902
3583.56857,0.22088
3581.63985,0.22204
3579.71112,0.22320
3577.78240,0.22450
3575.85368,0.22576
3573.92495,0.22712
3571.99623,0.22861
3570.06750,0.22969
3568.13878,0.23035
3566.21006,0.23168
3564.28133,0.23358
3562.35261,0.23492
3560.42389,0.23580
3558.49516,0.23679
3556.56644,0.23792
3554.63771,0.23902
3552.70899,0.24025
3550.78027,0.24172
3548.85154,0.24292
3546.92282,0.24376
3544.99410,0.24483
3543.06537,0.24624
3541.13665,0.24755
3539.20793,0.24848
3537.27920,0.24919
3535.35048,0.25017
3533.42175,0.25139
3531.49303,0.25244
3529.56431,0.25334
3527.63558,0.25437
3525.70686,0.25543
3523.77814,0.25637
3521.84941,0.25739
3519.92069,0.25847
3517.99197,0.25957
3516.06324,0.26072
3514.13452,0.26167
3512.20579,0.26231
3510.27707,0.26305
3508.34835,0.26431
3506.41962,0.26553
3504.49090,0.26614
3502.56218,0.26671
3500.63345,0.26746
3498.70473,0.26815
3496.77600,0.26900
3494.84728,0.27015
3492.91856,0.27118
3490.98983,0.27193
3489.06111,0.27268
3487.13239,0.27367
3485.20366,0.27454
3483.27494,0.27486
3481.34622,0.27531
3479.41749,0.27640
3477.48877,0.27745
3475.56004,0.27807
3473.63132,0.27864
3471.70260,0.27941
3469.77387,0.28011
3467.84515,0.28053
3465.91643,0.28087
3463.98770,0.28137
3462.05898,0.28207
3460.13026,0.28281
3458.20153,0.28335
3456.27281,0.28374
3454.34408,0.28415
3452.41536,0.28471
3450.48664,0.28525
3448.55791,0.28543
3446.62919,0.28576
3444.70047,0.28653
3442.77174,0.28704
3440.84302,0.28737
3438.91429,0.28787
3436.98557,0.28849
3435.05685,0.28907
3433.12812,0.28948
3431.19940,0.28991
3429.27068,0.29035
3427.34195,0.29059
3425.41323,0.29072
3423.48451,0.29089
3421.55578,0.29099
3419.62706,0.29105
3417.69833,0.29120
3415.76961,0.29142
3413.84089,0.29170
3411.91216,0.29204
3409.98344,0.29231
3408.05472,0.29241
3406.12599,0.29243
3404.19727,0.29238
3402.26855,0.29225
3400.33982,0.29222
3398.41110,0.29232
3396.48237,0.29231
3394.55365,0.29203
3392.62493,0.29180
3390.69620,0.29181
3388.76748,0.29175
3386.83876,0.29170
3384.91003,0.29175
3382.98131,0.29170
3381.05259,0.29152
3379.12386,0.29130
3377.19514,0.29106
3375.26641,0.29083
3373.33769,0.29055
3371.40897,0.29021
3369.48024,0.28979
3367.55152,0.28944
3365.62280,0.28939
3363.69407,0.28951
3361.76535,0.28932
3359.83662,0.28874
3357.90790,0.28815
3355.97918,0.28785
3354.05045,0.28778
3352.12173,0.28758
3350.19301,0.28708
3348.26428,0.28652
3346.33556,0.28611
3344.40684,0.28578
3342.47811,0.28545
3340.54939,0.28514
3338.62066,0.28469
3336.69194,0.28411
3334.76322,0.28378
3332.83449,0.28368
3330.90577,0.28337
3328.97705,0.28276
3327.04832,0.28218
3325.11960,0.28175
3323.19088,0.28135
3321.26215,0.28086
3319.33343,0.28049
3317.40470,0.28041
3315.47598,0.28026
3313.54726,0.27976
3311.61853,0.27901
3309.68981,0.27831
3307.76109,0.27790
3305.83236,0.27763
3303.90364,0.27730
3301.97491,0.27705
3300.04619,0.27691
3298.11747,0.27671
3296.18874,0.27631
3294.26002,0.27570
3292.33130,0.27505
3290.40257,0.27464
3288.47385,0.27440
3286.54513,0.27401
3284.61640,0.27351
3282.68768,0.27323
3280.75895,0.27314
3278.83023,0.27283
3276.90151,0.27215
3274.97278,0.27151
3273.04406,0.27114
3271.11534,0.27086
3269.18661,0.27045
3267.25789,0.26993
3265.32917,0.26941
3263.40044,0.26896
3261.47172,0.26849
3259.54299,0.26799
3257.61427,0.26760
3255.68555,0.26728
3253.75682,0.26680
3251.82810,0.26617
3249.89938,0.26560
3247.97065,0.26514
3246.04193,0.26464
3244.11320,0.26402
3242.18448,0.26325
3240.25576,0.26259
3238.32703,0.26224
3236.39831,0.26198
3234.46959,0.26154
3232.54086,0.26095
3230.61214,0.26031
3228.68342,0.25962
3226.75469,0.25889
3224.82597,0.25819
3222.89724,0.25756
3220.96852,0.25685
3219.03980,0.25599
3217.11107,0.25513
3215.18235,0.25438
3213.25363,0.25375
3211.32490,0.25304
3209.39618,0.25206
3207.46746,0.25103
3205.53873,0.25023
3203.61001,0.24959
3201.68128,0.24895
3199.75256,0.24823
3197.82384,0.24745
3195.89511,0.24665
3193.96639,0.24576
3192.03767,0.24474
3190.10894,0.24371
3188.18022,0.24291
3186.25149,0.24233
3184.32277,0.24159
3182.39405,0.24054
3180.46532,0.23946
3178.53660,0.23856
3176.60788,0.23781
3174.67915,0.23698
3172.75043,0.23596
3170.82171,0.23493
3168.89298,0.23413
3166.96426,0.23341
3165.03553,0.23245
3163.10681,0.23120
3161.17809,0.22992
3159.24936,0.22890
3157.32064,0.22818
3155.39192,0.22747
3153.46319,0.22651
3151.53447,0.22533
3149.60575,0.22421
3147.67702,0.22326
3145.74830,0.22238
3143.81957,0.22153
3141.89085,0.22072
3139.96213,0.21986
3138.03340,0.21894
3136.10468,0.21789
3134.17596,0.21670
3132.24723,0.21565
3130.31851,0.21485
3128.38978,0.21398
3126.46106,0.21293
3124.53234,0.21189
3122.60361,0.21097
3120.67489,0.21007
3118.74617,0.20907
3116.81744,0.20801
3114.88872,0.20706
3112.96000,0.20614
3111.03127,0.20505
3109.10255,0.20382
3107.17382,0.20264
3105.24510,0.20167
3103.31638,0.20080
3101.38765,0.19986
3099.45893,0.19891
3097.53021,0.19786
3095.60148,0.19663
3093.67276,0.19547
3091.74404,0.19438
3089.81531,0.19327
3087.88659,0.19219
3085.95786,0.19115
3084.02914,0.19004
3082.10042,0.18883
3080.17169,0.18764
3078.24297,0.18652
3076.31425,0.18545
3074.38552,0.18436
3072.45680,0.18324
3070.52807,0.18219
3068.59935,0.18108
3066.67063,0.17983
3064.74190,0.17866
3062.81318,0.17766
3060.88446,0.17667
3058.95573,0.17557
3057.02701,0.17438
3055.09829,0.17322
3053.16956,0.17216
3051.24084,0.17114
3049.31211,0.17013
3047.38339,0.16907
3045.45467,0.16796
3043.52594,0.16685
3041.59722,0.16576
3039.66850,0.16464
3037.73977,0.16357
3035.81105,0.16268
3033.88233,0.16182
3031.95360,0.16086
3030.02488,0.15990
3028.09615,0.15898
3026.16743,0.15803
3024.23871,0.15711
3022.30998,0.15622
3020.38126,0.15529
3018.45254,0.15431
3016.52381,0.15331
3014.59509,0.15238
3012.66636,0.15154
3010.73764,0.15076
3008.80892,0.14998
3006.88019,0.14916
3004.95147,0.14839
3003.02275,0.14770
3001.09402,0.14697
2999.16530,0.14612
2997.23658,0.14525
2995.30785,0.14448
2993.37913,0.14386
2991.45040,0.14342
2989.52168,0.14303
2987.59296,0.14256
2985.66423,0.14209
2983.73551,0.14169
2981.80679,0.14135
2979.87806,0.14116
2977.94934,0.14118
2976.02062,0.14122
2974.09189,0.14115
2972.16317,0.14099
2970.23444,0.14085
2968.30572,0.14090
2966.37700,0.14103
2964.44827,0.14091
2962.51955,0.14056
2960.59083,0.14018
2958.66210,0.13972
2956.73338,0.13894
2954.80466,0.13798
2952.87593,0.13721
2950.94721,0.13665
2949.01848,0.13610
2947.08976,0.13570
2945.16104,0.13566
2943.23231,0.13590
2941.30359,0.13626
2939.37487,0.13666
2937.44614,0.13709
2935.51742,0.13763
2933.58869,0.13821
2931.65997,0.13854
2929.73125,0.13855
2927.80252,0.13835
2925.87380,0.13793
2923.94508,0.13705
2922.01635,0.13551
2920.08763,0.13343
2918.15891,0.13107
2916.23018,0.12858
2914.30146,0.12621
2912.37273,0.12409
2910.44401,0.12210
2908.51529,0.12022
2906.58656,0.11849
2904.65784,0.11681
2902.72912,0.11519
2900.80039,0.11370
2898.87167,0.11233
2896.94295,0.11098
2895.01422,0.10960
2893.08550,0.10831
2891.15677,0.10722
2889.22805,0.10619
2887.29933,0.10516
2885.37060,0.10419
2883.44188,0.10334
2881.51316,0.10254
2879.58443,0.10180
2877.65571,0.10122
2875.72698,0.10071
2873.79826,0.10011
2871.86954,0.09941
2869.94081,0.09871
2868.01209,0.09805
2866.08337,0.09748
2864.15464,0.09714
2862.22592,0.09712
2860.29720,0.09728
2858.36847,0.09746
2856.43975,0.09752
2854.51102,0.09720
2852.58230,0.09617
2850.65358,0.09441
2848.72485,0.09213
2846.79613,0.08950
2844.86741,0.08677
2842.93868,0.08432
2841.00996,0.08231
2839.08124,0.08069
2837.15251,0.07925
2835.22379,0.07789
2833.29506,0.07665
2831.36634,0.07553
2829.43762,0.07448
2827.50889,0.07349
2825.58017,0.07258
2823.65145,0.07175
2821.72272,0.07090
2819.79400,0.07002
2817.86527,0.06916
2815.93655,0.06834
2814.00783,0.06751
2812.07910,0.06676
2810.15038,0.06612
2808.22166,0.06548
2806.29293,0.06473
2804.36421,0.06392
2802.43549,0.06316
2800.50676,0.06252
2798.57804,0.06193
2796.64931,0.06131
2794.72059,0.06065
2792.79187,0.06001
2790.86314,0.05940
2788.93442,0.05877
2787.00570,0.05815
2785.07697,0.05754
2783.14825,0.05688
2781.21953,0.05613
2779.29080,0.05535
2777.36208,0.05473
2775.43335,0.05428
2773.50463,0.05382
2771.57591,0.05319
2769.64718,0.05254
2767.71846,0.05193
2765.78974,0.05131
2763.86101,0.05070
2761.93229,0.05014
2760.00356,0.04963
2758.07484,0.04906
2756.14612,0.04841
2754.21739,0.04779
2752.28867,0.04730
2750.35995,0.04685
2748.43122,0.04642
2746.50250,0.04601
2744.57378,0.04554
2742.64505,0.04492
2740.71633,0.04420
2738.78760,0.04362
2736.85888,0.04318
2734.93016,0.04271
2733.00143,0.04215
2731.07271,0.04159
2729.14399,0.04109
2727.21526,0.04064
2725.28654,0.04024
2723.35782,0.03977
2721.42909,0.03920
2719.50037,0.03873
2717.57164,0.03835
2715.64292,0.03784
2713.71420,0.03729
2711.78547,0.03681
2709.85675,0.03634
2707.92803,0.03579
2705.99930,0.03522
2704.07058,0.03472
2702.14185,0.03435
2700.21313,0.03398
2698.28441,0.03351
2696.35568,0.03304
2694.42696,0.03271
2692.49824,0.03238
2690.56951,0.03191
2688.64079,0.03135
2686.71207,0.03085
2684.78334,0.03047
2682.85462,0.03014
2680.92589,0.02976
2678.99717,0.02932
2677.06845,0.02889
2675.13972,0.02849
2673.21100,0.02807
2671.28228,0.02768
2669.35355,0.02735
2667.42483,0.02694
2665.49611,0.02644
2663.56738,0.02593
2661.63866,0.02541
2659.70993,0.02490
2657.78121,0.02451
2655.85249,0.02418
2653.92376,0.02381
2651.99504,0.02340
2650.06632,0.02300
2648.13759,0.02265
2646.20887,0.02231
2644.28014,0.02195
2642.35142,0.02163
2640.42270,0.02131
2638.49397,0.02096
2636.56525,0.02063
2634.63653,0.02025
2632.70780,0.01980
2630.77908,0.01941
2628.85036,0.01915
2626.92163,0.01892
2624.99291,0.01863
2623.06418,0.01826
2621.13546,0.01783
2619.20674,0.01742
2617.27801,0.01707
2615.34929,0.01680
2613.42057,0.01662
2611.49184,0.01645
2609.56312,0.01615
2607.63440,0.01575
2605.70567,0.01542
2603.77695,0.01518
2601.84822,0.01498
2599.91950,0.01477
2597.99078,0.01450
2596.06205,0.01415
2594.13333,0.01376
2592.20461,0.01343
2590.27588,0.01321
2588.34716,0.01302
2586.41843,0.01279
2584.48971,0.01250
2582.56099,0.01220
2580.63226,0.01193
2578.70354,0.01170
2576.77482,0.01149
2574.84609,0.01132
2572.91737,0.01120
2570.98865,0.01102
2569.05992,0.01071
2567.13120,0.01031
2565.20247,0.00997
2563.27375,0.00981
2561.34503,0.00972
2559.41630,0.00952
2557.48758,0.00927
2555.55886,0.00906
2553.63013,0.00881
2551.70141,0.00854
2549.77269,0.00837
2547.84396,0.00832
2545.91524,0.00818
2543.98651,0.00792
2542.05779,0.00765
2540.12907,0.00748
2538.20034,0.00736
2536.27162,0.00719
2534.34290,0.00695
2532.41417,0.00668
2530.48545,0.00649
2528.55673,0.00643
2526.62800,0.00639
2524.69928,0.00630
2522.77055,0.00612
2520.84183,0.00591
2518.91311,0.00575
2516.98438,0.00561
2515.05566,0.00539
2513.12694,0.00514
2511.19821,0.00500
2509.26949,0.00497
2507.34076,0.00490
2505.41204,0.00476
2503.48332,0.00464
2501.55459,0.00458
2499.62587,0.00448
2497.69715,0.00423
2495.76842,0.00390
2493.83970,0.00367
2491.91098,0.00355
2489.98225,0.00345
2488.05353,0.00335
2486.12480,0.00325
2484.19608,0.00318
2482.26736,0.00310
2480.33863,0.00295
2478.40991,0.00280
2476.48119,0.00265
2474.55246,0.00251
2472.62374,0.00242
2470.69502,0.00242
2468.76629,0.00241
2466.83757,0.00232
2464.90884,0.00219
2462.98012,0.00209
2461.05140,0.00199
2459.12267,0.00182
2457.19395,0.00167
2455.26523,0.00164
2453.33650,0.00159
2451.40778,0.00144
2449.47905,0.00131
2447.55033,0.00128
2445.62161,0.00123
2443.69288,0.00112
2441.76416,0.00106
2439.83544,0.00105
2437.90671,0.00097
2435.97799,0.00084
2434.04927,0.00075
2432.12054,0.00078
2430.19182,0.00091
2428.26309,0.00103
2426.33437,0.00101
2424.40565,0.00086
2422.47692,0.00068
2420.54820,0.00054
2418.61948,0.00043
2416.69075,0.00037
2414.76203,0.00035
2412.83331,0.00031
2410.90458,0.00027
2408.97586,0.00025
2407.04713,0.00021
2405.11841,0.00014
2403.18969,0.00006
2401.26096,0.00000
2399.33224,-0.00003
2397.40352,-0.00002
2395.47479,0.00001
2393.54607,-0.00002
2391.61734,-0.00009
2389.68862,-0.00017
2387.75990,-0.00023
2385.83117,-0.00022
2383.90245,-0.00020
2381.97373,-0.00018
2380.04500,-0.00014
2378.11628,0.00000
2376.18756,0.00018
2374.25883,0.00030
2372.33011,0.00033
2370.40138,0.00033
2368.47266,0.00039
2366.54394,0.00054
2364.61521,0.00065
2362.68649,0.00051
2360.75777,0.00016
2358.82904,-0.00005
2356.90032,0.00008
2354.97160,0.00026
2353.04287,0.00020
2351.11415,0.00007
2349.18542,0.00011
2347.25670,0.00031
2345.32798,0.00041
2343.39925,0.00025
2341.47053,-0.00001
2339.54181,-0.00005
2337.61308,0.00014
2335.68436,0.00035
2333.75563,0.00040
2331.82691,0.00028
2329.89819,0.00012
2327.96946,0.00012
2326.04074,0.00028
2324.11202,0.00037
2322.18329,0.00026
2320.25457,0.00008
2318.32585,0.00000
2316.39712,0.00003
2314.46840,0.00009
2312.53967,0.00013
2310.61095,0.00011
2308.68223,0.00005
2306.75350,-0.00001
2304.82478,-0.00004
2302.89606,-0.00008
2300.96733,-0.00007
2299.03861,0.00001
2297.10989,0.00011
2295.18116,0.00014
2293.25244,0.00011
2291.32371,0.00006
2289.39499,0.00003
2287.46627,0.00003
2285.53754,0.00005
2283.60882,0.00004
2281.68010,0.00002
2279.75137,0.00004
2277.82265,0.00010
2275.89392,0.00016
2273.96520,0.00017
2272.03648,0.00015
2270.10775,0.00012
2268.17903,0.00011
2266.25031,0.00010
2264.32158,0.00010
2262.39286,0.00005
2260.46414,-0.00000
2258.53541,0.00002
2256.60669,0.00008
2254.67796,0.00005
2252.74924,-0.00004
2250.82052,-0.00007
2248.89179,0.00001
2246.96307,0.00010
2245.03435,0.00011
2243.10562,0.00012
2241.17690,0.00015
2239.24818,0.00013
2237.31945,0.00007
2235.39073,-0.00002
2233.46200,-0.00009
2231.53328,-0.00011
2229.60456,-0.00011
2227.67583,-0.00010
2225.74711,-0.00004
2223.81839,0.00003
2221.88966,-0.00000
2219.96094,-0.00007
2218.03221,-0.00010
2216.10349,-0.00011
2214.17477,-0.00007
2212.24604,0.00003
2210.31732,0.00009
2208.38860,0.00005
2206.45987,0.00000
2204.53115,-0.00001
2202.60243,0.00003
2200.67370,0.00007
2198.74498,0.00004
2196.81625,-0.00005
2194.88753,-0.00014
2192.95881,-0.00016
2191.03008,-0.00014
2189.10136,-0.00011
2187.17264,-0.00005
2185.24391,0.00005
2183.31519,0.00011
2181.38647,0.00013
2179.45774,0.00012
2177.52902,0.00009
2175.60029,0.00011
2173.67157,0.00019
2171.74285,0.00025
2169.81412,0.00023
2167.88540,0.00018
2165.95668,0.00017
2164.02795,0.00020
2162.09923,0.00027
2160.17050,0.00030
2158.24178,0.00033
2156.31306,0.00039
2154.38433,0.00043
2152.45561,0.00043
2150.52689,0.00037
2148.59816,0.00033
2146.66944,0.00034
2144.74072,0.00037
2142.81199,0.00040
2140.88327,0.00044
2138.95454,0.00048
2137.02582,0.00049
2135.09710,0.00048
2133.16837,0.00042
2131.23965,0.00035
2129.31093,0.00029
2127.38220,0.00024
2125.45348,0.00024
2123.52476,0.00025
2121.59603,0.00024
2119.66731,0.00021
2117.73858,0.00015
2115.80986,0.00012
2113.88114,0.00012
2111.95241,0.00007
2110.02369,0.00002
2108.09497,0.00005
2106.16624,0.00011
2104.23752,0.00006
2102.30880,-0.00002
2100.38007,-0.00005
2098.45135,-0.00007
2096.52262,-0.00008
2094.59390,0.00000
2092.66518,-0.00001
2090.73645,-0.00009
2088.80773,-0.00018
2086.87901,-0.00019
2084.95028,-0.00024
2083.02156,-0.00036
2081.09283,-0.00047
2079.16411,-0.00048
2077.23539,-0.00042
2075.30666,-0.00034
2073.37794,-0.00031
2071.44922,-0.00031
2069.52049,-0.00030
2067.59177,-0.00035
2065.66305,-0.00047
2063.73432,-0.00043
2061.80560,-0.00023
2059.87687,-0.00005
2057.94815,0.00018
2056.01943,0.00037
2054.09070,0.00046
2052.16198,0.00056
2050.23326,0.00078
2048.30453,0.00109
2046.37581,0.00143
2044.44709,0.00176
2042.51836,0.00202
2040.58964,0.00233
2038.66091,0.00273
2036.73219,0.00310
2034.80347,0.00343
2032.87474,0.00374
2030.94602,0.00406
2029.01730,0.00440
2027.08857,0.00475
2025.15985,0.00510
2023.23112,0.00545
2021.30240,0.00581
2019.37368,0.00603
2017.44495,0.00613
2015.51623,0.00637
2013.58751,0.00662
2011.65878,0.00673
2009.73006,0.00681
2007.80134,0.00690
2005.87261,0.00704
2003.94389,0.00716
2002.01516,0.00716
2000.08644,0.00706
1998.15772,0.00702
1996.22899,0.00716
1994.30027,0.00720
1992.37155,0.00705
1990.44282,0.00714
1988.51410,0.00718
1986.58538,0.00696
1984.65665,0.00673
1982.72793,0.00657
1980.79920,0.00649
1978.87048,0.00638
1976.94176,0.00623
1975.01303,0.00605
1973.08431,0.00585
1971.15559,0.00567
1969.22686,0.00535
1967.29814,0.00489
1965.36941,0.00464
1963.44069,0.00440
1961.51197,0.00411
1959.58324,0.00393
1957.65452,0.00365
1955.72580,0.00326
1953.79707,0.00299
1951.86835,0.00284
1949.93963,0.00270
1948.01090,0.00260
1946.08218,0.00253
1944.15345,0.00221
1942.22473,0.00191
1940.29601,0.00202
1938.36728,0.00198
1936.43856,0.00172
1934.50984,0.00153
1932.58111,0.00145
1930.65239,0.00150
1928.72367,0.00166
1926.79494,0.00190
1924.86622,0.00197
1922.93749,0.00221
1921.00877,0.00280
1919.08005,0.00289
1917.15132,0.00307
1915.22260,0.00377
1913.29388,0.00425
1911.36515,0.00455
1909.43643,0.00504
1907.50770,0.00580
1905.57898,0.00657
1903.65026,0.00727
1901.72153,0.00804
1899.79281,0.00892
1897.86409,0.00975
1895.93536,0.01044
1894.00664,0.01127
1892.07792,0.01194
1890.14919,0.01224
1888.22047,0.01284
1886.29174,0.01354
1884.36302,0.01389
1882.43430,0.01419
1880.50557,0.01442
1878.57685,0.01457
1876.64813,0.01473
1874.71940,0.01501
1872.79068,0.01520
1870.86196,0.01479
1868.93323,0.01412
1867.00451,0.01400
1865.07578,0.01387
1863.14706,0.01319
1861.21834,0.01228
1859.28961,0.01142
1857.36089,0.01056
1855.43217,0.00966
1853.50344,0.00886
1851.57472,0.00825
1849.64599,0.00774
1847.71727,0.00713
1845.78855,0.00599
1843.85982,0.00492
1841.93110,0.00478
1840.00238,0.00454
1838.07365,0.00382
1836.14493,0.00334
1834.21621,0.00315
1832.28748,0.00258
1830.35876,0.00177
1828.43003,0.00164
1826.50131,0.00145
1824.57259,0.00089
1822.64386,0.00073
1820.71514,0.00056
1818.78642,0.00023
1816.85769,0.00018
1814.92897,0.00041
1813.00025,0.00032
1811.07152,0.00000
1809.14280,-0.00005
1807.21407,0.00019
1805.28535,0.00038
1803.35663,0.00037
1801.42790,0.00031
1799.49918,0.00072
1797.57046,0.00146
1795.64173,0.00181
1793.71301,0.00148
1791.78428,0.00156
1789.85556,0.00265
1787.92684,0.00330
1785.99811,0.00327
1784.06939,0.00359
1782.14067,0.00414
1780.21194,0.00476
1778.28322,0.00575
1776.35450,0.00656
1774.42577,0.00665
1772.49705,0.00677
1770.56832,0.00792
1768.63960,0.00895
1766.71088,0.00964
1764.78215,0.01011
1762.85343,0.01006
1760.92471,0.01063
1758.99598,0.01157
1757.06726,0.01216
1755.13854,0.01320
1753.20981,0.01397
1751.28109,0.01426
1749.35236,0.01536
1747.42364,0.01699
1745.49492,0.01821
1743.56619,0.01905
1741.63747,0.01989
1739.70875,0.02132
1737.78002,0.02331
1735.85130,0.02397
1733.92257,0.02464
1731.99385,0.02740
1730.06513,0.02977
1728.13640,0.03145
1726.20768,0.03315
1724.27896,0.03499
1722.35023,0.03726
1720.42151,0.03886
1718.49279,0.03974
1716.56406,0.04209
1714.63534,0.04526
1712.70661,0.04759
1710.77789,0.04927
1708.84917,0.05077
1706.92044,0.05249
1704.99172,0.05518
1703.06300,0.05784
1701.13427,0.05944
1699.20555,0.06242
1697.27683,0.06566
1695.34810,0.06829
1693.41938,0.07172
1691.49065,0.07445
1689.56193,0.07703
1687.63321,0.07990
1685.70448,0.08189
1683.77576,0.08517
1681.84704,0.09050
1679.91831,0.09433
1677.98959,0.09648
1676.06087,0.09856
1674.13214,0.10206
1672.20342,0.10542
1670.27469,0.10751
1668.34597,0.11074
1666.41725,0.11435
1664.48852,0.11628
1662.55980,0.11809
1660.63108,0.12113
1658.70235,0.12398
1656.77363,0.12527
1654.84490,0.12478
1652.91618,0.12618
1650.98746,0.13094
1649.05873,0.13248
1647.13001,0.13155
1645.20129,0.13271
1643.27256,0.13462
1641.34384,0.13546
1639.41512,0.13564
1637.48639,0.13490
1635.55767,0.13449
1633.62894,0.13587
1631.70022,0.13653
1629.77150,0.13545
1627.84277,0.13429
1625.91405,0.13330
1623.98533,0.13155
1622.05660,0.13024
1620.12788,0.12894
1618.19916,0.12557
1616.27043,0.12187
1614.34171,0.11978
1612.41298,0.11744
1610.48426,0.11406
1608.55554,0.11062
1606.62681,0.10751
1604.69809,0.10439
1602.76937,0.10118
1600.84064,0.09823
1598.91192,0.09554
1596.98319,0.09283
1595.05447,0.09016
1593.12575,0.08778
1591.19702,0.08562
1589.26830,0.08350
1587.33958,0.08137
1585.41085,0.07924
1583.48213,0.07734
1581.55341,0.07588
1579.62468,0.07429
1577.69596,0.07156
1575.76723,0.06938
1573.83851,0.06920
1571.90979,0.06808
1569.98106,0.06560
1568.05234,0.06442
1566.12362,0.06401
1564.19489,0.06373
1562.26617,0.06285
1560.33745,0.05961
1558.40872,0.05743
1556.48000,0.05870
1554.55127,0.05869
1552.62255,0.05734
1550.69383,0.05585
1548.76510,0.05495
1546.83638,0.05431
1544.90766,0.05309
1542.97893,0.05118
1541.05021,0.04819
1539.12148,0.04676
1537.19276,0.04754
1535.26404,0.04617
1533.33531,0.04340
1531.40659,0.04226
1529.47787,0.04125
1527.54914,0.03943
1525.62042,0.03811
1523.69170,0.03663
1521.76297,0.03450
1519.83425,0.03338
1517.90552,0.03212
1515.97680,0.03049
1514.04808,0.02957
1512.11935,0.02872
1510.19063,0.02699
1508.26191,0.02332
1506.33318,0.02033
1504.40446,0.02057
1502.47574,0.02032
1500.54701,0.01811
1498.61829,0.01549
1496.68956,0.01405
1494.76084,0.01429
1492.83212,0.01411
1490.90339,0.01247
1488.97467,0.01134
1487.04595,0.01156
1485.11722,0.01202
1483.18850,0.01210
1481.25977,0.01233
1479.33105,0.01314
1477.40233,0.01400
1475.47360,0.01479
1473.54488,0.01592
1471.61616,0.01838
1469.68743,0.02138
1467.75871,0.02267
1465.82999,0.02289
1463.90126,0.02425
1461.97254,0.02623
1460.04381,0.02636
1458.11509,0.02519
1456.18637,0.02590
1454.25764,0.02779
1452.32892,0.02828
1450.40020,0.02774
1448.47147,0.02732
1446.54275,0.02771
1444.61403,0.02843
1442.68530,0.02895
1440.75658,0.02945
1438.82785,0.02933
1436.89913,0.02910
1434.97041,0.03033
1433.04168,0.03144
1431.11296,0.03146
1429.18424,0.03177
1427.25551,0.03260
1425.32679,0.03321
1423.39806,0.03407
1421.46934,0.03476
1419.54062,0.03492
1417.61189,0.03615
1415.68317,0.03786
1413.75445,0.03872
1411.82572,0.03939
1409.89700,0.04047
1407.96828,0.04160
1406.03955,0.04239
1404.11083,0.04340
1402.18210,0.04429
1400.25338,0.04401
1398.32466,0.04307
1396.39593,0.04170
1394.46721,0.04005
1392.53849,0.03912
1390.60976,0.03876
1388.68104,0.03920
1386.75232,0.04127
1384.82359,0.04294
1382.89487,0.04134
1380.96614,0.03725
1379.03742,0.03336
1377.10870,0.03055
1375.17997,0.02825
1373.25125,0.02664
1371.32253,0.02559
1369.39380,0.02438
1367.46508,0.02333
1365.53635,0.02231
1363.60763,0.02096
1361.67891,0.02003
1359.75018,0.01965
1357.82146,0.01908
1355.89274,0.01827
1353.96401,0.01766
1352.03529,0.01734
1350.10657,0.01707
1348.17784,0.01679
1346.24912,0.01659
1344.32039,0.01654
1342.39167,0.01635
1340.46295,0.01592
1338.53422,0.01587
1336.60550,0.01631
1334.67678,0.01670
1332.74805,0.01693
1330.81933,0.01717
1328.89061,0.01751
1326.96188,0.01797
1325.03316,0.01857
1323.10443,0.01924
1321.17571,0.01986
1319.24699,0.02045
1317.31826,0.02112
1315.38954,0.02173
1313.46082,0.02224
1311.53209,0.02287
1309.60337,0.02353
1307.67464,0.02424
1305.74592,0.02516
1303.81720,0.02625
1301.88847,0.02746
1299.95975,0.02885
1298.03103,0.03045
1296.10230,0.03225
1294.17358,0.03423
1292.24486,0.03643
1290.31613,0.03899
1288.38741,0.04191
1286.45868,0.04511
1284.52996,0.04846
1282.60124,0.05199
1280.67251,0.05591
1278.74379,0.06032
1276.81507,0.06515
1274.88634,0.07036
1272.95762,0.07611
1271.02890,0.08260
1269.10017,0.08989
1267.17145,0.09797
1265.24272,0.10708
1263.31400,0.11732
1261.38528,0.12858
1259.45655,0.14082
1257.52783,0.15385
1255.59911,0.16735
1253.67038,0.18097
1251.74166,0.19419
1249.81294,0.20672
1247.88421,0.21837
1245.95549,0.22900
1244.02676,0.23864
1242.09804,0.24731
1240.16932,0.25514
1238.24059,0.26242
1236.31187,0.26900
1234.38315,0.27465
1232.45442,0.27975
1230.52570,0.28467
1228.59697,0.28919
1226.66825,0.29319
1224.73953,0.29691
1222.81080,0.30046
1220.88208,0.30373
1218.95336,0.30696
1217.02463,0.31028
1215.09591,0.31349
1213.16719,0.31649
1211.23846,0.31928
1209.30974,0.32179
1207.38101,0.32423
1205.45229,0.32684
1203.52357,0.32952
1201.59484,0.33220
1199.66612,0.33497
1197.73740,0.33776
1195.80867,0.34027
1193.87995,0.34244
1191.95123,0.34451
1190.02250,0.34677
1188.09378,0.34942
1186.16505,0.35220
1184.23633,0.35462
1182.30761,0.35673
1180.37888,0.35883
1178.45016,0.36111
1176.52144,0.36369
1174.59271,0.36630
1172.66399,0.36848
1170.73526,0.37041
1168.80654,0.37243
1166.87782,0.37464
1164.94909,0.37689
1163.02037,0.37895
1161.09165,0.38090
1159.16292,0.38283
1157.23420,0.38472
1155.30548,0.38658
1153.37675,0.38865
1151.44803,0.39092
1149.51930,0.39291
1147.59058,0.39472
1145.66186,0.39682
1143.73313,0.39909
1141.80441,0.40141
1139.87569,0.40383
1137.94696,0.40613
1136.01824,0.40830
1134.08952,0.41079
1132.16079,0.41368
1130.23207,0.41667
1128.30334,0.41966
1126.37462,0.42289
1124.44590,0.42645
1122.51717,0.43032
1120.58845,0.43465
1118.65973,0.43945
1116.73100,0.44458
1114.80228,0.44991
1112.87355,0.45578
1110.94483,0.46257
1109.01611,0.46977
1107.08738,0.47663
1105.15866,0.48286
1103.22994,0.48850
1101.30121,0.49319
1099.37249,0.49669
1097.44377,0.49958
1095.51504,0.50237
1093.58632,0.50480
1091.65759,0.50611
1089.72887,0.50613
1087.80015,0.50559
1085.87142,0.50479
1083.94270,0.50343
1082.01398,0.50154
1080.08525,0.49977
1078.15653,0.49820
1076.22781,0.49582
1074.29908,0.49248
1072.37036,0.48903
1070.44163,0.48568
1068.51291,0.48210
1066.58419,0.47784
1064.65546,0.47279
1062.72674,0.46759
1060.79802,0.46204
1058.86929,0.45577
1056.94057,0.44950
1055.01184,0.44320
1053.08312,0.43583
1051.15440,0.42726
1049.22567,0.41857
1047.29695,0.41034
1045.36823,0.40230
1043.43950,0.39419
1041.51078,0.38553
1039.58206,0.37612
1037.65333,0.36636
1035.72461,0.35654
1033.79588,0.34679
1031.86716,0.33726
1029.93844,0.32805
1028.00971,0.31904
1026.08099,0.31014
1024.15227,0.30164
1022.22354,0.29356
1020.29482,0.28584
1018.36610,0.27872
1016.43737,0.27212
1014.50865,0.26582
1012.57992,0.25980
1010.65120,0.25397
1008.72248,0.24838
1006.79375,0.24312
1004.86503,0.23800
1002.93631,0.23285
1001.00758,0.22787
999.07886,0.22332
997.15013,0.21915
995.22141,0.21535
993.29269,0.21207
991.36396,0.20923
989.43524,0.20658
987.50652,0.20401
985.57779,0.20170
983.64907,0.19994
981.72035,0.19873
979.79162,0.19793
977.86290,0.19756
975.93417,0.19755
974.00545,0.19766
972.07673,0.19774
970.14800,0.19780
968.21928,0.19804
966.29056,0.19853
964.36183,0.19893
962.43311,0.19880
960.50439,0.19822
958.57566,0.19764
956.64694,0.19721
954.71821,0.19666
952.78949,0.19587
950.86077,0.19503
948.93204,0.19396
947.00332,0.19255
945.07460,0.19103
943.14587,0.18914
941.21715,0.18651
939.28842,0.18356
937.35970,0.18091
935.43098,0.17867
933.50225,0.17630
931.57353,0.17330
929.64481,0.16984
927.71608,0.16625
925.78736,0.16262
923.85864,0.15897
921.92991,0.15531
920.00119,0.15159
918.07246,0.14774
916.14374,0.14381
914.21502,0.13974
912.28629,0.13548
910.35757,0.13123
908.42885,0.12721
906.50012,0.12344
904.57140,0.11953
902.64268,0.11523
900.71395,0.11085
898.78523,0.10682
896.85650,0.10306
894.92778,0.09929
892.99906,0.09556
891.07033,0.09192
889.14161,0.08846
887.21289,0.08532
885.28416,0.08235
883.35544,0.07930
881.42671,0.07631
879.49799,0.07374
877.56927,0.07168
875.64054,0.06989
873.71182,0.06805
871.78310,0.06598
869.85437,0.06388
867.92565,0.06205
865.99693,0.06064
864.06820,0.05946
862.13948,0.05814
860.21075,0.05677
858.28203,0.05567
856.35331,0.05474
854.42458,0.05401
852.49586,0.05401
850.56714,0.05468
848.63841,0.05551
846.70969,0.05668
844.78097,0.05875
842.85224,0.06177
840.92352,0.06523
838.99479,0.06870
837.06607,0.07241
835.13735,0.07681
833.20862,0.08178
831.27990,0.08673
829.35118,0.09143
827.42245,0.09595
825.49373,0.10046
823.56501,0.10507
821.63628,0.10972
819.70756,0.11408
817.77883,0.11802
815.85011,0.12188
813.92139,0.12572
811.99266,0.12930
810.06394,0.13294
808.13522,0.13670
806.20649,0.13996
804.27777,0.14276
802.34904,0.14526
800.42032,0.14689
798.49160,0.14736
796.56287,0.14711
794.63415,0.14645
792.70543,0.14504
790.77670,0.14261
788.84798,0.13953
786.91926,0.13657
784.99053,0.13364
783.06181,0.12990
781.13308,0.12513
779.20436,0.11971
777.27564,0.11399
775.34691,0.10817
773.41819,0.10256
771.48947,0.09756
769.56074,0.09324
767.63202,0.08975
765.70330,0.08752
763.77457,0.08629
761.84585,0.08526
759.91712,0.08413
757.98840,0.08327
756.05968,0.08307
754.13095,0.08315
752.20223,0.08279
750.27351,0.08194
748.34478,0.08143
746.41606,0.08158
744.48733,0.08171
742.55861,0.08121
740.62989,0.08047
738.70116,0.07995
736.77244,0.07972
734.84372,0.07986
732.91499,0.08008
730.98627,0.07991
729.05755,0.07956
727.12882,0.07939
725.20010,0.07928
723.27137,0.07906
721.34265,0.07886
719.41393,0.07873
717.48520,0.07859
715.55648,0.07841
713.62776,0.07837
711.69903,0.07870
709.77031,0.07929
707.84159,0.07988
705.91286,0.08021
703.98414,0.08019
702.05541,0.08025
700.12669,0.08096
698.19797,0.08217
696.26924,0.08318
694.34052,0.08353
692.41180,0.08351
690.48307,0.08362
688.55435,0.08402
686.62562,0.08466
684.69690,0.08533
682.76818,0.08553
680.83945,0.08519
678.91073,0.08497
676.98201,0.08523
675.05328,0.08553
673.12456,0.08564
671.19584,0.08584
669.26711,0.08626
667.33839,0.08666
665.40966,0.08707
663.48094,0.08769
661.55222,0.08824
659.62349,0.08833
657.69477,0.08840
655.76605,0.08920
653.83732,0.09057
651.90860,0.09183
649.97988,0.09291
648.05115,0.09427
646.12243,0.09606
644.19370,0.09796
642.26498,0.09962
640.33626,0.10123
638.40753,0.10285
636.47881,0.10401
634.55009,0.10461
632.62136,0.10525
630.69264,0.10613
628.76391,0.10708
626.83519,0.10807
624.90647,0.10921
622.97774,0.11061
621.04902,0.11233
619.12030,0.11412
617.19157,0.11546
615.26285,0.11654
613.33413,0.11793
611.40540,0.11950
609.47668,0.12107
607.54795,0.12296
605.61923,0.12511
603.69051,0.12713
601.76178,0.12928
599.83306,0.13180
597.90434,0.13397
595.97561,0.13530
594.04689,0.13596
592.11817,0.13677
590.18944,0.13881
588.26072,0.14138
586.33199,0.14330
584.40327,0.14483
582.47455,0.14634
580.54582,0.14782
578.61710,0.14907
576.68838,0.14987
574.75965,0.15074
572.83093,0.15171
570.90220,0.15245
568.97348,0.15279
567.04476,0.15274
565.11603,0.15281
563.18731,0.15314
561.25859,0.15363
559.32986,0.15439
557.40114,0.15534
555.47242,0.15629
553.54369,0.15703
551.61497,0.15759
549.68624,0.15858
547.75752,0.16056
545.82880,0.16316
543.90007,0.16445
541.97135,0.16306
540.04263,0.16101
538.11390,0.16044
536.18518,0.16011
534.25646,0.15892
532.32773,0.15851
530.39901,0.15974
528.47028,0.16105
526.54156,0.16149
524.61284,0.16172
522.68411,0.16213
520.75539,0.16272
518.82667,0.16336
516.89794,0.16477
514.96922,0.16822
513.04049,0.17240
511.11177,0.17558
509.18305,0.17911
507.25432,0.18494
505.32560,0.19199
503.39688,0.19819
501.46815,0.20432
499.53943,0.21216
497.61071,0.22129
495.68198,0.23041
493.75326,0.24047
491.82453,0.25215
489.89581,0.26323
487.96709,0.27271
486.03836,0.28110
484.10964,0.28863
482.18092,0.29664
480.25219,0.30642
478.32347,0.31710
476.39475,0.32716
474.46602,0.33577
472.53730,0.34183
470.60857,0.34577
468.67985,0.34982
466.75113,0.35328
464.82240,0.35318
462.89368,0.34945
460.96496,0.34414
459.03623,0.33810
457.10751,0.33209
455.17878,0.32555
453.25006,0.31749
451.32134,0.31038
449.39261,0.30588
447.46389,0.30106
445.53517,0.29297
443.60644,0.28408
441.67772,0.27912
439.74900,0.27772
437.82027,0.27550
435.89155,0.27055
433.96282,0.26448
432.03410,0.25659
430.10538,0.24289
428.17665,0.22420
426.24793,0.20863
424.31921,0.20184
422.39048,0.19921
420.46176,0.19279
418.53304,0.18366
416.60431,0.17699
414.67559,0.17192
412.74686,0.16622
410.81814,0.15953
408.88942,0.15415
406.96069,0.15270
405.03197,0.15358
403.10325,0.15243
401.17452,0.14607
399.24580,0.13579
397.31708,0.12679
395.38835,0.12059
393.45963,0.11805
391.53090,0.12035
389.60218,0.12022
387.67346,0.11094
385.74473,0.09585
383.81601,0.08228
381.88729,0.07439
379.95856,0.07035
378.02984,0.06803
376.10111,0.06772
374.17239,0.06605
372.24367,0.05725
370.31494,0.03476
368.38622,0.00000
