3996.31543,0.00000
3994.38671,0.00014
3992.45799,0.00030
3990.52926,0.00044
3988.60054,0.00050
3986.67182,0.00053
3984.74309,0.00062
3982.81437,0.00066
3980.88564,0.00062
3978.95692,0.00059
3977.02820,0.00062
3975.09947,0.00067
3973.17075,0.00066
3971.24203,0.00059
3969.31330,0.00057
3967.38458,0.00067
3965.45586,0.00076
3963.52713,0.00072
3961.59841,0.00068
3959.66968,0.00077
3957.74096,0.00077
3955.81224,0.00061
3953.88351,0.00056
3951.95479,0.00069
3950.02607,0.00086
3948.09734,0.00094
3946.16862,0.00095
3944.23990,0.00090
3942.31117,0.00082
3940.38245,0.00073
3938.45372,0.00076
3936.52500,0.00099
3934.59628,0.00124
3932.66755,0.00124
3930.73883,0.00098
3928.81011,0.00074
3926.88138,0.00063
3924.95266,0.00057
3923.02393,0.00060
3921.09521,0.00073
3919.16649,0.00088
3917.23776,0.00092
3915.30904,0.00082
3913.38032,0.00073
3911.45159,0.00085
3909.52287,0.00111
3907.59415,0.00131
3905.66542,0.00129
3903.73670,0.00107
3901.80797,0.00073
3899.87925,0.00048
3897.95053,0.00052
3896.02180,0.00076
3894.09308,0.00089
3892.16436,0.00073
3890.23563,0.00056
3888.30691,0.00063
3886.37819,0.00073
3884.44946,0.00073
3882.52074,0.00083
3880.59201,0.00092
3878.66329,0.00087
3876.73457,0.00078
3874.80584,0.00074
3872.87712,0.00077
3870.94840,0.00087
3869.01967,0.00097
3867.09095,0.00100
3865.16222,0.00081
3863.23350,0.00046
3861.30478,0.00033
3859.37605,0.00062
3857.44733,0.00119
3855.51861,0.00147
3853.58988,0.00089
3851.66116,0.00010
3849.73244,0.00000
3847.80371,0.00038
3845.87499,0.00076
3843.94626,0.00099
3842.01754,0.00108
3840.08882,0.00101
3838.16009,0.00073
3836.23137,0.00048
3834.30265,0.00054
3832.37392,0.00077
3830.44520,0.00091
3828.51648,0.00100
3826.58775,0.00119
3824.65903,0.00146
3822.73030,0.00157
3820.80158,0.00144
3818.87286,0.00135
3816.94413,0.00140
3815.01541,0.00154
3813.08669,0.00185
3811.15796,0.00215
3809.22924,0.00218
3807.30052,0.00197
3805.37179,0.00191
3803.44307,0.00208
3801.51434,0.00204
3799.58562,0.00173
3797.65690,0.00164
3795.72817,0.00190
3793.79945,0.00223
3791.87073,0.00244
3789.94200,0.00262
3788.01328,0.00283
3786.08455,0.00301
3784.15583,0.00320
3782.22711,0.00333
3780.29838,0.00331
3778.36966,0.00338
3776.44094,0.00377
3774.51221,0.00429
3772.58349,0.00466
3770.65477,0.00483
3768.72604,0.00498
3766.79732,0.00529
3764.86859,0.00572
3762.93987,0.00606
3761.01115,0.00620
3759.08242,0.00633
3757.15370,0.00669
3755.22498,0.00719
3753.29625,0.00756
3751.36753,0.00786
3749.43881,0.00849
3747.51008,0.00942
3745.58136,0.01025
3743.65263,0.01073
3741.72391,0.01114
3739.79519,0.01180
3737.86646,0.01262
3735.93774,0.01343
3734.00902,0.01423
3732.08029,0.01515
3730.15157,0.01617
3728.22284,0.01720
3726.29412,0.01830
3724.36540,0.01964
3722.43667,0.02130
3720.50795,0.02300
3718.57923,0.02460
3716.65050,0.02618
3714.72178,0.02784
3712.79306,0.02981
3710.86433,0.03230
3708.93561,0.03500
3707.00688,0.03758
3705.07816,0.04006
3703.14944,0.04265
3701.22071,0.04552
3699.29199,0.04857
3697.36327,0.05159
3695.43454,0.05442
3693.50582,0.05698
3691.57710,0.05962
3689.64837,0.06289
3687.71965,0.06654
3685.79092,0.06993
3683.86220,0.07311
3681.93348,0.07636
3680.00475,0.07967
3678.07603,0.08323
3676.14731,0.08760
3674.21858,0.09245
3672.28986,0.09686
3670.36113,0.10147
3668.43241,0.10642
3666.50369,0.11068
3664.57496,0.11430
3662.64624,0.11791
3660.71752,0.12177
3658.78879,0.12586
3656.86007,0.13012
3654.93135,0.13412
3653.00262,0.13751
3651.07390,0.14109
3649.14517,0.14586
3647.21645,0.15103
3645.28773,0.15534
3643.35900,0.15897
3641.43028,0.16257
3639.50156,0.16628
3637.57283,0.16997
3635.64411,0.17357
3633.71539,0.17705
3631.78666,0.18038
3629.85794,0.18388
3627.92921,0.18757
3626.00049,0.19075
3624.07177,0.19343
3622.14304,0.19599
3620.21432,0.19859
3618.28560,0.20113
3616.35687,0.20347
3614.42815,0.20577
3612.49942,0.20821
3610.57070,0.21057
3608.64198,0.21280
3606.71325,0.21506
3604.78453,0.21719
3602.85581,0.21909
3600.92708,0.22098
3598.99836,0.22284
3597.06964,0.22460
3595.14091,0.22646
3593.21219,0.22848
3591.28346,0.23033
3589.35474,0.23200
3587.42602,0.23376
3585.49729,0.23566
3583.56857,0.23744
3581.63985,0.23902
3579.71112,0.24061
3577.78240,0.24236
3575.85368,0.24413
3573.92495,0.24564
3571.99623,0.24693
3570.06750,0.24808
3568.13878,0.24926
3566.21006,0.25062
3564.28133,0.25211
3562.35261,0.25361
3560.42389,0.25505
3558.49516,0.25632
3556.56644,0.25738
3554.63771,0.25827
3552.70899,0.25918
3550.78027,0.26014
3548.85154,0.26091
3546.92282,0.26139
3544.99410,0.26186
3543.06537,0.26267
3541.13665,0.26368
3539.20793,0.26446
3537.27920,0.26494
3535.35048,0.26547
3533.42175,0.26610
3531.49303,0.26666
3529.56431,0.26715
3527.63558,0.26771
3525.70686,0.26827
3523.77814,0.26881
3521.84941,0.26948
3519.92069,0.27027
3517.99197,0.27102
3516.06324,0.27157
3514.13452,0.27204
3512.20579,0.27263
3510.27707,0.27325
3508.34835,0.27373
3506.41962,0.27422
3504.49090,0.27493
3502.56218,0.27573
3500.63345,0.27642
3498.70473,0.27705
3496.77600,0.27770
3494.84728,0.27844
3492.91856,0.27926
3490.98983,0.28005
3489.06111,0.28075
3487.13239,0.28134
3485.20366,0.28183
3483.27494,0.28223
3481.34622,0.28265
3479.41749,0.28318
3477.48877,0.28384
3475.56004,0.28460
3473.63132,0.28524
3471.70260,0.28572
3469.77387,0.28618
3467.84515,0.28664
3465.91643,0.28707
3463.98770,0.28752
3462.05898,0.28806
3460.13026,0.28867
3458.20153,0.28921
3456.27281,0.28966
3454.34408,0.29005
3452.41536,0.29032
3450.48664,0.29051
3448.55791,0.29087
3446.62919,0.29154
3444.70047,0.29224
3442.77174,0.29262
3440.84302,0.29283
3438.91429,0.29307
3436.98557,0.29326
3435.05685,0.29333
3433.12812,0.29336
3431.19940,0.29355
3429.27068,0.29380
3427.34195,0.29387
3425.41323,0.29387
3423.48451,0.29401
3421.55578,0.29426
3419.62706,0.29445
3417.69833,0.29447
3415.76961,0.29442
3413.84089,0.29445
3411.91216,0.29458
3409.98344,0.29486
3408.05472,0.29513
3406.12599,0.29511
3404.19727,0.29477
3402.26855,0.29434
3400.33982,0.29397
3398.41110,0.29378
3396.48237,0.29374
3394.55365,0.29372
3392.62493,0.29359
3390.69620,0.29328
3388.76748,0.29285
3386.83876,0.29248
3384.91003,0.29218
3382.98131,0.29176
3381.05259,0.29123
3379.12386,0.29079
3377.19514,0.29051
3375.26641,0.29025
3373.33769,0.28987
3371.40897,0.28929
3369.48024,0.28862
3367.55152,0.28816
3365.62280,0.28796
3363.69407,0.28763
3361.76535,0.28699
3359.83662,0.28628
3357.90790,0.28563
3355.97918,0.28497
3354.05045,0.28430
3352.12173,0.28359
3350.19301,0.28294
3348.26428,0.28252
3346.33556,0.28221
3344.40684,0.28172
3342.47811,0.28102
3340.54939,0.28029
3338.62066,0.27957
3336.69194,0.27879
3334.76322,0.27801
3332.83449,0.27739
3330.90577,0.27687
3328.97705,0.27624
3327.04832,0.27556
3325.11960,0.27498
3323.19088,0.27432
3321.26215,0.27357
3319.33343,0.27286
3317.40470,0.27221
3315.47598,0.27170
3313.54726,0.27125
3311.61853,0.27061
3309.68981,0.26978
3307.76109,0.26900
3305.83236,0.26830
3303.90364,0.26754
3301.97491,0.26677
3300.04619,0.26612
3298.11747,0.26562
3296.18874,0.26517
3294.26002,0.26463
3292.33130,0.26404
3290.40257,0.26351
3288.47385,0.26295
3286.54513,0.26222
3284.61640,0.26153
3282.68768,0.26110
3280.75895,0.26073
3278.83023,0.26026
3276.90151,0.25973
3274.97278,0.25915
3273.04406,0.25870
3271.11534,0.25838
3269.18661,0.25784
3267.25789,0.25707
3265.32917,0.25651
3263.40044,0.25617
3261.47172,0.25571
3259.54299,0.25515
3257.61427,0.25463
3255.68555,0.25409
3253.75682,0.25354
3251.82810,0.25303
3249.89938,0.25252
3247.97065,0.25194
3246.04193,0.25134
3244.11320,0.25087
3242.18448,0.25060
3240.25576,0.25029
3238.32703,0.24973
3236.39831,0.24899
3234.46959,0.24817
3232.54086,0.24732
3230.61214,0.24657
3228.68342,0.24599
3226.75469,0.24542
3224.82597,0.24477
3222.89724,0.24408
3220.96852,0.24331
3219.03980,0.24248
3217.11107,0.24173
3215.18235,0.24108
3213.25363,0.24047
3211.32490,0.23987
3209.39618,0.23917
3207.46746,0.23832
3205.53873,0.23730
3203.61001,0.23618
3201.68128,0.23518
3199.75256,0.23440
3197.82384,0.23363
3195.89511,0.23277
3193.96639,0.23192
3192.03767,0.23105
3190.10894,0.23006
3188.18022,0.22900
3186.25149,0.22797
3184.32277,0.22701
3182.39405,0.22609
3180.46532,0.22517
3178.53660,0.22416
3176.60788,0.22303
3174.67915,0.22200
3172.75043,0.22115
3170.82171,0.22033
3168.89298,0.21938
3166.96426,0.21836
3165.03553,0.21733
3163.10681,0.21629
3161.17809,0.21521
3159.24936,0.21413
3157.32064,0.21305
3155.39192,0.21201
3153.46319,0.21117
3151.53447,0.21033
3149.60575,0.20923
3147.67702,0.20806
3145.74830,0.20710
3143.81957,0.20617
3141.89085,0.20501
3139.96213,0.20372
3138.03340,0.20265
3136.10468,0.20191
3134.17596,0.20119
3132.24723,0.20030
3130.31851,0.19935
3128.38978,0.19839
3126.46106,0.19738
3124.53234,0.19629
3122.60361,0.19514
3120.67489,0.19404
3118.74617,0.19298
3116.81744,0.19190
3114.88872,0.19080
3112.96000,0.18965
3111.03127,0.18844
3109.10255,0.18728
3107.17382,0.18620
3105.24510,0.18514
3103.31638,0.18399
3101.38765,0.18270
3099.45893,0.18140
3097.53021,0.18023
3095.60148,0.17913
3093.67276,0.17802
3091.74404,0.17689
3089.81531,0.17567
3087.88659,0.17439
3085.95786,0.17318
3084.02914,0.17211
3082.10042,0.17105
3080.17169,0.16995
3078.24297,0.16879
3076.31425,0.16759
3074.38552,0.16637
3072.45680,0.16506
3070.52807,0.16378
3068.59935,0.16277
3066.67063,0.16191
3064.74190,0.16092
3062.81318,0.15980
3060.88446,0.15858
3058.95573,0.15731
3057.02701,0.15615
3055.09829,0.15518
3053.16956,0.15425
3051.24084,0.15328
3049.31211,0.15227
3047.38339,0.15125
3045.45467,0.15018
3043.52594,0.14912
3041.59722,0.14814
3039.66850,0.14718
3037.73977,0.14623
3035.81105,0.14538
3033.88233,0.14456
3031.95360,0.14361
3030.02488,0.14253
3028.09615,0.14154
3026.16743,0.14077
3024.23871,0.14004
3022.30998,0.13912
3020.38126,0.13808
3018.45254,0.13713
3016.52381,0.13632
3014.59509,0.13555
3012.66636,0.13470
3010.73764,0.13374
3008.80892,0.13276
3006.88019,0.13190
3004.95147,0.13116
3003.02275,0.13038
3001.09402,0.12950
2999.16530,0.12862
2997.23658,0.12777
2995.30785,0.12697
2993.37913,0.12626
2991.45040,0.12566
2989.52168,0.12509
2987.59296,0.12456
2985.66423,0.12412
2983.73551,0.12374
2981.80679,0.12340
2979.87806,0.12320
2977.94934,0.12314
2976.02062,0.12315
2974.09189,0.12331
2972.16317,0.12362
2970.23444,0.12394
2968.30572,0.12420
2966.37700,0.12438
2964.44827,0.12445
2962.51955,0.12421
2960.59083,0.12359
2958.66210,0.12269
2956.73338,0.12160
2954.80466,0.12041
2952.87593,0.11923
2950.94721,0.11809
2949.01848,0.11712
2947.08976,0.11649
2945.16104,0.11622
2943.23231,0.11629
2941.30359,0.11674
2939.37487,0.11740
2937.44614,0.11813
2935.51742,0.11894
2933.58869,0.11982
2931.65997,0.12061
2929.73125,0.12105
2927.80252,0.12091
2925.87380,0.12015
2923.94508,0.11873
2922.01635,0.11660
2920.08763,0.11398
2918.15891,0.11138
2916.23018,0.10916
2914.30146,0.10730
2912.37273,0.10562
2910.44401,0.10398
2908.51529,0.10239
2906.58656,0.10087
2904.65784,0.09937
2902.72912,0.09783
2900.80039,0.09633
2898.87167,0.09496
2896.94295,0.09373
2895.01422,0.09254
2893.08550,0.09133
2891.15677,0.09013
2889.22805,0.08905
2887.29933,0.08815
2885.37060,0.08741
2883.44188,0.08686
2881.51316,0.08649
2879.58443,0.08612
2877.65571,0.08564
2875.72698,0.08514
2873.79826,0.08470
2871.86954,0.08423
2869.94081,0.08367
2868.01209,0.08317
2866.08337,0.08284
2864.15464,0.08272
2862.22592,0.08286
2860.29720,0.08316
2858.36847,0.08342
2856.43975,0.08344
2854.51102,0.08291
2852.58230,0.08162
2850.65358,0.07959
2848.72485,0.07709
2846.79613,0.07449
2844.86741,0.07206
2842.93868,0.06994
2841.00996,0.06813
2839.08124,0.06658
2837.15251,0.06522
2835.22379,0.06402
2833.29506,0.06294
2831.36634,0.06196
2829.43762,0.06108
2827.50889,0.06018
2825.58017,0.05926
2823.65145,0.05843
2821.72272,0.05767
2819.79400,0.05693
2817.86527,0.05625
2815.93655,0.05565
2814.00783,0.05507
2812.07910,0.05442
2810.15038,0.05374
2808.22166,0.05308
2806.29293,0.05246
2804.36421,0.05189
2802.43549,0.05130
2800.50676,0.05071
2798.57804,0.05015
2796.64931,0.04958
2794.72059,0.04896
2792.79187,0.04834
2790.86314,0.04772
2788.93442,0.04708
2787.00570,0.04650
2785.07697,0.04600
2783.14825,0.04546
2781.21953,0.04482
2779.29080,0.04422
2777.36208,0.04377
2775.43335,0.04342
2773.50463,0.04296
2771.57591,0.04235
2769.64718,0.04172
2767.71846,0.04116
2765.78974,0.04064
2763.86101,0.04014
2761.93229,0.03963
2760.00356,0.03909
2758.07484,0.03857
2756.14612,0.03805
2754.21739,0.03754
2752.28867,0.03709
2750.35995,0.03672
2748.43122,0.03627
2746.50250,0.03561
2744.57378,0.03497
2742.64505,0.03453
2740.71633,0.03416
2738.78760,0.03375
2736.85888,0.03330
2734.93016,0.03282
2733.00143,0.03234
2731.07271,0.03196
2729.14399,0.03162
2727.21526,0.03123
2725.28654,0.03075
2723.35782,0.03021
2721.42909,0.02970
2719.50037,0.02920
2717.57164,0.02870
2715.64292,0.02826
2713.71420,0.02788
2711.78547,0.02746
2709.85675,0.02701
2707.92803,0.02658
2705.99930,0.02616
2704.07058,0.02573
2702.14185,0.02537
2700.21313,0.02506
2698.28441,0.02469
2696.35568,0.02425
2694.42696,0.02382
2692.49824,0.02344
2690.56951,0.02307
2688.64079,0.02270
2686.71207,0.02230
2684.78334,0.02188
2682.85462,0.02151
2680.92589,0.02123
2678.99717,0.02089
2677.06845,0.02050
2675.13972,0.02017
2673.21100,0.01984
2671.28228,0.01940
2669.35355,0.01895
2667.42483,0.01859
2665.49611,0.01828
2663.56738,0.01795
2661.63866,0.01758
2659.70993,0.01719
2657.78121,0.01679
2655.85249,0.01640
2653.92376,0.01605
2651.99504,0.01576
2650.06632,0.01549
2648.13759,0.01521
2646.20887,0.01496
2644.28014,0.01471
2642.35142,0.01437
2640.42270,0.01404
2638.49397,0.01375
2636.56525,0.01343
2634.63653,0.01311
2632.70780,0.01280
2630.77908,0.01249
2628.85036,0.01222
2626.92163,0.01200
2624.99291,0.01175
2623.06418,0.01142
2621.13546,0.01105
2619.20674,0.01074
2617.27801,0.01051
2615.34929,0.01032
2613.42057,0.01011
2611.49184,0.00986
2609.56312,0.00958
2607.63440,0.00930
2605.70567,0.00903
2603.77695,0.00877
2601.84822,0.00852
2599.91950,0.00827
2597.99078,0.00802
2596.06205,0.00779
2594.13333,0.00757
2592.20461,0.00732
2590.27588,0.00712
2588.34716,0.00696
2586.41843,0.00673
2584.48971,0.00645
2582.56099,0.00618
2580.63226,0.00601
2578.70354,0.00591
2576.77482,0.00577
2574.84609,0.00558
2572.91737,0.00540
2570.98865,0.00525
2569.05992,0.00506
2567.13120,0.00483
2565.20247,0.00457
2563.27375,0.00437
2561.34503,0.00423
2559.41630,0.00409
2557.48758,0.00392
2555.55886,0.00376
2553.63013,0.00363
2551.70141,0.00351
2549.77269,0.00338
2547.84396,0.00323
2545.91524,0.00306
2543.98651,0.00291
2542.05779,0.00274
2540.12907,0.00260
2538.20034,0.00255
2536.27162,0.00250
2534.34290,0.00234
2532.41417,0.00211
2530.48545,0.00191
2528.55673,0.00175
2526.62800,0.00164
2524.69928,0.00161
2522.77055,0.00164
2520.84183,0.00161
2518.91311,0.00149
2516.98438,0.00136
2515.05566,0.00129
2513.12694,0.00124
2511.19821,0.00110
2509.26949,0.00091
2507.34076,0.00081
2505.41204,0.00076
2503.48332,0.00068
2501.55459,0.00064
2499.62587,0.00067
2497.69715,0.00065
2495.76842,0.00058
2493.83970,0.00053
2491.91098,0.00047
2489.98225,0.00035
2488.05353,0.00024
2486.12480,0.00019
2484.19608,0.00018
2482.26736,0.00021
2480.33863,0.00024
2478.40991,0.00017
2476.48119,0.00004
2474.55246,0.00000
2472.62374,0.00003
2470.69502,0.00009
2468.76629,0.00011
2466.83757,0.00004
2464.90884,-0.00006
2462.98012,-0.00010
2461.05140,-0.00008
2459.12267,-0.00005
2457.19395,-0.00002
2455.26523,0.00002
2453.33650,-0.00002
2451.40778,-0.00010
2449.47905,-0.00014
2447.55033,-0.00016
2445.62161,-0.00014
2443.69288,-0.00012
2441.76416,-0.00011
2439.83544,-0.00007
2437.90671,-0.00003
2435.97799,-0.00005
2434.04927,-0.00007
2432.12054,-0.00005
2430.19182,0.00000
2428.26309,0.00003
2426.33437,0.00002
2424.40565,-0.00003
2422.47692,-0.00009
2420.54820,-0.00016
2418.61948,-0.00021
2416.69075,-0.00018
2414.76203,-0.00014
2412.83331,-0.00018
2410.90458,-0.00023
2408.97586,-0.00024
2407.04713,-0.00024
2405.11841,-0.00028
2403.18969,-0.00031
2401.26096,-0.00034
2399.33224,-0.00037
2397.40352,-0.00036
2395.47479,-0.00029
2393.54607,-0.00022
2391.61734,-0.00016
2389.68862,-0.00012
2387.75990,-0.00006
2385.83117,0.00000
2383.90245,0.00006
2381.97373,0.00010
2380.04500,0.00015
2378.11628,0.00018
2376.18756,0.00012
2374.25883,0.00000
2372.33011,-0.00001
2370.40138,0.00013
2368.47266,0.00023
2366.54394,0.00021
2364.61521,0.00007
2362.68649,-0.00008
2360.75777,-0.00010
2358.82904,-0.00005
2356.90032,-0.00008
2354.97160,-0.00007
2353.04287,0.00021
2351.11415,0.00075
2349.18542,0.00102
2347.25670,0.00068
2345.32798,0.00018
2343.39925,0.00003
2341.47053,0.00012
2339.54181,0.00022
2337.61308,0.00027
2335.68436,0.00022
2333.75563,0.00014
2331.82691,0.00012
2329.89819,0.00016
2327.96946,0.00019
2326.04074,0.00017
2324.11202,0.00010
2322.18329,0.00001
2320.25457,-0.00003
2318.32585,0.00000
2316.39712,0.00009
2314.46840,0.00020
2312.53967,0.00028
2310.61095,0.00028
2308.68223,0.00018
2306.75350,0.00007
2304.82478,0.00001
2302.89606,-0.00005
2300.96733,-0.00008
2299.03861,-0.00003
2297.10989,0.00004
2295.18116,0.00004
2293.25244,-0.00006
2291.32371,-0.00013
2289.39499,-0.00011
2287.46627,-0.00005
2285.53754,-0.00002
2283.60882,-0.00002
2281.68010,-0.00001
2279.75137,-0.00000
2277.82265,0.00002
2275.89392,0.00006
2273.96520,0.00006
2272.03648,0.00000
2270.10775,-0.00006
2268.17903,-0.00004
2266.25031,0.00000
2264.32158,0.00001
2262.39286,0.00000
2260.46414,0.00002
2258.53541,0.00003
2256.60669,-0.00002
2254.67796,-0.00009
2252.74924,-0.00010
2250.82052,-0.00000
2248.89179,0.00013
2246.96307,0.00019
2245.03435,0.00018
2243.10562,0.00011
2241.17690,0.00005
2239.24818,0.00006
2237.31945,0.00008
2235.39073,0.00007
2233.46200,0.00009
2231.53328,0.00008
2229.60456,0.00000
2227.67583,-0.00003
2225.74711,0.00002
2223.81839,0.00004
2221.88966,0.00006
2219.96094,0.00014
2218.03221,0.00017
2216.10349,0.00009
2214.17477,0.00006
2212.24604,0.00012
2210.31732,0.00012
2208.38860,0.00004
2206.45987,0.00000
2204.53115,-0.00000
2202.60243,0.00001
2200.67370,0.00000
2198.74498,-0.00004
2196.81625,-0.00009
2194.88753,-0.00010
2192.95881,-0.00012
2191.03008,-0.00018
2189.10136,-0.00018
2187.17264,-0.00005
2185.24391,0.00005
2183.31519,0.00001
2181.38647,-0.00016
2179.45774,-0.00025
2177.52902,-0.00020
2175.60029,-0.00011
2173.67157,-0.00010
2171.74285,-0.00017
2169.81412,-0.00023
2167.88540,-0.00023
2165.95668,-0.00015
2164.02795,-0.00006
2162.09923,0.00003
2160.17050,0.00010
2158.24178,0.00014
2156.31306,0.00011
2154.38433,0.00002
2152.45561,-0.00004
2150.52689,0.00000
2148.59816,0.00005
2146.66944,0.00008
2144.74072,0.00012
2142.81199,0.00018
2140.88327,0.00022
2138.95454,0.00024
2137.02582,0.00022
2135.09710,0.00019
2133.16837,0.00018
2131.23965,0.00016
2129.31093,0.00012
2127.38220,0.00009
2125.45348,0.00011
2123.52476,0.00012
2121.59603,0.00013
2119.66731,0.00017
2117.73858,0.00017
2115.80986,0.00016
2113.88114,0.00013
2111.95241,0.00008
2110.02369,0.00002
2108.09497,-0.00001
2106.16624,0.00002
2104.23752,0.00008
2102.30880,0.00009
2100.38007,0.00004
2098.45135,-0.00001
2096.52262,-0.00000
2094.59390,0.00005
2092.66518,0.00010
2090.73645,0.00010
2088.80773,0.00010
2086.87901,0.00013
2084.95028,0.00018
2083.02156,0.00021
2081.09283,0.00019
2079.16411,0.00012
2077.23539,0.00010
2075.30666,0.00012
2073.37794,0.00015
2071.44922,0.00019
2069.52049,0.00024
2067.59177,0.00029
2065.66305,0.00039
2063.73432,0.00051
2061.80560,0.00061
2059.87687,0.00069
2057.94815,0.00076
2056.01943,0.00080
2054.09070,0.00080
2052.16198,0.00086
2050.23326,0.00104
2048.30453,0.00125
2046.37581,0.00143
2044.44709,0.00159
2042.51836,0.00175
2040.58964,0.00189
2038.66091,0.00206
2036.73219,0.00225
2034.80347,0.00236
2032.87474,0.00242
2030.94602,0.00247
2029.01730,0.00256
2027.08857,0.00272
2025.15985,0.00290
2023.23112,0.00301
2021.30240,0.00305
2019.37368,0.00310
2017.44495,0.00317
2015.51623,0.00325
2013.58751,0.00338
2011.65878,0.00358
2009.73006,0.00374
2007.80134,0.00377
2005.87261,0.00376
2003.94389,0.00380
2002.01516,0.00387
2000.08644,0.00394
1998.15772,0.00400
1996.22899,0.00399
1994.30027,0.00393
1992.37155,0.00390
1990.44282,0.00396
1988.51410,0.00404
1986.58538,0.00406
1984.65665,0.00404
1982.72793,0.00404
1980.79920,0.00406
1978.87048,0.00407
1976.94176,0.00406
1975.01303,0.00403
1973.08431,0.00395
1971.15559,0.00380
1969.22686,0.00362
1967.29814,0.00343
1965.36941,0.00331
1963.44069,0.00326
1961.51197,0.00323
1959.58324,0.00314
1957.65452,0.00297
1955.72580,0.00281
1953.79707,0.00272
1951.86835,0.00264
1949.93963,0.00250
1948.01090,0.00235
1946.08218,0.00217
1944.15345,0.00195
1942.22473,0.00178
1940.29601,0.00180
1938.36728,0.00189
1936.43856,0.00190
1934.50984,0.00181
1932.58111,0.00169
1930.65239,0.00160
1928.72367,0.00156
1926.79494,0.00157
1924.86622,0.00158
1922.93749,0.00161
1921.00877,0.00171
1919.08005,0.00183
1917.15132,0.00193
1915.22260,0.00209
1913.29388,0.00233
1911.36515,0.00258
1909.43643,0.00284
1907.50770,0.00312
1905.57898,0.00342
1903.65026,0.00369
1901.72153,0.00395
1899.79281,0.00420
1897.86409,0.00446
1895.93536,0.00477
1894.00664,0.00507
1892.07792,0.00530
1890.14919,0.00547
1888.22047,0.00566
1886.29174,0.00587
1884.36302,0.00609
1882.43430,0.00630
1880.50557,0.00645
1878.57685,0.00650
1876.64813,0.00647
1874.71940,0.00640
1872.79068,0.00627
1870.86196,0.00601
1868.93323,0.00561
1867.00451,0.00533
1865.07578,0.00526
1863.14706,0.00523
1861.21834,0.00505
1859.28961,0.00473
1857.36089,0.00438
1855.43217,0.00404
1853.50344,0.00370
1851.57472,0.00334
1849.64599,0.00299
1847.71727,0.00265
1845.78855,0.00224
1843.85982,0.00181
1841.93110,0.00152
1840.00238,0.00138
1838.07365,0.00129
1836.14493,0.00123
1834.21621,0.00113
1832.28748,0.00087
1830.35876,0.00047
1828.43003,0.00017
1826.50131,0.00002
1824.57259,-0.00005
1822.64386,-0.00008
1820.71514,-0.00007
1818.78642,-0.00005
1816.85769,-0.00001
1814.92897,0.00000
1813.00025,-0.00016
1811.07152,-0.00038
1809.14280,-0.00048
1807.21407,-0.00043
1805.28535,-0.00033
1803.35663,-0.00028
1801.42790,-0.00028
1799.49918,-0.00030
1797.57046,-0.00030
1795.64173,-0.00032
1793.71301,-0.00039
1791.78428,-0.00039
1789.85556,-0.00014
1787.92684,0.00017
1785.99811,0.00037
1784.06939,0.00050
1782.14067,0.00067
1780.21194,0.00088
1778.28322,0.00110
1776.35450,0.00126
1774.42577,0.00130
1772.49705,0.00133
1770.56832,0.00156
1768.63960,0.00195
1766.71088,0.00235
1764.78215,0.00264
1762.85343,0.00277
1760.92471,0.00282
1758.99598,0.00289
1757.06726,0.00300
1755.13854,0.00309
1753.20981,0.00308
1751.28109,0.00290
1749.35236,0.00279
1747.42364,0.00300
1745.49492,0.00343
1743.56619,0.00386
1741.63747,0.00427
1739.70875,0.00480
1737.78002,0.00542
1735.85130,0.00607
1733.92257,0.00693
1731.99385,0.00814
1730.06513,0.00954
1728.13640,0.01100
1726.20768,0.01246
1724.27896,0.01395
1722.35023,0.01543
1720.42151,0.01682
1718.49279,0.01830
1716.56406,0.02021
1714.63534,0.02252
1712.70661,0.02485
1710.77789,0.02696
1708.84917,0.02892
1706.92044,0.03103
1704.99172,0.03341
1703.06300,0.03577
1701.13427,0.03819
1699.20555,0.04093
1697.27683,0.04394
1695.34810,0.04721
1693.41938,0.05036
1691.49065,0.05315
1689.56193,0.05582
1687.63321,0.05830
1685.70448,0.06099
1683.77576,0.06474
1681.84704,0.06877
1679.91831,0.07208
1677.98959,0.07494
1676.06087,0.07792
1674.13214,0.08099
1672.20342,0.08377
1670.27469,0.08662
1668.34597,0.08981
1666.41725,0.09270
1664.48852,0.09528
1662.55980,0.09814
1660.63108,0.10110
1658.70235,0.10347
1656.77363,0.10516
1654.84490,0.10688
1652.91618,0.10934
1650.98746,0.11169
1649.05873,0.11331
1647.13001,0.11511
1645.20129,0.11740
1643.27256,0.11940
1641.34384,0.12074
1639.41512,0.12151
1637.48639,0.12187
1635.55767,0.12221
1633.62894,0.12272
1631.70022,0.12305
1629.77150,0.12283
1627.84277,0.12201
1625.91405,0.12065
1623.98533,0.11880
1622.05660,0.11671
1620.12788,0.11448
1618.19916,0.11144
1616.27043,0.10743
1614.34171,0.10375
1612.41298,0.10077
1610.48426,0.09760
1608.55554,0.09397
1606.62681,0.09020
1604.69809,0.08643
1602.76937,0.08267
1600.84064,0.07911
1598.91192,0.07588
1596.98319,0.07282
1595.05447,0.06984
1593.12575,0.06707
1591.19702,0.06459
1589.26830,0.06233
1587.33958,0.06028
1585.41085,0.05837
1583.48213,0.05654
1581.55341,0.05480
1579.62468,0.05309
1577.69596,0.05117
1575.76723,0.04922
1573.83851,0.04787
1571.90979,0.04690
1569.98106,0.04566
1568.05234,0.04430
1566.12362,0.04324
1564.19489,0.04240
1562.26617,0.04145
1560.33745,0.03981
1558.40872,0.03758
1556.48000,0.03621
1554.55127,0.03568
1552.62255,0.03519
1550.69383,0.03449
1548.76510,0.03367
1546.83638,0.03278
1544.90766,0.03157
1542.97893,0.02979
1541.05021,0.02754
1539.12148,0.02579
1537.19276,0.02513
1535.26404,0.02459
1533.33531,0.02345
1531.40659,0.02209
1529.47787,0.02079
1527.54914,0.01927
1525.62042,0.01756
1523.69170,0.01595
1521.76297,0.01439
1519.83425,0.01302
1517.90552,0.01201
1515.97680,0.01131
1514.04808,0.01085
1512.11935,0.01030
1510.19063,0.00929
1508.26191,0.00764
1506.33318,0.00591
1504.40446,0.00508
1502.47574,0.00474
1500.54701,0.00415
1498.61829,0.00317
1496.68956,0.00217
1494.76084,0.00152
1492.83212,0.00110
1490.90339,0.00054
1488.97467,0.00000
1487.04595,-0.00015
1485.11722,0.00003
1483.18850,0.00024
1481.25977,0.00042
1479.33105,0.00061
1477.40233,0.00080
1475.47360,0.00119
1473.54488,0.00226
1471.61616,0.00408
1469.68743,0.00594
1467.75871,0.00732
1465.82999,0.00818
1463.90126,0.00870
1461.97254,0.00897
1460.04381,0.00898
1458.11509,0.00875
1456.18637,0.00858
1454.25764,0.00871
1452.32892,0.00895
1450.40020,0.00907
1448.47147,0.00911
1446.54275,0.00921
1444.61403,0.00946
1442.68530,0.00972
1440.75658,0.00985
1438.82785,0.00982
1436.89913,0.00979
1434.97041,0.00998
1433.04168,0.01040
1431.11296,0.01086
1429.18424,0.01128
1427.25551,0.01167
1425.32679,0.01207
1423.39806,0.01245
1421.46934,0.01283
1419.54062,0.01335
1417.61189,0.01419
1415.68317,0.01520
1413.75445,0.01621
1411.82572,0.01731
1409.89700,0.01855
1407.96828,0.01977
1406.03955,0.02088
1404.11083,0.02185
1402.18210,0.02251
1400.25338,0.02255
1398.32466,0.02180
1396.39593,0.02035
1394.46721,0.01855
1392.53849,0.01699
1390.60976,0.01611
1388.68104,0.01635
1386.75232,0.01770
1384.82359,0.01865
1382.89487,0.01746
1380.96614,0.01453
1379.03742,0.01157
1377.10870,0.00941
1375.17997,0.00776
1373.25125,0.00640
1371.32253,0.00538
1369.39380,0.00464
1367.46508,0.00402
1365.53635,0.00332
1363.60763,0.00242
1361.67891,0.00160
1359.75018,0.00114
1357.82146,0.00087
1355.89274,0.00059
1353.96401,0.00027
1352.03529,0.00000
1350.10657,-0.00043
1348.17784,-0.00075
1346.24912,-0.00102
1344.32039,-0.00132
1342.39167,-0.00171
1340.46295,-0.00217
1338.53422,-0.00255
1336.60550,-0.00272
1334.67678,-0.00275
1332.74805,-0.00276
1330.81933,-0.00273
1328.89061,-0.00261
1326.96188,-0.00238
1325.03316,-0.00205
1323.10443,-0.00168
1321.17571,-0.00133
1319.24699,-0.00101
1317.31826,-0.00062
1315.38954,-0.00017
1313.46082,0.00031
1311.53209,0.00081
1309.60337,0.00139
1307.67464,0.00218
1305.74592,0.00326
1303.81720,0.00449
1301.88847,0.00560
1299.95975,0.00645
1298.03103,0.00722
1296.10230,0.00817
1294.17358,0.00926
1292.24486,0.01023
1290.31613,0.01099
1288.38741,0.01172
1286.45868,0.01256
1284.52996,0.01354
1282.60124,0.01469
1280.67251,0.01617
1278.74379,0.01804
1276.81507,0.02022
1274.88634,0.02267
1272.95762,0.02562
1271.02890,0.02934
1269.10017,0.03374
1267.17145,0.03858
1265.24272,0.04372
1263.31400,0.04928
1261.38528,0.05556
1259.45655,0.06261
1257.52783,0.07001
1255.59911,0.07751
1253.67038,0.08513
1251.74166,0.09277
1249.81294,0.10005
1247.88421,0.10674
1245.95549,0.11299
1244.02676,0.11888
1242.09804,0.12431
1240.16932,0.12926
1238.24059,0.13386
1236.31187,0.13815
1234.38315,0.14222
1232.45442,0.14622
1230.52570,0.15016
1228.59697,0.15407
1226.66825,0.15801
1224.73953,0.16185
1222.81080,0.16545
1220.88208,0.16892
1218.95336,0.17247
1217.02463,0.17617
1215.09591,0.17989
1213.16719,0.18352
1211.23846,0.18698
1209.30974,0.19028
1207.38101,0.19366
1205.45229,0.19722
1203.52357,0.20069
1201.59484,0.20396
1199.66612,0.20728
1197.73740,0.21091
1195.80867,0.21480
1193.87995,0.21846
1191.95123,0.22148
1190.02250,0.22401
1188.09378,0.22644
1186.16505,0.22909
1184.23633,0.23182
1182.30761,0.23413
1180.37888,0.23598
1178.45016,0.23777
1176.52144,0.23983
1174.59271,0.24190
1172.66399,0.24366
1170.73526,0.24514
1168.80654,0.24652
1166.87782,0.24797
1164.94909,0.24958
1163.02037,0.25129
1161.09165,0.25317
1159.16292,0.25502
1157.23420,0.25670
1155.30548,0.25844
1153.37675,0.26031
1151.44803,0.26223
1149.51930,0.26427
1147.59058,0.26638
1145.66186,0.26828
1143.73313,0.26996
1141.80441,0.27165
1139.87569,0.27361
1137.94696,0.27580
1136.01824,0.27797
1134.08952,0.28013
1132.16079,0.28226
1130.23207,0.28434
1128.30334,0.28663
1126.37462,0.28931
1124.44590,0.29215
1122.51717,0.29485
1120.58845,0.29760
1118.65973,0.30094
1116.73100,0.30502
1114.80228,0.30910
1112.87355,0.31244
1110.94483,0.31543
1109.01611,0.31890
1107.08738,0.32250
1105.15866,0.32542
1103.22994,0.32793
1101.30121,0.33059
1099.37249,0.33303
1097.44377,0.33514
1095.51504,0.33727
1093.58632,0.33903
1091.65759,0.33980
1089.72887,0.33975
1087.80015,0.33935
1085.87142,0.33931
1083.94270,0.33991
1082.01398,0.34058
1080.08525,0.34104
1078.15653,0.34124
1076.22781,0.34109
1074.29908,0.34106
1072.37036,0.34147
1070.44163,0.34173
1068.51291,0.34168
1066.58419,0.34196
1064.65546,0.34253
1062.72674,0.34275
1060.79802,0.34269
1058.86929,0.34279
1056.94057,0.34306
1055.01184,0.34336
1053.08312,0.34357
1051.15440,0.34382
1049.22567,0.34421
1047.29695,0.34425
1045.36823,0.34377
1043.43950,0.34294
1041.51078,0.34183
1039.58206,0.34059
1037.65333,0.33913
1035.72461,0.33747
1033.79588,0.33573
1031.86716,0.33391
1029.93844,0.33202
1028.00971,0.32987
1026.08099,0.32698
1024.15227,0.32321
1022.22354,0.31918
1020.29482,0.31565
1018.36610,0.31235
1016.43737,0.30862
1014.50865,0.30444
1012.57992,0.30009
1010.65120,0.29594
1008.72248,0.29217
1006.79375,0.28821
1004.86503,0.28369
1002.93631,0.27870
1001.00758,0.27338
999.07886,0.26784
997.15013,0.26231
995.22141,0.25708
993.29269,0.25194
991.36396,0.24652
989.43524,0.24121
987.50652,0.23633
985.57779,0.23135
983.64907,0.22593
981.72035,0.22053
979.79162,0.21577
977.86290,0.21178
975.93417,0.20822
974.00545,0.20462
972.07673,0.20067
970.14800,0.19656
968.21928,0.19253
966.29056,0.18883
964.36183,0.18569
962.43311,0.18278
960.50439,0.17968
958.57566,0.17663
956.64694,0.17387
954.71821,0.17130
952.78949,0.16863
950.86077,0.16590
948.93204,0.16328
947.00332,0.16077
945.07460,0.15854
943.14587,0.15642
941.21715,0.15406
939.28842,0.15148
937.35970,0.14876
935.43098,0.14598
933.50225,0.14326
931.57353,0.14077
929.64481,0.13869
927.71608,0.13679
925.78736,0.13461
923.85864,0.13218
921.92991,0.12965
920.00119,0.12701
918.07246,0.12459
916.14374,0.12246
914.21502,0.12018
912.28629,0.11784
910.35757,0.11549
908.42885,0.11273
906.50012,0.10976
904.57140,0.10688
902.64268,0.10401
900.71395,0.10112
898.78523,0.09820
896.85650,0.09543
894.92778,0.09294
892.99906,0.09040
891.07033,0.08762
889.14161,0.08493
887.21289,0.08260
885.28416,0.08034
883.35544,0.07770
881.42671,0.07477
879.49799,0.07203
877.56927,0.06969
875.64054,0.06755
873.71182,0.06522
871.78310,0.06262
869.85437,0.06018
867.92565,0.05823
865.99693,0.05629
864.06820,0.05379
862.13948,0.05066
860.21075,0.04734
858.28203,0.04455
856.35331,0.04239
854.42458,0.04044
852.49586,0.03855
850.56714,0.03684
848.63841,0.03542
846.70969,0.03440
844.78097,0.03392
842.85224,0.03396
840.92352,0.03443
838.99479,0.03509
837.06607,0.03556
835.13735,0.03623
833.20862,0.03760
831.27990,0.03938
829.35118,0.04113
827.42245,0.04281
825.49373,0.04464
823.56501,0.04679
821.63628,0.04884
819.70756,0.05061
817.77883,0.05264
815.85011,0.05479
813.92139,0.05647
811.99266,0.05769
810.06394,0.05888
808.13522,0.06017
806.20649,0.06126
804.27777,0.06240
802.34904,0.06365
800.42032,0.06450
798.49160,0.06516
796.56287,0.06573
794.63415,0.06560
792.70543,0.06479
790.77670,0.06368
788.84798,0.06221
786.91926,0.06057
784.99053,0.05914
783.06181,0.05773
781.13308,0.05594
779.20436,0.05371
777.27564,0.05126
775.34691,0.04902
773.41819,0.04704
771.48947,0.04498
769.56074,0.04295
767.63202,0.04145
765.70330,0.04040
763.77457,0.03934
761.84585,0.03846
759.91712,0.03822
757.98840,0.03836
756.05968,0.03831
754.13095,0.03800
752.20223,0.03770
750.27351,0.03765
748.34478,0.03767
746.41606,0.03726
744.48733,0.03656
742.55861,0.03611
740.62989,0.03594
738.70116,0.03576
736.77244,0.03542
734.84372,0.03499
732.91499,0.03467
730.98627,0.03469
729.05755,0.03490
727.12882,0.03503
725.20010,0.03505
723.27137,0.03488
721.34265,0.03445
719.41393,0.03411
717.48520,0.03398
715.55648,0.03388
713.62776,0.03380
711.69903,0.03390
709.77031,0.03424
707.84159,0.03463
705.91286,0.03478
703.98414,0.03466
702.05541,0.03461
700.12669,0.03491
698.19797,0.03558
696.26924,0.03636
694.34052,0.03684
692.41180,0.03687
690.48307,0.03667
688.55435,0.03668
686.62562,0.03719
684.69690,0.03757
682.76818,0.03738
680.83945,0.03713
678.91073,0.03718
676.98201,0.03715
675.05328,0.03721
673.12456,0.03775
671.19584,0.03776
669.26711,0.03661
667.33839,0.03618
665.40966,0.03688
663.48094,0.03676
661.55222,0.03595
659.62349,0.03575
657.69477,0.03603
655.76605,0.03617
653.83732,0.03632
651.90860,0.03692
649.97988,0.03793
648.05115,0.03907
646.12243,0.04025
644.19370,0.04130
642.26498,0.04197
640.33626,0.04220
638.40753,0.04233
636.47881,0.04281
634.55009,0.04380
632.62136,0.04491
630.69264,0.04558
628.76391,0.04578
626.83519,0.04611
624.90647,0.04694
622.97774,0.04757
621.04902,0.04735
619.12030,0.04694
617.19157,0.04759
615.26285,0.04954
613.33413,0.05156
611.40540,0.05261
609.47668,0.05279
607.54795,0.05293
605.61923,0.05413
603.69051,0.05618
601.76178,0.05774
599.83306,0.05882
597.90434,0.06010
595.97561,0.06109
594.04689,0.06143
592.11817,0.06163
590.18944,0.06229
588.26072,0.06363
586.33199,0.06530
584.40327,0.06667
582.47455,0.06773
580.54582,0.06869
578.61710,0.06926
576.68838,0.06968
574.75965,0.07089
572.83093,0.07251
570.90220,0.07309
568.97348,0.07266
567.04476,0.07295
565.11603,0.07467
563.18731,0.07682
561.25859,0.07796
559.32986,0.07746
557.40114,0.07621
555.47242,0.07570
553.54369,0.07671
551.61497,0.07882
549.68624,0.08112
547.75752,0.08352
545.82880,0.08615
543.90007,0.08874
541.97135,0.09121
540.04263,0.09349
538.11390,0.09506
536.18518,0.09551
534.25646,0.09548
532.32773,0.09608
530.39901,0.09786
528.47028,0.10031
526.54156,0.10196
524.61284,0.10181
522.68411,0.10049
520.75539,0.09954
518.82667,0.10034
516.89794,0.10315
514.96922,0.10650
513.04049,0.10959
511.11177,0.11345
509.18305,0.11810
507.25432,0.12232
505.32560,0.12590
503.39688,0.12915
501.46815,0.13222
499.53943,0.13559
497.61071,0.13943
495.68198,0.14320
493.75326,0.14728
491.82453,0.15234
489.89581,0.15762
487.96709,0.16282
486.03836,0.16874
484.10964,0.17479
482.18092,0.18014
480.25219,0.18578
478.32347,0.19149
476.39475,0.19522
474.46602,0.19666
472.53730,0.19693
470.60857,0.19704
468.67985,0.19839
466.75113,0.20078
464.82240,0.20112
462.89368,0.19855
460.96496,0.19570
459.03623,0.19351
457.10751,0.19142
455.17878,0.19084
453.25006,0.19260
451.32134,0.19448
449.39261,0.19350
447.46389,0.18838
445.53517,0.18044
443.60644,0.17390
441.67772,0.17173
439.74900,0.17199
437.82027,0.17234
435.89155,0.17176
433.96282,0.16734
432.03410,0.15673
430.10538,0.14327
428.17665,0.13460
426.24793,0.13350
424.31921,0.13190
422.39048,0.12113
420.46176,0.10697
418.53304,0.10236
416.60431,0.10514
414.67559,0.10289
412.74686,0.09525
410.81814,0.08846
408.88942,0.08310
406.96069,0.07686
405.03197,0.07059
403.10325,0.06801
401.17452,0.07390
399.24580,0.08371
397.31708,0.07687
395.38835,0.05202
393.45963,0.03803
391.53090,0.04621
389.60218,0.05867
387.67346,0.05416
385.74473,0.03272
383.81601,0.01122
381.88729,0.00079
379.95856,0.00000
378.02984,0.00385
376.10111,0.01825
374.17239,0.03818
372.24367,0.03515
370.31494,0.01200
368.38622,0.00000
