3996.31543,0.00009
3994.38671,0.00009
3992.45799,0.00010
3990.52926,0.00005
3988.60054,0.00000
3986.67182,0.00006
3984.74309,0.00018
3982.81437,0.00022
3980.88564,0.00022
3978.95692,0.00025
3977.02820,0.00030
3975.09947,0.00034
3973.17075,0.00029
3971.24203,0.00024
3969.31330,0.00035
3967.38458,0.00054
3965.45586,0.00065
3963.52713,0.00069
3961.59841,0.00066
3959.66968,0.00055
3957.74096,0.00049
3955.81224,0.00059
3953.88351,0.00078
3951.95479,0.00086
3950.02607,0.00075
3948.09734,0.00057
3946.16862,0.00046
3944.23990,0.00050
3942.31117,0.00064
3940.38245,0.00078
3938.45372,0.00088
3936.52500,0.00100
3934.59628,0.00108
3932.66755,0.00104
3930.73883,0.00092
3928.81011,0.00085
3926.88138,0.00080
3924.95266,0.00075
3923.02393,0.00073
3921.09521,0.00069
3919.16649,0.00071
3917.23776,0.00085
3915.30904,0.00094
3913.38032,0.00082
3911.45159,0.00058
3909.52287,0.00041
3907.59415,0.00039
3905.66542,0.00059
3903.73670,0.00097
3901.80797,0.00116
3899.87925,0.00095
3897.95053,0.00061
3896.02180,0.00042
3894.09308,0.00042
3892.16436,0.00053
3890.23563,0.00056
3888.30691,0.00047
3886.37819,0.00044
3884.44946,0.00050
3882.52074,0.00053
3880.59201,0.00052
3878.66329,0.00043
3876.73457,0.00021
3874.80584,0.00000
3872.87712,0.00003
3870.94840,0.00033
3869.01967,0.00067
3867.09095,0.00077
3865.16222,0.00059
3863.23350,0.00031
3861.30478,0.00012
3859.37605,0.00004
3857.44733,0.00001
3855.51861,0.00018
3853.58988,0.00065
3851.66116,0.00097
3849.73244,0.00080
3847.80371,0.00048
3845.87499,0.00031
3843.94626,0.00032
3842.01754,0.00034
3840.08882,0.00030
3838.16009,0.00031
3836.23137,0.00044
3834.30265,0.00051
3832.37392,0.00050
3830.44520,0.00047
3828.51648,0.00048
3826.58775,0.00056
3824.65903,0.00070
3822.73030,0.00093
3820.80158,0.00119
3818.87286,0.00123
3816.94413,0.00113
3815.01541,0.00102
3813.08669,0.00092
3811.15796,0.00086
3809.22924,0.00092
3807.30052,0.00108
3805.37179,0.00126
3803.44307,0.00139
3801.51434,0.00154
3799.58562,0.00166
3797.65690,0.00170
3795.72817,0.00170
3793.79945,0.00167
3791.87073,0.00170
3789.94200,0.00189
3788.01328,0.00219
3786.08455,0.00246
3784.15583,0.00258
3782.22711,0.00267
3780.29838,0.00291
3778.36966,0.00326
3776.44094,0.00352
3774.51221,0.00365
3772.58349,0.00380
3770.65477,0.00407
3768.72604,0.00441
3766.79732,0.00475
3764.86859,0.00508
3762.93987,0.00541
3761.01115,0.00582
3759.08242,0.00634
3757.15370,0.00679
3755.22498,0.00713
3753.29625,0.00767
3751.36753,0.00859
3749.43881,0.00944
3747.51008,0.00983
3745.58136,0.01015
3743.65263,0.01061
3741.72391,0.01101
3739.79519,0.01139
3737.86646,0.01201
3735.93774,0.01305
3734.00902,0.01431
3732.08029,0.01544
3730.15157,0.01641
3728.22284,0.01744
3726.29412,0.01873
3724.36540,0.02030
3722.43667,0.02205
3720.50795,0.02390
3718.57923,0.02574
3716.65050,0.02755
3714.72178,0.02957
3712.79306,0.03233
3710.86433,0.03582
3708.93561,0.03900
3707.00688,0.04142
3705.07816,0.04367
3703.14944,0.04649
3701.22071,0.05008
3699.29199,0.05387
3697.36327,0.05738
3695.43454,0.06060
3693.50582,0.06361
3691.57710,0.06701
3689.64837,0.07143
3687.71965,0.07621
3685.79092,0.08030
3683.86220,0.08393
3681.93348,0.08766
3680.00475,0.09156
3678.07603,0.09599
3676.14731,0.10184
3674.21858,0.10818
3672.28986,0.11311
3670.36113,0.11769
3668.43241,0.12277
3666.50369,0.12728
3664.57496,0.13114
3662.64624,0.13485
3660.71752,0.13855
3658.78879,0.14248
3656.86007,0.14697
3654.93135,0.15134
3653.00262,0.15473
3651.07390,0.15813
3649.14517,0.16283
3647.21645,0.16784
3645.28773,0.17163
3643.35900,0.17461
3641.43028,0.17765
3639.50156,0.18078
3637.57283,0.18374
3635.64411,0.18659
3633.71539,0.18935
3631.78666,0.19194
3629.85794,0.19498
3627.92921,0.19878
3626.00049,0.20200
3624.07177,0.20407
3622.14304,0.20575
3620.21432,0.20770
3618.28560,0.20974
3616.35687,0.21134
3614.42815,0.21271
3612.49942,0.21428
3610.57070,0.21604
3608.64198,0.21804
3606.71325,0.22016
3604.78453,0.22196
3602.85581,0.22344
3600.92708,0.22488
3598.99836,0.22628
3597.06964,0.22775
3595.14091,0.22958
3593.21219,0.23149
3591.28346,0.23288
3589.35474,0.23401
3587.42602,0.23554
3585.49729,0.23721
3583.56857,0.23847
3581.63985,0.23957
3579.71112,0.24088
3577.78240,0.24228
3575.85368,0.24359
3573.92495,0.24491
3571.99623,0.24631
3570.06750,0.24766
3568.13878,0.24902
3566.21006,0.25043
3564.28133,0.25176
3562.35261,0.25296
3560.42389,0.25409
3558.49516,0.25521
3556.56644,0.25639
3554.63771,0.25761
3552.70899,0.25886
3550.78027,0.26002
3548.85154,0.26109
3546.92282,0.26228
3544.99410,0.26361
3543.06537,0.26475
3541.13665,0.26562
3539.20793,0.26642
3537.27920,0.26719
3535.35048,0.26790
3533.42175,0.26865
3531.49303,0.26954
3529.56431,0.27058
3527.63558,0.27183
3525.70686,0.27329
3523.77814,0.27476
3521.84941,0.27587
3519.92069,0.27661
3517.99197,0.27734
3516.06324,0.27829
3514.13452,0.27939
3512.20579,0.28046
3510.27707,0.28136
3508.34835,0.28208
3506.41962,0.28283
3504.49090,0.28395
3502.56218,0.28544
3500.63345,0.28673
3498.70473,0.28754
3496.77600,0.28828
3494.84728,0.28923
3492.91856,0.29014
3490.98983,0.29082
3489.06111,0.29141
3487.13239,0.29207
3485.20366,0.29283
3483.27494,0.29366
3481.34622,0.29456
3479.41749,0.29543
3477.48877,0.29625
3475.56004,0.29704
3473.63132,0.29767
3471.70260,0.29817
3469.77387,0.29881
3467.84515,0.29959
3465.91643,0.30023
3463.98770,0.30075
3462.05898,0.30143
3460.13026,0.30219
3458.20153,0.30280
3456.27281,0.30336
3454.34408,0.30414
3452.41536,0.30498
3450.48664,0.30563
3448.55791,0.30615
3446.62919,0.30660
3444.70047,0.30695
3442.77174,0.30735
3440.84302,0.30792
3438.91429,0.30840
3436.98557,0.30862
3435.05685,0.30877
3433.12812,0.30901
3431.19940,0.30925
3429.27068,0.30957
3427.34195,0.31007
3425.41323,0.31051
3423.48451,0.31086
3421.55578,0.31126
3419.62706,0.31154
3417.69833,0.31148
3415.76961,0.31125
3413.84089,0.31118
3411.91216,0.31133
3409.98344,0.31144
3408.05472,0.31148
3406.12599,0.31156
3404.19727,0.31152
3402.26855,0.31129
3400.33982,0.31108
3398.41110,0.31094
3396.48237,0.31083
3394.55365,0.31069
3392.62493,0.31061
3390.69620,0.31070
3388.76748,0.31070
3386.83876,0.31032
3384.91003,0.30978
3382.98131,0.30944
3381.05259,0.30920
3379.12386,0.30869
3377.19514,0.30800
3375.26641,0.30755
3373.33769,0.30737
3371.40897,0.30719
3369.48024,0.30684
3367.55152,0.30630
3365.62280,0.30572
3363.69407,0.30527
3361.76535,0.30502
3359.83662,0.30479
3357.90790,0.30439
3355.97918,0.30386
3354.05045,0.30329
3352.12173,0.30267
3350.19301,0.30206
3348.26428,0.30148
3346.33556,0.30092
3344.40684,0.30041
3342.47811,0.29986
3340.54939,0.29923
3338.62066,0.29862
3336.69194,0.29813
3334.76322,0.29763
3332.83449,0.29695
3330.90577,0.29609
3328.97705,0.29524
3327.04832,0.29459
3325.11960,0.29421
3323.19088,0.29395
3321.26215,0.29363
3319.33343,0.29319
3317.40470,0.29261
3315.47598,0.29192
3313.54726,0.29116
3311.61853,0.29041
3309.68981,0.28985
3307.76109,0.28949
3305.83236,0.28905
3303.90364,0.28846
3301.97491,0.28789
3300.04619,0.28735
3298.11747,0.28670
3296.18874,0.28606
3294.26002,0.28563
3292.33130,0.28537
3290.40257,0.28511
3288.47385,0.28471
3286.54513,0.28411
3284.61640,0.28333
3282.68768,0.28270
3280.75895,0.28238
3278.83023,0.28206
3276.90151,0.28153
3274.97278,0.28100
3273.04406,0.28064
3271.11534,0.28027
3269.18661,0.27968
3267.25789,0.27901
3265.32917,0.27846
3263.40044,0.27796
3261.47172,0.27745
3259.54299,0.27696
3257.61427,0.27647
3255.68555,0.27594
3253.75682,0.27544
3251.82810,0.27488
3249.89938,0.27420
3247.97065,0.27349
3246.04193,0.27296
3244.11320,0.27259
3242.18448,0.27202
3240.25576,0.27107
3238.32703,0.26997
3236.39831,0.26910
3234.46959,0.26849
3232.54086,0.26796
3230.61214,0.26744
3228.68342,0.26688
3226.75469,0.26622
3224.82597,0.26550
3222.89724,0.26476
3220.96852,0.26395
3219.03980,0.26309
3217.11107,0.26220
3215.18235,0.26125
3213.25363,0.26017
3211.32490,0.25899
3209.39618,0.25798
3207.46746,0.25730
3205.53873,0.25674
3203.61001,0.25594
3201.68128,0.25476
3199.75256,0.25358
3197.82384,0.25268
3195.89511,0.25179
3193.96639,0.25069
3192.03767,0.24966
3190.10894,0.24886
3188.18022,0.24805
3186.25149,0.24704
3184.32277,0.24595
3182.39405,0.24492
3180.46532,0.24395
3178.53660,0.24300
3176.60788,0.24197
3174.67915,0.24078
3172.75043,0.23947
3170.82171,0.23824
3168.89298,0.23714
3166.96426,0.23603
3165.03553,0.23484
3163.10681,0.23373
3161.17809,0.23269
3159.24936,0.23161
3157.32064,0.23054
3155.39192,0.22956
3153.46319,0.22856
3151.53447,0.22743
3149.60575,0.22615
3147.67702,0.22489
3145.74830,0.22384
3143.81957,0.22301
3141.89085,0.22221
3139.96213,0.22129
3138.03340,0.22024
3136.10468,0.21921
3134.17596,0.21826
3132.24723,0.21720
3130.31851,0.21594
3128.38978,0.21463
3126.46106,0.21342
3124.53234,0.21228
3122.60361,0.21122
3120.67489,0.21028
3118.74617,0.20934
3116.81744,0.20823
3114.88872,0.20703
3112.96000,0.20590
3111.03127,0.20481
3109.10255,0.20369
3107.17382,0.20239
3105.24510,0.20096
3103.31638,0.19961
3101.38765,0.19841
3099.45893,0.19723
3097.53021,0.19600
3095.60148,0.19484
3093.67276,0.19372
3091.74404,0.19248
3089.81531,0.19110
3087.88659,0.18969
3085.95786,0.18841
3084.02914,0.18732
3082.10042,0.18624
3080.17169,0.18500
3078.24297,0.18363
3076.31425,0.18227
3074.38552,0.18098
3072.45680,0.17972
3070.52807,0.17847
3068.59935,0.17725
3066.67063,0.17607
3064.74190,0.17489
3062.81318,0.17370
3060.88446,0.17260
3058.95573,0.17163
3057.02701,0.17063
3055.09829,0.16939
3053.16956,0.16802
3051.24084,0.16669
3049.31211,0.16543
3047.38339,0.16423
3045.45467,0.16301
3043.52594,0.16181
3041.59722,0.16078
3039.66850,0.15988
3037.73977,0.15891
3035.81105,0.15789
3033.88233,0.15692
3031.95360,0.15596
3030.02488,0.15488
3028.09615,0.15366
3026.16743,0.15247
3024.23871,0.15152
3022.30998,0.15074
3020.38126,0.14986
3018.45254,0.14880
3016.52381,0.14769
3014.59509,0.14665
3012.66636,0.14574
3010.73764,0.14496
3008.80892,0.14424
3006.88019,0.14349
3004.95147,0.14258
3003.02275,0.14157
3001.09402,0.14067
2999.16530,0.13997
2997.23658,0.13936
2995.30785,0.13872
2993.37913,0.13809
2991.45040,0.13748
2989.52168,0.13692
2987.59296,0.13648
2985.66423,0.13620
2983.73551,0.13601
2981.80679,0.13577
2979.87806,0.13557
2977.94934,0.13557
2976.02062,0.13569
2974.09189,0.13586
2972.16317,0.13607
2970.23444,0.13632
2968.30572,0.13659
2966.37700,0.13682
2964.44827,0.13701
2962.51955,0.13711
2960.59083,0.13699
2958.66210,0.13657
2956.73338,0.13583
2954.80466,0.13490
2952.87593,0.13398
2950.94721,0.13319
2949.01848,0.13261
2947.08976,0.13229
2945.16104,0.13226
2943.23231,0.13255
2941.30359,0.13324
2939.37487,0.13421
2937.44614,0.13526
2935.51742,0.13639
2933.58869,0.13763
2931.65997,0.13880
2929.73125,0.13957
2927.80252,0.13971
2925.87380,0.13913
2923.94508,0.13775
2922.01635,0.13561
2920.08763,0.13296
2918.15891,0.13012
2916.23018,0.12734
2914.30146,0.12468
2912.37273,0.12214
2910.44401,0.11981
2908.51529,0.11768
2906.58656,0.11572
2904.65784,0.11394
2902.72912,0.11234
2900.80039,0.11083
2898.87167,0.10927
2896.94295,0.10762
2895.01422,0.10598
2893.08550,0.10450
2891.15677,0.10319
2889.22805,0.10201
2887.29933,0.10095
2885.37060,0.10003
2883.44188,0.09921
2881.51316,0.09853
2879.58443,0.09799
2877.65571,0.09754
2875.72698,0.09711
2873.79826,0.09662
2871.86954,0.09603
2869.94081,0.09532
2868.01209,0.09464
2866.08337,0.09422
2864.15464,0.09424
2862.22592,0.09466
2860.29720,0.09532
2858.36847,0.09604
2856.43975,0.09658
2854.51102,0.09656
2852.58230,0.09557
2850.65358,0.09341
2848.72485,0.09035
2846.79613,0.08699
2844.86741,0.08380
2842.93868,0.08091
2841.00996,0.07841
2839.08124,0.07626
2837.15251,0.07437
2835.22379,0.07269
2833.29506,0.07122
2831.36634,0.06993
2829.43762,0.06880
2827.50889,0.06784
2825.58017,0.06701
2823.65145,0.06614
2821.72272,0.06526
2819.79400,0.06452
2817.86527,0.06384
2815.93655,0.06300
2814.00783,0.06209
2812.07910,0.06133
2810.15038,0.06067
2808.22166,0.05996
2806.29293,0.05921
2804.36421,0.05847
2802.43549,0.05775
2800.50676,0.05707
2798.57804,0.05647
2796.64931,0.05589
2794.72059,0.05523
2792.79187,0.05458
2790.86314,0.05400
2788.93442,0.05341
2787.00570,0.05273
2785.07697,0.05202
2783.14825,0.05136
2781.21953,0.05072
2779.29080,0.05011
2777.36208,0.04962
2775.43335,0.04913
2773.50463,0.04849
2771.57591,0.04786
2769.64718,0.04734
2767.71846,0.04681
2765.78974,0.04620
2763.86101,0.04560
2761.93229,0.04503
2760.00356,0.04448
2758.07484,0.04393
2756.14612,0.04343
2754.21739,0.04300
2752.28867,0.04255
2750.35995,0.04208
2748.43122,0.04153
2746.50250,0.04087
2744.57378,0.04027
2742.64505,0.03983
2740.71633,0.03946
2738.78760,0.03902
2736.85888,0.03855
2734.93016,0.03805
2733.00143,0.03754
2731.07271,0.03708
2729.14399,0.03667
2727.21526,0.03619
2725.28654,0.03563
2723.35782,0.03507
2721.42909,0.03457
2719.50037,0.03409
2717.57164,0.03370
2715.64292,0.03337
2713.71420,0.03296
2711.78547,0.03242
2709.85675,0.03185
2707.92803,0.03130
2705.99930,0.03086
2704.07058,0.03055
2702.14185,0.03026
2700.21313,0.02987
2698.28441,0.02943
2696.35568,0.02901
2694.42696,0.02857
2692.49824,0.02810
2690.56951,0.02767
2688.64079,0.02734
2686.71207,0.02702
2684.78334,0.02662
2682.85462,0.02624
2680.92589,0.02594
2678.99717,0.02559
2677.06845,0.02512
2675.13972,0.02463
2673.21100,0.02420
2671.28228,0.02387
2669.35355,0.02356
2667.42483,0.02320
2665.49611,0.02278
2663.56738,0.02234
2661.63866,0.02192
2659.70993,0.02155
2657.78121,0.02122
2655.85249,0.02091
2653.92376,0.02063
2651.99504,0.02034
2650.06632,0.01992
2648.13759,0.01947
2646.20887,0.01913
2644.28014,0.01887
2642.35142,0.01859
2640.42270,0.01831
2638.49397,0.01801
2636.56525,0.01765
2634.63653,0.01726
2632.70780,0.01692
2630.77908,0.01664
2628.85036,0.01632
2626.92163,0.01596
2624.99291,0.01565
2623.06418,0.01541
2621.13546,0.01515
2619.20674,0.01485
2617.27801,0.01452
2615.34929,0.01418
2613.42057,0.01384
2611.49184,0.01355
2609.56312,0.01334
2607.63440,0.01316
2605.70567,0.01293
2603.77695,0.01268
2601.84822,0.01250
2599.91950,0.01230
2597.99078,0.01201
2596.06205,0.01167
2594.13333,0.01137
2592.20461,0.01108
2590.27588,0.01077
2588.34716,0.01046
2586.41843,0.01023
2584.48971,0.01010
2582.56099,0.00993
2580.63226,0.00968
2578.70354,0.00947
2576.77482,0.00929
2574.84609,0.00901
2572.91737,0.00867
2570.98865,0.00841
2569.05992,0.00827
2567.13120,0.00815
2565.20247,0.00800
2563.27375,0.00783
2561.34503,0.00766
2559.41630,0.00744
2557.48758,0.00714
2555.55886,0.00688
2553.63013,0.00671
2551.70141,0.00658
2549.77269,0.00646
2547.84396,0.00635
2545.91524,0.00619
2543.98651,0.00596
2542.05779,0.00570
2540.12907,0.00549
2538.20034,0.00535
2536.27162,0.00523
2534.34290,0.00507
2532.41417,0.00486
2530.48545,0.00466
2528.55673,0.00453
2526.62800,0.00445
2524.69928,0.00431
2522.77055,0.00412
2520.84183,0.00404
2518.91311,0.00402
2516.98438,0.00393
2515.05566,0.00377
2513.12694,0.00361
2511.19821,0.00345
2509.26949,0.00328
2507.34076,0.00318
2505.41204,0.00313
2503.48332,0.00302
2501.55459,0.00286
2499.62587,0.00273
2497.69715,0.00263
2495.76842,0.00252
2493.83970,0.00240
2491.91098,0.00227
2489.98225,0.00218
2488.05353,0.00215
2486.12480,0.00201
2484.19608,0.00177
2482.26736,0.00164
2480.33863,0.00165
2478.40991,0.00162
2476.48119,0.00150
2474.55246,0.00136
2472.62374,0.00127
2470.69502,0.00122
2468.76629,0.00113
2466.83757,0.00098
2464.90884,0.00088
2462.98012,0.00090
2461.05140,0.00095
2459.12267,0.00095
2457.19395,0.00088
2455.26523,0.00075
2453.33650,0.00061
2451.40778,0.00053
2449.47905,0.00052
2447.55033,0.00050
2445.62161,0.00046
2443.69288,0.00040
2441.76416,0.00038
2439.83544,0.00038
2437.90671,0.00034
2435.97799,0.00029
2434.04927,0.00027
2432.12054,0.00022
2430.19182,0.00014
2428.26309,0.00007
2426.33437,0.00003
2424.40565,0.00000
2422.47692,-0.00001
2420.54820,0.00000
2418.61948,-0.00002
2416.69075,-0.00006
2414.76203,-0.00008
2412.83331,-0.00005
2410.90458,-0.00002
2408.97586,-0.00005
2407.04713,-0.00010
2405.11841,-0.00013
2403.18969,-0.00013
2401.26096,-0.00009
2399.33224,-0.00006
2397.40352,-0.00009
2395.47479,-0.00017
2393.54607,-0.00027
2391.61734,-0.00028
2389.68862,-0.00024
2387.75990,-0.00023
2385.83117,-0.00022
2383.90245,-0.00015
2381.97373,-0.00004
2380.04500,0.00002
2378.11628,0.00002
2376.18756,-0.00001
2374.25883,0.00000
2372.33011,-0.00003
2370.40138,-0.00005
2368.47266,0.00002
2366.54394,0.00015
2364.61521,0.00028
2362.68649,0.00039
2360.75777,0.00040
2358.82904,0.00029
2356.90032,0.00010
2354.97160,-0.00007
2353.04287,-0.00019
2351.11415,-0.00023
2349.18542,-0.00022
2347.25670,-0.00013
2345.32798,-0.00005
2343.39925,-0.00005
2341.47053,-0.00005
2339.54181,0.00004
2337.61308,0.00008
2335.68436,0.00002
2333.75563,-0.00003
2331.82691,0.00003
2329.89819,0.00014
2327.96946,0.00015
2326.04074,0.00003
2324.11202,-0.00006
2322.18329,-0.00002
2320.25457,0.00003
2318.32585,0.00000
2316.39712,-0.00004
2314.46840,-0.00001
2312.53967,0.00005
2310.61095,0.00003
2308.68223,-0.00008
2306.75350,-0.00017
2304.82478,-0.00017
2302.89606,-0.00015
2300.96733,-0.00019
2299.03861,-0.00022
2297.10989,-0.00015
2295.18116,-0.00003
2293.25244,0.00004
2291.32371,0.00007
2289.39499,0.00007
2287.46627,-0.00002
2285.53754,-0.00013
2283.60882,-0.00012
2281.68010,-0.00001
2279.75137,0.00003
2277.82265,0.00001
2275.89392,-0.00003
2273.96520,-0.00009
2272.03648,-0.00014
2270.10775,-0.00013
2268.17903,-0.00008
2266.25031,-0.00003
2264.32158,0.00000
2262.39286,0.00000
2260.46414,0.00004
2258.53541,0.00014
2256.60669,0.00020
2254.67796,0.00017
2252.74924,0.00007
2250.82052,-0.00000
2248.89179,-0.00002
2246.96307,-0.00003
2245.03435,-0.00005
2243.10562,-0.00004
2241.17690,-0.00000
2239.24818,0.00002
2237.31945,-0.00002
2235.39073,-0.00010
2233.46200,-0.00013
2231.53328,-0.00010
2229.60456,-0.00008
2227.67583,-0.00007
2225.74711,-0.00007
2223.81839,-0.00010
2221.88966,-0.00014
2219.96094,-0.00014
2218.03221,-0.00014
2216.10349,-0.00018
2214.17477,-0.00019
2212.24604,-0.00009
2210.31732,-0.00001
2208.38860,0.00002
2206.45987,0.00000
2204.53115,-0.00005
2202.60243,-0.00012
2200.67370,-0.00017
2198.74498,-0.00018
2196.81625,-0.00019
2194.88753,-0.00025
2192.95881,-0.00033
2191.03008,-0.00031
2189.10136,-0.00022
2187.17264,-0.00011
2185.24391,-0.00001
2183.31519,0.00001
2181.38647,-0.00003
2179.45774,-0.00003
2177.52902,-0.00001
2175.60029,-0.00003
2173.67157,-0.00008
2171.74285,-0.00006
2169.81412,-0.00002
2167.88540,-0.00000
2165.95668,-0.00001
2164.02795,0.00002
2162.09923,0.00009
2160.17050,0.00017
2158.24178,0.00022
2156.31306,0.00026
2154.38433,0.00030
2152.45561,0.00032
2150.52689,0.00035
2148.59816,0.00036
2146.66944,0.00030
2144.74072,0.00023
2142.81199,0.00025
2140.88327,0.00034
2138.95454,0.00038
2137.02582,0.00037
2135.09710,0.00037
2133.16837,0.00031
2131.23965,0.00012
2129.31093,-0.00000
2127.38220,0.00009
2125.45348,0.00019
2123.52476,0.00012
2121.59603,0.00002
2119.66731,-0.00001
2117.73858,0.00007
2115.80986,0.00020
2113.88114,0.00019
2111.95241,0.00007
2110.02369,-0.00001
2108.09497,-0.00003
2106.16624,0.00000
2104.23752,0.00007
2102.30880,0.00009
2100.38007,0.00004
2098.45135,0.00001
2096.52262,-0.00002
2094.59390,0.00000
2092.66518,-0.00003
2090.73645,-0.00014
2088.80773,-0.00023
2086.87901,-0.00018
2084.95028,-0.00011
2083.02156,-0.00014
2081.09283,-0.00020
2079.16411,-0.00024
2077.23539,-0.00029
2075.30666,-0.00032
2073.37794,-0.00035
2071.44922,-0.00042
2069.52049,-0.00043
2067.59177,-0.00032
2065.66305,-0.00026
2063.73432,-0.00029
2061.80560,-0.00026
2059.87687,-0.00015
2057.94815,-0.00003
2056.01943,0.00007
2054.09070,0.00020
2052.16198,0.00037
2050.23326,0.00049
2048.30453,0.00062
2046.37581,0.00083
2044.44709,0.00102
2042.51836,0.00111
2040.58964,0.00125
2038.66091,0.00150
2036.73219,0.00180
2034.80347,0.00209
2032.87474,0.00232
2030.94602,0.00251
2029.01730,0.00269
2027.08857,0.00287
2025.15985,0.00306
2023.23112,0.00326
2021.30240,0.00344
2019.37368,0.00359
2017.44495,0.00378
2015.51623,0.00399
2013.58751,0.00413
2011.65878,0.00422
2009.73006,0.00435
2007.80134,0.00447
2005.87261,0.00453
2003.94389,0.00459
2002.01516,0.00468
2000.08644,0.00475
1998.15772,0.00475
1996.22899,0.00467
1994.30027,0.00461
1992.37155,0.00464
1990.44282,0.00465
1988.51410,0.00457
1986.58538,0.00447
1984.65665,0.00438
1982.72793,0.00431
1980.79920,0.00424
1978.87048,0.00414
1976.94176,0.00399
1975.01303,0.00381
1973.08431,0.00360
1971.15559,0.00338
1969.22686,0.00319
1967.29814,0.00303
1965.36941,0.00284
1963.44069,0.00263
1961.51197,0.00242
1959.58324,0.00223
1957.65452,0.00210
1955.72580,0.00197
1953.79707,0.00176
1951.86835,0.00150
1949.93963,0.00127
1948.01090,0.00112
1946.08218,0.00103
1944.15345,0.00095
1942.22473,0.00084
1940.29601,0.00070
1938.36728,0.00057
1936.43856,0.00048
1934.50984,0.00041
1932.58111,0.00032
1930.65239,0.00017
1928.72367,0.00003
1926.79494,0.00000
1924.86622,0.00007
1922.93749,0.00023
1921.00877,0.00041
1919.08005,0.00065
1917.15132,0.00099
1915.22260,0.00138
1913.29388,0.00175
1911.36515,0.00213
1909.43643,0.00253
1907.50770,0.00292
1905.57898,0.00333
1903.65026,0.00387
1901.72153,0.00452
1899.79281,0.00514
1897.86409,0.00572
1895.93536,0.00627
1894.00664,0.00680
1892.07792,0.00731
1890.14919,0.00786
1888.22047,0.00837
1886.29174,0.00870
1884.36302,0.00893
1882.43430,0.00916
1880.50557,0.00939
1878.57685,0.00959
1876.64813,0.00973
1874.71940,0.00980
1872.79068,0.00978
1870.86196,0.00971
1868.93323,0.00964
1867.00451,0.00951
1865.07578,0.00921
1863.14706,0.00877
1861.21834,0.00828
1859.28961,0.00782
1857.36089,0.00738
1855.43217,0.00688
1853.50344,0.00630
1851.57472,0.00566
1849.64599,0.00502
1847.71727,0.00447
1845.78855,0.00403
1843.85982,0.00361
1841.93110,0.00314
1840.00238,0.00268
1838.07365,0.00231
1836.14493,0.00200
1834.21621,0.00171
1832.28748,0.00145
1830.35876,0.00122
1828.43003,0.00101
1826.50131,0.00080
1824.57259,0.00059
1822.64386,0.00037
1820.71514,0.00019
1818.78642,0.00009
1816.85769,0.00004
1814.92897,0.00000
1813.00025,-0.00020
1811.07152,-0.00034
1809.14280,-0.00039
1807.21407,-0.00042
1805.28535,-0.00048
1803.35663,-0.00050
1801.42790,-0.00042
1799.49918,-0.00030
1797.57046,-0.00026
1795.64173,-0.00030
1793.71301,-0.00028
1791.78428,-0.00009
1789.85556,0.00014
1787.92684,0.00031
1785.99811,0.00050
1784.06939,0.00074
1782.14067,0.00100
1780.21194,0.00129
1778.28322,0.00153
1776.35450,0.00175
1774.42577,0.00210
1772.49705,0.00271
1770.56832,0.00336
1768.63960,0.00380
1766.71088,0.00408
1764.78215,0.00431
1762.85343,0.00463
1760.92471,0.00500
1758.99598,0.00532
1757.06726,0.00563
1755.13854,0.00597
1753.20981,0.00636
1751.28109,0.00693
1749.35236,0.00765
1747.42364,0.00831
1745.49492,0.00885
1743.56619,0.00942
1741.63747,0.01017
1739.70875,0.01112
1737.78002,0.01209
1735.85130,0.01321
1733.92257,0.01490
1731.99385,0.01676
1730.06513,0.01822
1728.13640,0.01952
1726.20768,0.02094
1724.27896,0.02255
1722.35023,0.02416
1720.42151,0.02573
1718.49279,0.02777
1716.56406,0.03045
1714.63534,0.03294
1712.70661,0.03495
1710.77789,0.03688
1708.84917,0.03899
1706.92044,0.04136
1704.99172,0.04383
1703.06300,0.04619
1701.13427,0.04903
1699.20555,0.05272
1697.27683,0.05656
1695.34810,0.06030
1693.41938,0.06358
1691.49065,0.06643
1689.56193,0.06933
1687.63321,0.07231
1685.70448,0.07600
1683.77576,0.08111
1681.84704,0.08577
1679.91831,0.08896
1677.98959,0.09184
1676.06087,0.09537
1674.13214,0.09919
1672.20342,0.10263
1670.27469,0.10627
1668.34597,0.11021
1666.41725,0.11335
1664.48852,0.11601
1662.55980,0.11901
1660.63108,0.12190
1658.70235,0.12404
1656.77363,0.12570
1654.84490,0.12788
1652.91618,0.13107
1650.98746,0.13352
1649.05873,0.13474
1647.13001,0.13612
1645.20129,0.13784
1643.27256,0.13903
1641.34384,0.13969
1639.41512,0.14018
1637.48639,0.14082
1635.55767,0.14164
1633.62894,0.14206
1631.70022,0.14180
1629.77150,0.14112
1627.84277,0.14011
1625.91405,0.13868
1623.98533,0.13668
1622.05660,0.13419
1620.12788,0.13149
1618.19916,0.12841
1616.27043,0.12476
1614.34171,0.12109
1612.41298,0.11764
1610.48426,0.11404
1608.55554,0.11019
1606.62681,0.10626
1604.69809,0.10231
1602.76937,0.09843
1600.84064,0.09483
1598.91192,0.09156
1596.98319,0.08849
1595.05447,0.08551
1593.12575,0.08266
1591.19702,0.07996
1589.26830,0.07741
1587.33958,0.07504
1585.41085,0.07279
1583.48213,0.07058
1581.55341,0.06848
1579.62468,0.06656
1577.69596,0.06475
1575.76723,0.06302
1573.83851,0.06153
1571.90979,0.06021
1569.98106,0.05889
1568.05234,0.05767
1566.12362,0.05666
1564.19489,0.05575
1562.26617,0.05477
1560.33745,0.05353
1558.40872,0.05223
1556.48000,0.05139
1554.55127,0.05076
1552.62255,0.04999
1550.69383,0.04901
1548.76510,0.04790
1546.83638,0.04670
1544.90766,0.04529
1542.97893,0.04364
1541.05021,0.04192
1539.12148,0.04040
1537.19276,0.03916
1535.26404,0.03792
1533.33531,0.03650
1531.40659,0.03506
1529.47787,0.03366
1527.54914,0.03212
1525.62042,0.03052
1523.69170,0.02901
1521.76297,0.02756
1519.83425,0.02615
1517.90552,0.02488
1515.97680,0.02373
1514.04808,0.02254
1512.11935,0.02112
1510.19063,0.01939
1508.26191,0.01732
1506.33318,0.01515
1504.40446,0.01341
1502.47574,0.01195
1500.54701,0.01035
1498.61829,0.00861
1496.68956,0.00703
1494.76084,0.00587
1492.83212,0.00504
1490.90339,0.00434
1488.97467,0.00371
1487.04595,0.00323
1485.11722,0.00296
1483.18850,0.00290
1481.25977,0.00299
1479.33105,0.00313
1477.40233,0.00339
1475.47360,0.00422
1473.54488,0.00609
1471.61616,0.00860
1469.68743,0.01064
1467.75871,0.01196
1465.82999,0.01302
1463.90126,0.01394
1461.97254,0.01448
1460.04381,0.01478
1458.11509,0.01533
1456.18637,0.01613
1454.25764,0.01651
1452.32892,0.01648
1450.40020,0.01649
1448.47147,0.01671
1446.54275,0.01704
1444.61403,0.01732
1442.68530,0.01756
1440.75658,0.01774
1438.82785,0.01797
1436.89913,0.01837
1434.97041,0.01885
1433.04168,0.01920
1431.11296,0.01960
1429.18424,0.02019
1427.25551,0.02084
1425.32679,0.02144
1423.39806,0.02204
1421.46934,0.02275
1419.54062,0.02378
1417.61189,0.02499
1415.68317,0.02599
1413.75445,0.02685
1411.82572,0.02792
1409.89700,0.02922
1407.96828,0.03056
1406.03955,0.03184
1404.11083,0.03295
1402.18210,0.03350
1400.25338,0.03321
1398.32466,0.03206
1396.39593,0.03019
1394.46721,0.02791
1392.53849,0.02566
1390.60976,0.02371
1388.68104,0.02200
1386.75232,0.02050
1384.82359,0.01922
1382.89487,0.01809
1380.96614,0.01700
1379.03742,0.01586
1377.10870,0.01461
1375.17997,0.01328
1373.25125,0.01199
1371.32253,0.01087
1369.39380,0.00989
1367.46508,0.00897
1365.53635,0.00802
1363.60763,0.00703
1361.67891,0.00616
1359.75018,0.00544
1357.82146,0.00479
1355.89274,0.00420
1353.96401,0.00370
1352.03529,0.00334
1350.10657,0.00311
1348.17784,0.00301
1346.24912,0.00293
1344.32039,0.00279
1342.39167,0.00256
1340.46295,0.00242
1338.53422,0.00247
1336.60550,0.00261
1334.67678,0.00270
1332.74805,0.00282
1330.81933,0.00305
1328.89061,0.00327
1326.96188,0.00344
1325.03316,0.00367
1323.10443,0.00404
1321.17571,0.00451
1319.24699,0.00501
1317.31826,0.00549
1315.38954,0.00590
1313.46082,0.00635
1311.53209,0.00691
1309.60337,0.00748
1307.67464,0.00803
1305.74592,0.00868
1303.81720,0.00945
1301.88847,0.01034
1299.95975,0.01144
1298.03103,0.01281
1296.10230,0.01443
1294.17358,0.01638
1292.24486,0.01861
1290.31613,0.02097
1288.38741,0.02352
1286.45868,0.02638
1284.52996,0.02950
1282.60124,0.03284
1280.67251,0.03650
1278.74379,0.04058
1276.81507,0.04505
1274.88634,0.04989
1272.95762,0.05516
1271.02890,0.06107
1269.10017,0.06781
1267.17145,0.07543
1265.24272,0.08389
1263.31400,0.09322
1261.38528,0.10368
1259.45655,0.11533
1257.52783,0.12770
1255.59911,0.14044
1253.67038,0.15348
1251.74166,0.16663
1249.81294,0.17943
1247.88421,0.19146
1245.95549,0.20257
1244.02676,0.21293
1242.09804,0.22258
1240.16932,0.23147
1238.24059,0.23958
1236.31187,0.24692
1234.38315,0.25354
1232.45442,0.25957
1230.52570,0.26505
1228.59697,0.26992
1226.66825,0.27426
1224.73953,0.27839
1222.81080,0.28242
1220.88208,0.28623
1218.95336,0.28994
1217.02463,0.29370
1215.09591,0.29730
1213.16719,0.30039
1211.23846,0.30303
1209.30974,0.30574
1207.38101,0.30887
1205.45229,0.31220
1203.52357,0.31534
1201.59484,0.31809
1199.66612,0.32017
1197.73740,0.32169
1195.80867,0.32334
1193.87995,0.32540
1191.95123,0.32781
1190.02250,0.33051
1188.09378,0.33323
1186.16505,0.33571
1184.23633,0.33802
1182.30761,0.34031
1180.37888,0.34290
1178.45016,0.34591
1176.52144,0.34906
1174.59271,0.35211
1172.66399,0.35488
1170.73526,0.35719
1168.80654,0.35905
1166.87782,0.36099
1164.94909,0.36347
1163.02037,0.36606
1161.09165,0.36827
1159.16292,0.37003
1157.23420,0.37156
1155.30548,0.37329
1153.37675,0.37539
1151.44803,0.37758
1149.51930,0.37977
1147.59058,0.38198
1145.66186,0.38416
1143.73313,0.38649
1141.80441,0.38909
1139.87569,0.39175
1137.94696,0.39424
1136.01824,0.39679
1134.08952,0.39949
1132.16079,0.40206
1130.23207,0.40492
1128.30334,0.40849
1126.37462,0.41251
1124.44590,0.41657
1122.51717,0.42045
1120.58845,0.42426
1118.65973,0.42792
1116.73100,0.43167
1114.80228,0.43618
1112.87355,0.44164
1110.94483,0.44731
1109.01611,0.45245
1107.08738,0.45722
1105.15866,0.46215
1103.22994,0.46740
1101.30121,0.47234
1099.37249,0.47586
1097.44377,0.47786
1095.51504,0.48005
1093.58632,0.48319
1091.65759,0.48571
1089.72887,0.48673
1087.80015,0.48689
1085.87142,0.48683
1083.94270,0.48700
1082.01398,0.48713
1080.08525,0.48663
1078.15653,0.48565
1076.22781,0.48460
1074.29908,0.48326
1072.37036,0.48140
1070.44163,0.47895
1068.51291,0.47579
1066.58419,0.47233
1064.65546,0.46902
1062.72674,0.46585
1060.79802,0.46218
1058.86929,0.45784
1056.94057,0.45344
1055.01184,0.44924
1053.08312,0.44532
1051.15440,0.44123
1049.22567,0.43619
1047.29695,0.43070
1045.36823,0.42540
1043.43950,0.41982
1041.51078,0.41358
1039.58206,0.40693
1037.65333,0.40043
1035.72461,0.39432
1033.79588,0.38810
1031.86716,0.38143
1029.93844,0.37454
1028.00971,0.36750
1026.08099,0.36028
1024.15227,0.35300
1022.22354,0.34576
1020.29482,0.33878
1018.36610,0.33257
1016.43737,0.32695
1014.50865,0.32087
1012.57992,0.31415
1010.65120,0.30751
1008.72248,0.30089
1006.79375,0.29387
1004.86503,0.28672
1002.93631,0.27974
1001.00758,0.27296
999.07886,0.26652
997.15013,0.26035
995.22141,0.25420
993.29269,0.24802
991.36396,0.24190
989.43524,0.23590
987.50652,0.23015
985.57779,0.22493
983.64907,0.22030
981.72035,0.21601
979.79162,0.21194
977.86290,0.20816
975.93417,0.20459
974.00545,0.20130
972.07673,0.19849
970.14800,0.19618
968.21928,0.19435
966.29056,0.19272
964.36183,0.19086
962.43311,0.18913
960.50439,0.18779
958.57566,0.18647
956.64694,0.18515
954.71821,0.18388
952.78949,0.18243
950.86077,0.18089
948.93204,0.17917
947.00332,0.17722
945.07460,0.17553
943.14587,0.17411
941.21715,0.17246
939.28842,0.17048
937.35970,0.16838
935.43098,0.16622
933.50225,0.16393
931.57353,0.16142
929.64481,0.15877
927.71608,0.15630
925.78736,0.15395
923.85864,0.15143
921.92991,0.14873
920.00119,0.14614
918.07246,0.14367
916.14374,0.14102
914.21502,0.13817
912.28629,0.13527
910.35757,0.13218
908.42885,0.12871
906.50012,0.12516
904.57140,0.12188
902.64268,0.11835
900.71395,0.11425
898.78523,0.11021
896.85650,0.10666
894.92778,0.10349
892.99906,0.10040
891.07033,0.09689
889.14161,0.09306
887.21289,0.08951
885.28416,0.08622
883.35544,0.08295
881.42671,0.07985
879.49799,0.07703
877.56927,0.07422
875.64054,0.07114
873.71182,0.06812
871.78310,0.06548
869.85437,0.06305
867.92565,0.06058
865.99693,0.05798
864.06820,0.05567
862.13948,0.05383
860.21075,0.05170
858.28203,0.04915
856.35331,0.04680
854.42458,0.04498
852.49586,0.04387
850.56714,0.04344
848.63841,0.04331
846.70969,0.04340
844.78097,0.04414
842.85224,0.04561
840.92352,0.04747
838.99479,0.04985
837.06607,0.05304
835.13735,0.05677
833.20862,0.06062
831.27990,0.06433
829.35118,0.06783
827.42245,0.07154
825.49373,0.07566
823.56501,0.07972
821.63628,0.08345
819.70756,0.08688
817.77883,0.09023
815.85011,0.09370
813.92139,0.09688
811.99266,0.09976
810.06394,0.10316
808.13522,0.10705
806.20649,0.11066
804.27777,0.11371
802.34904,0.11614
800.42032,0.11770
798.49160,0.11839
796.56287,0.11841
794.63415,0.11803
792.70543,0.11746
790.77670,0.11639
788.84798,0.11448
786.91926,0.11176
784.99053,0.10871
783.06181,0.10571
781.13308,0.10249
779.20436,0.09905
777.27564,0.09552
775.34691,0.09147
773.41819,0.08704
771.48947,0.08303
769.56074,0.07968
767.63202,0.07703
765.70330,0.07524
763.77457,0.07412
761.84585,0.07330
759.91712,0.07253
757.98840,0.07179
756.05968,0.07133
754.13095,0.07118
752.20223,0.07102
750.27351,0.07054
748.34478,0.06976
746.41606,0.06893
744.48733,0.06804
742.55861,0.06713
740.62989,0.06667
738.70116,0.06688
736.77244,0.06705
734.84372,0.06648
732.91499,0.06562
730.98627,0.06500
729.05755,0.06464
727.12882,0.06470
725.20010,0.06515
723.27137,0.06538
721.34265,0.06515
719.41393,0.06476
717.48520,0.06455
715.55648,0.06444
713.62776,0.06426
711.69903,0.06409
709.77031,0.06402
707.84159,0.06396
705.91286,0.06401
703.98414,0.06426
702.05541,0.06464
700.12669,0.06522
698.19797,0.06590
696.26924,0.06618
694.34052,0.06583
692.41180,0.06535
690.48307,0.06536
688.55435,0.06581
686.62562,0.06621
684.69690,0.06649
682.76818,0.06681
680.83945,0.06680
678.91073,0.06633
676.98201,0.06603
675.05328,0.06628
673.12456,0.06656
671.19584,0.06642
669.26711,0.06620
667.33839,0.06653
665.40966,0.06724
663.48094,0.06771
661.55222,0.06772
659.62349,0.06764
657.69477,0.06808
655.76605,0.06925
653.83732,0.07079
651.90860,0.07197
649.97988,0.07260
648.05115,0.07369
646.12243,0.07561
644.19370,0.07754
642.26498,0.07915
640.33626,0.08064
638.40753,0.08173
636.47881,0.08238
634.55009,0.08349
632.62136,0.08540
630.69264,0.08702
628.76391,0.08778
626.83519,0.08830
624.90647,0.08916
622.97774,0.08987
621.04902,0.09045
619.12030,0.09207
617.19157,0.09447
615.26285,0.09600
613.33413,0.09656
611.40540,0.09716
609.47668,0.09845
607.54795,0.10025
605.61923,0.10184
603.69051,0.10338
601.76178,0.10556
599.83306,0.10780
597.90434,0.10959
595.97561,0.11156
594.04689,0.11337
592.11817,0.11444
590.18944,0.11555
588.26072,0.11722
586.33199,0.11953
584.40327,0.12211
582.47455,0.12403
580.54582,0.12528
578.61710,0.12648
576.68838,0.12721
574.75965,0.12695
572.83093,0.12643
570.90220,0.12647
568.97348,0.12690
567.04476,0.12763
565.11603,0.12901
563.18731,0.13083
561.25859,0.13223
559.32986,0.13259
557.40114,0.13240
555.47242,0.13265
553.54369,0.13382
551.61497,0.13582
549.68624,0.13796
547.75752,0.13987
545.82880,0.14164
543.90007,0.14316
541.97135,0.14427
540.04263,0.14445
538.11390,0.14304
536.18518,0.14102
534.25646,0.14067
532.32773,0.14184
530.39901,0.14218
528.47028,0.14137
526.54156,0.14095
524.61284,0.14166
522.68411,0.14294
520.75539,0.14407
518.82667,0.14511
516.89794,0.14646
514.96922,0.14834
513.04049,0.15045
511.11177,0.15277
509.18305,0.15682
507.25432,0.16291
505.32560,0.16891
503.39688,0.17423
501.46815,0.17944
499.53943,0.18525
497.61071,0.19294
495.68198,0.20163
493.75326,0.20930
491.82453,0.21688
489.89581,0.22650
487.96709,0.23721
486.03836,0.24572
484.10964,0.25123
482.18092,0.25627
480.25219,0.26187
478.32347,0.26746
476.39475,0.27526
474.46602,0.28652
472.53730,0.29640
470.60857,0.30143
468.67985,0.30416
466.75113,0.30599
464.82240,0.30703
462.89368,0.30860
460.96496,0.30945
459.03623,0.30599
457.10751,0.29816
455.17878,0.29011
453.25006,0.28480
451.32134,0.28143
449.39261,0.27603
447.46389,0.26620
445.53517,0.25571
443.60644,0.24910
441.67772,0.24526
439.74900,0.24119
437.82027,0.23575
435.89155,0.22924
433.96282,0.22234
432.03410,0.21509
430.10538,0.20850
428.17665,0.20358
426.24793,0.20017
424.31921,0.19869
422.39048,0.19709
420.46176,0.18970
418.53304,0.17627
416.60431,0.16646
414.67559,0.16221
412.74686,0.15648
410.81814,0.14785
408.88942,0.13861
406.96069,0.12896
405.03197,0.12275
403.10325,0.12402
401.17452,0.12685
399.24580,0.12019
397.31708,0.10265
395.38835,0.09091
393.45963,0.09514
391.53090,0.10036
389.60218,0.09432
387.67346,0.08425
385.74473,0.07913
383.81601,0.07869
381.88729,0.08399
379.95856,0.10069
378.02984,0.12007
376.10111,0.11707
374.17239,0.08827
372.24367,0.06022
370.31494,0.03330
368.38622,0.00000
