3996.31543,0.00063
3994.38671,0.00064
3992.45799,0.00057
3990.52926,0.00044
3988.60054,0.00024
3986.67182,0.00005
3984.74309,0.00000
3982.81437,0.00014
3980.88564,0.00036
3978.95692,0.00051
3977.02820,0.00060
3975.09947,0.00065
3973.17075,0.00060
3971.24203,0.00049
3969.31330,0.00046
3967.38458,0.00055
3965.45586,0.00062
3963.52713,0.00060
3961.59841,0.00058
3959.66968,0.00058
3957.74096,0.00058
3955.81224,0.00061
3953.88351,0.00072
3951.95479,0.00088
3950.02607,0.00092
3948.09734,0.00081
3946.16862,0.00070
3944.23990,0.00058
3942.31117,0.00029
3940.38245,0.00000
3938.45372,0.00003
3936.52500,0.00035
3934.59628,0.00068
3932.66755,0.00075
3930.73883,0.00065
3928.81011,0.00065
3926.88138,0.00077
3924.95266,0.00079
3923.02393,0.00061
3921.09521,0.00041
3919.16649,0.00022
3917.23776,0.00002
3915.30904,-0.00004
3913.38032,0.00011
3911.45159,0.00025
3909.52287,0.00025
3907.59415,0.00038
3905.66542,0.00072
3903.73670,0.00088
3901.80797,0.00057
3899.87925,-0.00001
3897.95053,-0.00032
3896.02180,-0.00004
3894.09308,0.00045
3892.16436,0.00045
3890.23563,0.00012
3888.30691,0.00014
3886.37819,0.00039
3884.44946,0.00056
3882.52074,0.00065
3880.59201,0.00041
3878.66329,0.00000
3876.73457,0.00004
3874.80584,0.00050
3872.87712,0.00083
3870.94840,0.00061
3869.01967,0.00001
3867.09095,-0.00016
3865.16222,0.00008
3863.23350,0.00004
3861.30478,-0.00017
3859.37605,0.00009
3857.44733,0.00103
3855.51861,0.00203
3853.58988,0.00194
3851.66116,0.00075
3849.73244,-0.00009
3847.80371,-0.00019
3845.87499,0.00001
3843.94626,0.00021
3842.01754,0.00046
3840.08882,0.00072
3838.16009,0.00060
3836.23137,0.00012
3834.30265,-0.00009
3832.37392,0.00009
3830.44520,0.00031
3828.51648,0.00037
3826.58775,0.00043
3824.65903,0.00078
3822.73030,0.00127
3820.80158,0.00146
3818.87286,0.00153
3816.94413,0.00148
3815.01541,0.00098
3813.08669,0.00059
3811.15796,0.00076
3809.22924,0.00116
3807.30052,0.00149
3805.37179,0.00198
3803.44307,0.00263
3801.51434,0.00266
3799.58562,0.00208
3797.65690,0.00172
3795.72817,0.00174
3793.79945,0.00194
3791.87073,0.00222
3789.94200,0.00251
3788.01328,0.00284
3786.08455,0.00314
3784.15583,0.00331
3782.22711,0.00351
3780.29838,0.00371
3778.36966,0.00378
3776.44094,0.00395
3774.51221,0.00440
3772.58349,0.00494
3770.65477,0.00522
3768.72604,0.00533
3766.79732,0.00562
3764.86859,0.00613
3762.93987,0.00681
3761.01115,0.00755
3759.08242,0.00801
3757.15370,0.00843
3755.22498,0.00944
3753.29625,0.01093
3751.36753,0.01200
3749.43881,0.01236
3747.51008,0.01279
3745.58136,0.01333
3743.65263,0.01369
3741.72391,0.01446
3739.79519,0.01604
3737.86646,0.01797
3735.93774,0.01948
3734.00902,0.02020
3732.08029,0.02076
3730.15157,0.02196
3728.22284,0.02394
3726.29412,0.02621
3724.36540,0.02830
3722.43667,0.03022
3720.50795,0.03223
3718.57923,0.03454
3716.65050,0.03723
3714.72178,0.04035
3712.79306,0.04379
3710.86433,0.04710
3708.93561,0.05004
3707.00688,0.05298
3705.07816,0.05630
3703.14944,0.06006
3701.22071,0.06406
3699.29199,0.06799
3697.36327,0.07183
3695.43454,0.07581
3693.50582,0.08004
3691.57710,0.08455
3689.64837,0.08912
3687.71965,0.09341
3685.79092,0.09743
3683.86220,0.10151
3681.93348,0.10598
3680.00475,0.11091
3678.07603,0.11614
3676.14731,0.12134
3674.21858,0.12605
3672.28986,0.13042
3670.36113,0.13509
3668.43241,0.13971
3666.50369,0.14365
3664.57496,0.14734
3662.64624,0.15113
3660.71752,0.15489
3658.78879,0.15849
3656.86007,0.16201
3654.93135,0.16531
3653.00262,0.16825
3651.07390,0.17116
3649.14517,0.17419
3647.21645,0.17700
3645.28773,0.17947
3643.35900,0.18179
3641.43028,0.18412
3639.50156,0.18651
3637.57283,0.18889
3635.64411,0.19121
3633.71539,0.19357
3631.78666,0.19596
3629.85794,0.19821
3627.92921,0.20022
3626.00049,0.20211
3624.07177,0.20406
3622.14304,0.20597
3620.21432,0.20750
3618.28560,0.20845
3616.35687,0.20922
3614.42815,0.21035
3612.49942,0.21194
3610.57070,0.21359
3608.64198,0.21491
3606.71325,0.21599
3604.78453,0.21721
3602.85581,0.21860
3600.92708,0.22000
3598.99836,0.22141
3597.06964,0.22285
3595.14091,0.22420
3593.21219,0.22545
3591.28346,0.22673
3589.35474,0.22805
3587.42602,0.22917
3585.49729,0.23008
3583.56857,0.23113
3581.63985,0.23240
3579.71112,0.23375
3577.78240,0.23504
3575.85368,0.23622
3573.92495,0.23738
3571.99623,0.23866
3570.06750,0.24012
3568.13878,0.24147
3566.21006,0.24241
3564.28133,0.24320
3562.35261,0.24425
3560.42389,0.24549
3558.49516,0.24667
3556.56644,0.24777
3554.63771,0.24886
3552.70899,0.25007
3550.78027,0.25134
3548.85154,0.25248
3546.92282,0.25342
3544.99410,0.25423
3543.06537,0.25505
3541.13665,0.25608
3539.20793,0.25738
3537.27920,0.25873
3535.35048,0.25983
3533.42175,0.26053
3531.49303,0.26108
3529.56431,0.26185
3527.63558,0.26288
3525.70686,0.26391
3523.77814,0.26473
3521.84941,0.26554
3519.92069,0.26651
3517.99197,0.26757
3516.06324,0.26856
3514.13452,0.26948
3512.20579,0.27035
3510.27707,0.27096
3508.34835,0.27139
3506.41962,0.27213
3504.49090,0.27334
3502.56218,0.27450
3500.63345,0.27525
3498.70473,0.27582
3496.77600,0.27652
3494.84728,0.27747
3492.91856,0.27850
3490.98983,0.27923
3489.06111,0.27963
3487.13239,0.27997
3485.20366,0.28047
3483.27494,0.28109
3481.34622,0.28177
3479.41749,0.28247
3477.48877,0.28311
3475.56004,0.28365
3473.63132,0.28430
3471.70260,0.28513
3469.77387,0.28599
3467.84515,0.28678
3465.91643,0.28745
3463.98770,0.28801
3462.05898,0.28840
3460.13026,0.28866
3458.20153,0.28905
3456.27281,0.28954
3454.34408,0.28976
3452.41536,0.28975
3450.48664,0.29008
3448.55791,0.29088
3446.62919,0.29164
3444.70047,0.29201
3442.77174,0.29203
3440.84302,0.29196
3438.91429,0.29208
3436.98557,0.29254
3435.05685,0.29316
3433.12812,0.29366
3431.19940,0.29405
3429.27068,0.29440
3427.34195,0.29458
3425.41323,0.29457
3423.48451,0.29464
3421.55578,0.29492
3419.62706,0.29513
3417.69833,0.29523
3415.76961,0.29551
3413.84089,0.29582
3411.91216,0.29585
3409.98344,0.29592
3408.05472,0.29628
3406.12599,0.29653
3404.19727,0.29634
3402.26855,0.29593
3400.33982,0.29561
3398.41110,0.29553
3396.48237,0.29579
3394.55365,0.29615
3392.62493,0.29623
3390.69620,0.29594
3388.76748,0.29569
3386.83876,0.29579
3384.91003,0.29596
3382.98131,0.29587
3381.05259,0.29565
3379.12386,0.29547
3377.19514,0.29518
3375.26641,0.29476
3373.33769,0.29445
3371.40897,0.29430
3369.48024,0.29413
3367.55152,0.29393
3365.62280,0.29383
3363.69407,0.29370
3361.76535,0.29332
3359.83662,0.29275
3357.90790,0.29220
3355.97918,0.29166
3354.05045,0.29113
3352.12173,0.29090
3350.19301,0.29103
3348.26428,0.29100
3346.33556,0.29053
3344.40684,0.28999
3342.47811,0.28974
3340.54939,0.28958
3338.62066,0.28925
3336.69194,0.28881
3334.76322,0.28841
3332.83449,0.28807
3330.90577,0.28769
3328.97705,0.28716
3327.04832,0.28654
3325.11960,0.28609
3323.19088,0.28576
3321.26215,0.28542
3319.33343,0.28510
3317.40470,0.28483
3315.47598,0.28466
3313.54726,0.28460
3311.61853,0.28437
3309.68981,0.28384
3307.76109,0.28328
3305.83236,0.28305
3303.90364,0.28293
3301.97491,0.28253
3300.04619,0.28206
3298.11747,0.28181
3296.18874,0.28150
3294.26002,0.28101
3292.33130,0.28052
3290.40257,0.28020
3288.47385,0.28003
3286.54513,0.27980
3284.61640,0.27939
3282.68768,0.27884
3280.75895,0.27825
3278.83023,0.27774
3276.90151,0.27740
3274.97278,0.27710
3273.04406,0.27667
3271.11534,0.27620
3269.18661,0.27585
3267.25789,0.27552
3265.32917,0.27512
3263.40044,0.27466
3261.47172,0.27418
3259.54299,0.27371
3257.61427,0.27325
3255.68555,0.27275
3253.75682,0.27223
3251.82810,0.27182
3249.89938,0.27150
3247.97065,0.27093
3246.04193,0.27013
3244.11320,0.26950
3242.18448,0.26904
3240.25576,0.26854
3238.32703,0.26805
3236.39831,0.26759
3234.46959,0.26702
3232.54086,0.26630
3230.61214,0.26554
3228.68342,0.26493
3226.75469,0.26441
3224.82597,0.26373
3222.89724,0.26298
3220.96852,0.26236
3219.03980,0.26180
3217.11107,0.26113
3215.18235,0.26032
3213.25363,0.25942
3211.32490,0.25855
3209.39618,0.25786
3207.46746,0.25724
3205.53873,0.25642
3203.61001,0.25550
3201.68128,0.25478
3199.75256,0.25416
3197.82384,0.25336
3195.89511,0.25247
3193.96639,0.25153
3192.03767,0.25046
3190.10894,0.24950
3188.18022,0.24884
3186.25149,0.24814
3184.32277,0.24718
3182.39405,0.24627
3180.46532,0.24556
3178.53660,0.24483
3176.60788,0.24383
3174.67915,0.24263
3172.75043,0.24152
3170.82171,0.24054
3168.89298,0.23954
3166.96426,0.23862
3165.03553,0.23788
3163.10681,0.23712
3161.17809,0.23623
3159.24936,0.23518
3157.32064,0.23408
3155.39192,0.23312
3153.46319,0.23237
3151.53447,0.23159
3149.60575,0.23062
3147.67702,0.22963
3145.74830,0.22879
3143.81957,0.22796
3141.89085,0.22699
3139.96213,0.22603
3138.03340,0.22523
3136.10468,0.22442
3134.17596,0.22343
3132.24723,0.22237
3130.31851,0.22143
3128.38978,0.22054
3126.46106,0.21958
3124.53234,0.21862
3122.60361,0.21780
3120.67489,0.21708
3118.74617,0.21627
3116.81744,0.21524
3114.88872,0.21408
3112.96000,0.21301
3111.03127,0.21209
3109.10255,0.21120
3107.17382,0.21026
3105.24510,0.20930
3103.31638,0.20828
3101.38765,0.20726
3099.45893,0.20633
3097.53021,0.20553
3095.60148,0.20471
3093.67276,0.20375
3091.74404,0.20270
3089.81531,0.20171
3087.88659,0.20072
3085.95786,0.19961
3084.02914,0.19845
3082.10042,0.19733
3080.17169,0.19627
3078.24297,0.19526
3076.31425,0.19424
3074.38552,0.19318
3072.45680,0.19208
3070.52807,0.19103
3068.59935,0.19010
3066.67063,0.18913
3064.74190,0.18806
3062.81318,0.18712
3060.88446,0.18627
3058.95573,0.18524
3057.02701,0.18401
3055.09829,0.18277
3053.16956,0.18164
3051.24084,0.18067
3049.31211,0.17983
3047.38339,0.17894
3045.45467,0.17788
3043.52594,0.17679
3041.59722,0.17577
3039.66850,0.17476
3037.73977,0.17378
3035.81105,0.17284
3033.88233,0.17194
3031.95360,0.17109
3030.02488,0.17021
3028.09615,0.16921
3026.16743,0.16815
3024.23871,0.16706
3022.30998,0.16602
3020.38126,0.16510
3018.45254,0.16427
3016.52381,0.16339
3014.59509,0.16248
3012.66636,0.16168
3010.73764,0.16092
3008.80892,0.16008
3006.88019,0.15919
3004.95147,0.15828
3003.02275,0.15739
3001.09402,0.15659
2999.16530,0.15587
2997.23658,0.15518
2995.30785,0.15451
2993.37913,0.15387
2991.45040,0.15324
2989.52168,0.15263
2987.59296,0.15210
2985.66423,0.15168
2983.73551,0.15138
2981.80679,0.15115
2979.87806,0.15085
2977.94934,0.15047
2976.02062,0.15021
2974.09189,0.15014
2972.16317,0.15017
2970.23444,0.15023
2968.30572,0.15032
2966.37700,0.15038
2964.44827,0.15024
2962.51955,0.14989
2960.59083,0.14943
2958.66210,0.14889
2956.73338,0.14824
2954.80466,0.14757
2952.87593,0.14700
2950.94721,0.14656
2949.01848,0.14625
2947.08976,0.14606
2945.16104,0.14593
2943.23231,0.14586
2941.30359,0.14601
2939.37487,0.14645
2937.44614,0.14702
2935.51742,0.14755
2933.58869,0.14804
2931.65997,0.14844
2929.73125,0.14872
2927.80252,0.14887
2925.87380,0.14874
2923.94508,0.14814
2922.01635,0.14697
2920.08763,0.14518
2918.15891,0.14299
2916.23018,0.14066
2914.30146,0.13821
2912.37273,0.13565
2910.44401,0.13327
2908.51529,0.13127
2906.58656,0.12958
2904.65784,0.12796
2902.72912,0.12628
2900.80039,0.12474
2898.87167,0.12337
2896.94295,0.12199
2895.01422,0.12058
2893.08550,0.11919
2891.15677,0.11791
2889.22805,0.11679
2887.29933,0.11574
2885.37060,0.11464
2883.44188,0.11362
2881.51316,0.11285
2879.58443,0.11221
2877.65571,0.11155
2875.72698,0.11092
2873.79826,0.11033
2871.86954,0.10959
2869.94081,0.10871
2868.01209,0.10795
2866.08337,0.10740
2864.15464,0.10698
2862.22592,0.10684
2860.29720,0.10717
2858.36847,0.10779
2856.43975,0.10831
2854.51102,0.10853
2852.58230,0.10812
2850.65358,0.10665
2848.72485,0.10410
2846.79613,0.10093
2844.86741,0.09776
2842.93868,0.09494
2841.00996,0.09256
2839.08124,0.09059
2837.15251,0.08893
2835.22379,0.08748
2833.29506,0.08616
2831.36634,0.08494
2829.43762,0.08380
2827.50889,0.08273
2825.58017,0.08169
2823.65145,0.08066
2821.72272,0.07967
2819.79400,0.07881
2817.86527,0.07802
2815.93655,0.07718
2814.00783,0.07630
2812.07910,0.07545
2810.15038,0.07468
2808.22166,0.07388
2806.29293,0.07301
2804.36421,0.07213
2802.43549,0.07132
2800.50676,0.07054
2798.57804,0.06985
2796.64931,0.06924
2794.72059,0.06865
2792.79187,0.06798
2790.86314,0.06717
2788.93442,0.06628
2787.00570,0.06542
2785.07697,0.06465
2783.14825,0.06398
2781.21953,0.06340
2779.29080,0.06285
2777.36208,0.06227
2775.43335,0.06169
2773.50463,0.06103
2771.57591,0.06027
2769.64718,0.05953
2767.71846,0.05891
2765.78974,0.05834
2763.86101,0.05772
2761.93229,0.05707
2760.00356,0.05644
2758.07484,0.05583
2756.14612,0.05527
2754.21739,0.05476
2752.28867,0.05422
2750.35995,0.05356
2748.43122,0.05285
2746.50250,0.05223
2744.57378,0.05168
2742.64505,0.05108
2740.71633,0.05042
2738.78760,0.04976
2736.85888,0.04914
2734.93016,0.04866
2733.00143,0.04826
2731.07271,0.04776
2729.14399,0.04717
2727.21526,0.04664
2725.28654,0.04615
2723.35782,0.04554
2721.42909,0.04486
2719.50037,0.04428
2717.57164,0.04381
2715.64292,0.04322
2713.71420,0.04254
2711.78547,0.04196
2709.85675,0.04152
2707.92803,0.04106
2705.99930,0.04052
2704.07058,0.03996
2702.14185,0.03943
2700.21313,0.03892
2698.28441,0.03841
2696.35568,0.03792
2694.42696,0.03744
2692.49824,0.03688
2690.56951,0.03629
2688.64079,0.03580
2686.71207,0.03538
2684.78334,0.03491
2682.85462,0.03440
2680.92589,0.03387
2678.99717,0.03338
2677.06845,0.03300
2675.13972,0.03264
2673.21100,0.03219
2671.28228,0.03166
2669.35355,0.03114
2667.42483,0.03068
2665.49611,0.03027
2663.56738,0.02983
2661.63866,0.02936
2659.70993,0.02883
2657.78121,0.02826
2655.85249,0.02771
2653.92376,0.02725
2651.99504,0.02693
2650.06632,0.02666
2648.13759,0.02631
2646.20887,0.02582
2644.28014,0.02525
2642.35142,0.02472
2640.42270,0.02434
2638.49397,0.02407
2636.56525,0.02372
2634.63653,0.02334
2632.70780,0.02301
2630.77908,0.02263
2628.85036,0.02216
2626.92163,0.02174
2624.99291,0.02138
2623.06418,0.02105
2621.13546,0.02073
2619.20674,0.02037
2617.27801,0.01996
2615.34929,0.01950
2613.42057,0.01908
2611.49184,0.01878
2609.56312,0.01860
2607.63440,0.01826
2605.70567,0.01775
2603.77695,0.01731
2601.84822,0.01697
2599.91950,0.01657
2597.99078,0.01620
2596.06205,0.01596
2594.13333,0.01573
2592.20461,0.01544
2590.27588,0.01517
2588.34716,0.01494
2586.41843,0.01465
2584.48971,0.01437
2582.56099,0.01409
2580.63226,0.01375
2578.70354,0.01342
2576.77482,0.01311
2574.84609,0.01282
2572.91737,0.01261
2570.98865,0.01242
2569.05992,0.01217
2567.13120,0.01187
2565.20247,0.01157
2563.27375,0.01128
2561.34503,0.01103
2559.41630,0.01080
2557.48758,0.01056
2555.55886,0.01031
2553.63013,0.01010
2551.70141,0.00995
2549.77269,0.00980
2547.84396,0.00958
2545.91524,0.00933
2543.98651,0.00913
2542.05779,0.00893
2540.12907,0.00867
2538.20034,0.00839
2536.27162,0.00820
2534.34290,0.00806
2532.41417,0.00787
2530.48545,0.00768
2528.55673,0.00751
2526.62800,0.00735
2524.69928,0.00719
2522.77055,0.00703
2520.84183,0.00685
2518.91311,0.00666
2516.98438,0.00647
2515.05566,0.00629
2513.12694,0.00609
2511.19821,0.00592
2509.26949,0.00579
2507.34076,0.00561
2505.41204,0.00545
2503.48332,0.00538
2501.55459,0.00527
2499.62587,0.00510
2497.69715,0.00497
2495.76842,0.00488
2493.83970,0.00472
2491.91098,0.00445
2489.98225,0.00417
2488.05353,0.00398
2486.12480,0.00390
2484.19608,0.00384
2482.26736,0.00372
2480.33863,0.00354
2478.40991,0.00341
2476.48119,0.00334
2474.55246,0.00321
2472.62374,0.00300
2470.69502,0.00286
2468.76629,0.00280
2466.83757,0.00274
2464.90884,0.00261
2462.98012,0.00248
2461.05140,0.00236
2459.12267,0.00226
2457.19395,0.00227
2455.26523,0.00229
2453.33650,0.00215
2451.40778,0.00188
2449.47905,0.00170
2447.55033,0.00166
2445.62161,0.00163
2443.69288,0.00159
2441.76416,0.00160
2439.83544,0.00157
2437.90671,0.00141
2435.97799,0.00121
2434.04927,0.00110
2432.12054,0.00109
2430.19182,0.00108
2428.26309,0.00100
2426.33437,0.00089
2424.40565,0.00082
2422.47692,0.00077
2420.54820,0.00069
2418.61948,0.00066
2416.69075,0.00069
2414.76203,0.00067
2412.83331,0.00061
2410.90458,0.00057
2408.97586,0.00054
2407.04713,0.00048
2405.11841,0.00037
2403.18969,0.00025
2401.26096,0.00020
2399.33224,0.00017
2397.40352,0.00014
2395.47479,0.00010
2393.54607,0.00007
2391.61734,0.00008
2389.68862,0.00011
2387.75990,0.00014
2385.83117,0.00017
2383.90245,0.00026
2381.97373,0.00043
2380.04500,0.00054
2378.11628,0.00052
2376.18756,0.00046
2374.25883,0.00052
2372.33011,0.00072
2370.40138,0.00095
2368.47266,0.00111
2366.54394,0.00119
2364.61521,0.00112
2362.68649,0.00093
2360.75777,0.00073
2358.82904,0.00053
2356.90032,0.00027
2354.97160,0.00008
2353.04287,0.00000
2351.11415,-0.00000
2349.18542,0.00017
2347.25670,0.00041
2345.32798,0.00044
2343.39925,0.00033
2341.47053,0.00043
2339.54181,0.00075
2337.61308,0.00099
2335.68436,0.00098
2333.75563,0.00074
2331.82691,0.00045
2329.89819,0.00027
2327.96946,0.00023
2326.04074,0.00028
2324.11202,0.00040
2322.18329,0.00052
2320.25457,0.00056
2318.32585,0.00053
2316.39712,0.00045
2314.46840,0.00034
2312.53967,0.00024
2310.61095,0.00022
2308.68223,0.00028
2306.75350,0.00039
2304.82478,0.00046
2302.89606,0.00048
2300.96733,0.00046
2299.03861,0.00042
2297.10989,0.00036
2295.18116,0.00036
2293.25244,0.00045
2291.32371,0.00054
2289.39499,0.00055
2287.46627,0.00054
2285.53754,0.00057
2283.60882,0.00066
2281.68010,0.00075
2279.75137,0.00077
2277.82265,0.00074
2275.89392,0.00075
2273.96520,0.00082
2272.03648,0.00087
2270.10775,0.00086
2268.17903,0.00083
2266.25031,0.00087
2264.32158,0.00093
2262.39286,0.00092
2260.46414,0.00084
2258.53541,0.00072
2256.60669,0.00060
2254.67796,0.00051
2252.74924,0.00046
2250.82052,0.00040
2248.89179,0.00033
2246.96307,0.00042
2245.03435,0.00053
2243.10562,0.00055
2241.17690,0.00053
2239.24818,0.00060
2237.31945,0.00068
2235.39073,0.00069
2233.46200,0.00066
2231.53328,0.00063
2229.60456,0.00057
2227.67583,0.00047
2225.74711,0.00039
2223.81839,0.00043
2221.88966,0.00056
2219.96094,0.00062
2218.03221,0.00059
2216.10349,0.00058
2214.17477,0.00055
2212.24604,0.00052
2210.31732,0.00051
2208.38860,0.00045
2206.45987,0.00038
2204.53115,0.00042
2202.60243,0.00051
2200.67370,0.00053
2198.74498,0.00047
2196.81625,0.00040
2194.88753,0.00037
2192.95881,0.00039
2191.03008,0.00041
2189.10136,0.00042
2187.17264,0.00046
2185.24391,0.00052
2183.31519,0.00056
2181.38647,0.00057
2179.45774,0.00055
2177.52902,0.00053
2175.60029,0.00047
2173.67157,0.00043
2171.74285,0.00039
2169.81412,0.00035
2167.88540,0.00041
2165.95668,0.00056
2164.02795,0.00065
2162.09923,0.00069
2160.17050,0.00071
2158.24178,0.00076
2156.31306,0.00079
2154.38433,0.00078
2152.45561,0.00077
2150.52689,0.00077
2148.59816,0.00071
2146.66944,0.00067
2144.74072,0.00067
2142.81199,0.00068
2140.88327,0.00069
2138.95454,0.00066
2137.02582,0.00055
2135.09710,0.00046
2133.16837,0.00048
2131.23965,0.00053
2129.31093,0.00061
2127.38220,0.00073
2125.45348,0.00074
2123.52476,0.00061
2121.59603,0.00048
2119.66731,0.00043
2117.73858,0.00042
2115.80986,0.00041
2113.88114,0.00041
2111.95241,0.00036
2110.02369,0.00023
2108.09497,0.00009
2106.16624,0.00007
2104.23752,0.00017
2102.30880,0.00022
2100.38007,0.00014
2098.45135,0.00003
2096.52262,-0.00002
2094.59390,0.00000
2092.66518,-0.00004
2090.73645,-0.00012
2088.80773,-0.00021
2086.87901,-0.00030
2084.95028,-0.00039
2083.02156,-0.00043
2081.09283,-0.00043
2079.16411,-0.00049
2077.23539,-0.00059
2075.30666,-0.00062
2073.37794,-0.00057
2071.44922,-0.00051
2069.52049,-0.00039
2067.59177,-0.00027
2065.66305,-0.00025
2063.73432,-0.00028
2061.80560,-0.00023
2059.87687,-0.00006
2057.94815,0.00013
2056.01943,0.00025
2054.09070,0.00034
2052.16198,0.00044
2050.23326,0.00056
2048.30453,0.00075
2046.37581,0.00103
2044.44709,0.00140
2042.51836,0.00180
2040.58964,0.00214
2038.66091,0.00238
2036.73219,0.00264
2034.80347,0.00296
2032.87474,0.00327
2030.94602,0.00360
2029.01730,0.00395
2027.08857,0.00423
2025.15985,0.00444
2023.23112,0.00461
2021.30240,0.00480
2019.37368,0.00505
2017.44495,0.00529
2015.51623,0.00551
2013.58751,0.00576
2011.65878,0.00600
2009.73006,0.00617
2007.80134,0.00630
2005.87261,0.00641
2003.94389,0.00643
2002.01516,0.00640
2000.08644,0.00639
1998.15772,0.00636
1996.22899,0.00635
1994.30027,0.00639
1992.37155,0.00636
1990.44282,0.00626
1988.51410,0.00624
1986.58538,0.00624
1984.65665,0.00609
1982.72793,0.00593
1980.79920,0.00588
1978.87048,0.00579
1976.94176,0.00556
1975.01303,0.00528
1973.08431,0.00507
1971.15559,0.00489
1969.22686,0.00470
1967.29814,0.00444
1965.36941,0.00413
1963.44069,0.00386
1961.51197,0.00365
1959.58324,0.00344
1957.65452,0.00317
1955.72580,0.00284
1953.79707,0.00253
1951.86835,0.00232
1949.93963,0.00220
1948.01090,0.00208
1946.08218,0.00193
1944.15345,0.00172
1942.22473,0.00140
1940.29601,0.00111
1938.36728,0.00099
1936.43856,0.00096
1934.50984,0.00093
1932.58111,0.00096
1930.65239,0.00107
1928.72367,0.00117
1926.79494,0.00125
1924.86622,0.00138
1922.93749,0.00157
1921.00877,0.00179
1919.08005,0.00204
1917.15132,0.00234
1915.22260,0.00275
1913.29388,0.00334
1911.36515,0.00407
1909.43643,0.00481
1907.50770,0.00546
1905.57898,0.00610
1903.65026,0.00686
1901.72153,0.00768
1899.79281,0.00849
1897.86409,0.00928
1895.93536,0.01010
1894.00664,0.01088
1892.07792,0.01158
1890.14919,0.01218
1888.22047,0.01266
1886.29174,0.01310
1884.36302,0.01354
1882.43430,0.01393
1880.50557,0.01427
1878.57685,0.01458
1876.64813,0.01479
1874.71940,0.01488
1872.79068,0.01495
1870.86196,0.01496
1868.93323,0.01470
1867.00451,0.01408
1865.07578,0.01339
1863.14706,0.01282
1861.21834,0.01224
1859.28961,0.01153
1857.36089,0.01070
1855.43217,0.00984
1853.50344,0.00900
1851.57472,0.00821
1849.64599,0.00752
1847.71727,0.00692
1845.78855,0.00626
1843.85982,0.00541
1841.93110,0.00459
1840.00238,0.00402
1838.07365,0.00355
1836.14493,0.00304
1834.21621,0.00259
1832.28748,0.00225
1830.35876,0.00190
1828.43003,0.00148
1826.50131,0.00111
1824.57259,0.00076
1822.64386,0.00044
1820.71514,0.00022
1818.78642,0.00010
1816.85769,0.00001
1814.92897,0.00000
1813.00025,-0.00001
1811.07152,-0.00002
1809.14280,-0.00010
1807.21407,-0.00015
1805.28535,-0.00010
1803.35663,0.00000
1801.42790,0.00008
1799.49918,0.00015
1797.57046,0.00032
1795.64173,0.00062
1793.71301,0.00093
1791.78428,0.00103
1789.85556,0.00105
1787.92684,0.00128
1785.99811,0.00177
1784.06939,0.00238
1782.14067,0.00294
1780.21194,0.00340
1778.28322,0.00381
1776.35450,0.00436
1774.42577,0.00510
1772.49705,0.00572
1770.56832,0.00602
1768.63960,0.00625
1766.71088,0.00665
1764.78215,0.00724
1762.85343,0.00788
1760.92471,0.00842
1758.99598,0.00888
1757.06726,0.00941
1755.13854,0.01009
1753.20981,0.01091
1751.28109,0.01178
1749.35236,0.01261
1747.42364,0.01344
1745.49492,0.01443
1743.56619,0.01565
1741.63747,0.01698
1739.70875,0.01830
1737.78002,0.01960
1735.85130,0.02098
1733.92257,0.02257
1731.99385,0.02415
1730.06513,0.02555
1728.13640,0.02693
1726.20768,0.02839
1724.27896,0.03004
1722.35023,0.03184
1720.42151,0.03382
1718.49279,0.03611
1716.56406,0.03842
1714.63534,0.04032
1712.70661,0.04207
1710.77789,0.04408
1708.84917,0.04646
1706.92044,0.04918
1704.99172,0.05192
1703.06300,0.05447
1701.13427,0.05732
1699.20555,0.06076
1697.27683,0.06426
1695.34810,0.06764
1693.41938,0.07080
1691.49065,0.07386
1689.56193,0.07714
1687.63321,0.08055
1685.70448,0.08429
1683.77576,0.08850
1681.84704,0.09217
1679.91831,0.09506
1677.98959,0.09790
1676.06087,0.10110
1674.13214,0.10437
1672.20342,0.10737
1670.27469,0.11047
1668.34597,0.11371
1666.41725,0.11655
1664.48852,0.11924
1662.55980,0.12206
1660.63108,0.12461
1658.70235,0.12667
1656.77363,0.12854
1654.84490,0.13059
1652.91618,0.13272
1650.98746,0.13428
1649.05873,0.13545
1647.13001,0.13664
1645.20129,0.13768
1643.27256,0.13848
1641.34384,0.13928
1639.41512,0.14021
1637.48639,0.14106
1635.55767,0.14122
1633.62894,0.14067
1631.70022,0.14018
1629.77150,0.13985
1627.84277,0.13927
1625.91405,0.13821
1623.98533,0.13654
1622.05660,0.13450
1620.12788,0.13263
1618.19916,0.13054
1616.27043,0.12756
1614.34171,0.12439
1612.41298,0.12171
1610.48426,0.11908
1608.55554,0.11612
1606.62681,0.11305
1604.69809,0.11010
1602.76937,0.10721
1600.84064,0.10441
1598.91192,0.10181
1596.98319,0.09945
1595.05447,0.09729
1593.12575,0.09523
1591.19702,0.09321
1589.26830,0.09121
1587.33958,0.08929
1585.41085,0.08745
1583.48213,0.08563
1581.55341,0.08400
1579.62468,0.08274
1577.69596,0.08152
1575.76723,0.07987
1573.83851,0.07835
1571.90979,0.07740
1569.98106,0.07645
1568.05234,0.07518
1566.12362,0.07404
1564.19489,0.07329
1562.26617,0.07290
1560.33745,0.07230
1558.40872,0.07084
1556.48000,0.06923
1554.55127,0.06820
1552.62255,0.06745
1550.69383,0.06668
1548.76510,0.06584
1546.83638,0.06505
1544.90766,0.06431
1542.97893,0.06339
1541.05021,0.06174
1539.12148,0.05944
1537.19276,0.05778
1535.26404,0.05675
1533.33531,0.05538
1531.40659,0.05377
1529.47787,0.05249
1527.54914,0.05133
1525.62042,0.05002
1523.69170,0.04862
1521.76297,0.04700
1519.83425,0.04530
1517.90552,0.04380
1515.97680,0.04222
1514.04808,0.04060
1512.11935,0.03930
1510.19063,0.03825
1508.26191,0.03654
1506.33318,0.03353
1504.40446,0.03081
1502.47574,0.02929
1500.54701,0.02814
1498.61829,0.02668
1496.68956,0.02500
1494.76084,0.02373
1492.83212,0.02311
1490.90339,0.02266
1488.97467,0.02198
1487.04595,0.02129
1485.11722,0.02092
1483.18850,0.02091
1481.25977,0.02121
1479.33105,0.02183
1477.40233,0.02284
1475.47360,0.02424
1473.54488,0.02607
1471.61616,0.02803
1469.68743,0.02965
1467.75871,0.03093
1465.82999,0.03195
1463.90126,0.03269
1461.97254,0.03339
1460.04381,0.03426
1458.11509,0.03506
1456.18637,0.03530
1454.25764,0.03525
1452.32892,0.03539
1450.40020,0.03576
1448.47147,0.03615
1446.54275,0.03646
1444.61403,0.03675
1442.68530,0.03714
1440.75658,0.03761
1438.82785,0.03809
1436.89913,0.03857
1434.97041,0.03906
1433.04168,0.03955
1431.11296,0.04008
1429.18424,0.04063
1427.25551,0.04118
1425.32679,0.04174
1423.39806,0.04229
1421.46934,0.04284
1419.54062,0.04336
1417.61189,0.04375
1415.68317,0.04409
1413.75445,0.04447
1411.82572,0.04487
1409.89700,0.04524
1407.96828,0.04559
1406.03955,0.04585
1404.11083,0.04594
1402.18210,0.04591
1400.25338,0.04570
1398.32466,0.04510
1396.39593,0.04405
1394.46721,0.04273
1392.53849,0.04146
1390.60976,0.04040
1388.68104,0.03933
1386.75232,0.03806
1384.82359,0.03691
1382.89487,0.03626
1380.96614,0.03603
1379.03742,0.03581
1377.10870,0.03531
1375.17997,0.03449
1373.25125,0.03348
1371.32253,0.03257
1369.39380,0.03183
1367.46508,0.03111
1365.53635,0.03035
1363.60763,0.02953
1361.67891,0.02865
1359.75018,0.02790
1357.82146,0.02742
1355.89274,0.02711
1353.96401,0.02680
1352.03529,0.02650
1350.10657,0.02628
1348.17784,0.02615
1346.24912,0.02609
1344.32039,0.02598
1342.39167,0.02578
1340.46295,0.02551
1338.53422,0.02528
1336.60550,0.02523
1334.67678,0.02534
1332.74805,0.02549
1330.81933,0.02564
1328.89061,0.02585
1326.96188,0.02623
1325.03316,0.02675
1323.10443,0.02732
1321.17571,0.02790
1319.24699,0.02846
1317.31826,0.02896
1315.38954,0.02947
1313.46082,0.03010
1311.53209,0.03086
1309.60337,0.03164
1307.67464,0.03246
1305.74592,0.03341
1303.81720,0.03458
1301.88847,0.03590
1299.95975,0.03735
1298.03103,0.03900
1296.10230,0.04087
1294.17358,0.04284
1292.24486,0.04496
1290.31613,0.04737
1288.38741,0.05001
1286.45868,0.05285
1284.52996,0.05602
1282.60124,0.05958
1280.67251,0.06343
1278.74379,0.06765
1276.81507,0.07237
1274.88634,0.07766
1272.95762,0.08342
1271.02890,0.08968
1269.10017,0.09668
1267.17145,0.10455
1265.24272,0.11317
1263.31400,0.12252
1261.38528,0.13288
1259.45655,0.14434
1257.52783,0.15642
1255.59911,0.16877
1253.67038,0.18122
1251.74166,0.19333
1249.81294,0.20452
1247.88421,0.21466
1245.95549,0.22399
1244.02676,0.23249
1242.09804,0.24005
1240.16932,0.24692
1238.24059,0.25316
1236.31187,0.25863
1234.38315,0.26347
1232.45442,0.26819
1230.52570,0.27279
1228.59697,0.27690
1226.66825,0.28042
1224.73953,0.28340
1222.81080,0.28620
1220.88208,0.28908
1218.95336,0.29173
1217.02463,0.29411
1215.09591,0.29662
1213.16719,0.29925
1211.23846,0.30180
1209.30974,0.30418
1207.38101,0.30627
1205.45229,0.30810
1203.52357,0.31009
1201.59484,0.31243
1199.66612,0.31470
1197.73740,0.31657
1195.80867,0.31843
1193.87995,0.32063
1191.95123,0.32289
1190.02250,0.32478
1188.09378,0.32644
1186.16505,0.32822
1184.23633,0.33001
1182.30761,0.33155
1180.37888,0.33308
1178.45016,0.33491
1176.52144,0.33686
1174.59271,0.33877
1172.66399,0.34077
1170.73526,0.34276
1168.80654,0.34454
1166.87782,0.34620
1164.94909,0.34795
1163.02037,0.34978
1161.09165,0.35146
1159.16292,0.35293
1157.23420,0.35456
1155.30548,0.35626
1153.37675,0.35766
1151.44803,0.35888
1149.51930,0.36000
1147.59058,0.36108
1145.66186,0.36247
1143.73313,0.36416
1141.80441,0.36579
1139.87569,0.36736
1137.94696,0.36899
1136.01824,0.37049
1134.08952,0.37174
1132.16079,0.37282
1130.23207,0.37409
1128.30334,0.37602
1126.37462,0.37861
1124.44590,0.38131
1122.51717,0.38393
1120.58845,0.38671
1118.65973,0.38943
1116.73100,0.39229
1114.80228,0.39638
1112.87355,0.40173
1110.94483,0.40718
1109.01611,0.41237
1107.08738,0.41780
1105.15866,0.42345
1103.22994,0.42885
1101.30121,0.43362
1099.37249,0.43763
1097.44377,0.44140
1095.51504,0.44515
1093.58632,0.44770
1091.65759,0.44882
1089.72887,0.44997
1087.80015,0.45134
1085.87142,0.45192
1083.94270,0.45154
1082.01398,0.45097
1080.08525,0.45058
1078.15653,0.44974
1076.22781,0.44815
1074.29908,0.44591
1072.37036,0.44318
1070.44163,0.44061
1068.51291,0.43849
1066.58419,0.43619
1064.65546,0.43314
1062.72674,0.42924
1060.79802,0.42482
1058.86929,0.42042
1056.94057,0.41575
1055.01184,0.41026
1053.08312,0.40415
1051.15440,0.39777
1049.22567,0.39093
1047.29695,0.38347
1045.36823,0.37622
1043.43950,0.36971
1041.51078,0.36295
1039.58206,0.35518
1037.65333,0.34683
1035.72461,0.33842
1033.79588,0.33004
1031.86716,0.32178
1029.93844,0.31402
1028.00971,0.30676
1026.08099,0.29928
1024.15227,0.29154
1022.22354,0.28429
1020.29482,0.27782
1018.36610,0.27187
1016.43737,0.26603
1014.50865,0.26026
1012.57992,0.25479
1010.65120,0.24950
1008.72248,0.24426
1006.79375,0.23927
1004.86503,0.23492
1002.93631,0.23113
1001.00758,0.22746
999.07886,0.22351
997.15013,0.21942
995.22141,0.21577
993.29269,0.21269
991.36396,0.20984
989.43524,0.20726
987.50652,0.20520
985.57779,0.20354
983.64907,0.20221
981.72035,0.20134
979.79162,0.20079
977.86290,0.20056
975.93417,0.20059
974.00545,0.20064
972.07673,0.20081
970.14800,0.20118
968.21928,0.20154
966.29056,0.20170
964.36183,0.20171
962.43311,0.20181
960.50439,0.20202
958.57566,0.20221
956.64694,0.20219
954.71821,0.20174
952.78949,0.20081
950.86077,0.19969
948.93204,0.19868
947.00332,0.19766
945.07460,0.19647
943.14587,0.19487
941.21715,0.19274
939.28842,0.19049
937.35970,0.18841
935.43098,0.18639
933.50225,0.18416
931.57353,0.18160
929.64481,0.17873
927.71608,0.17560
925.78736,0.17237
923.85864,0.16920
921.92991,0.16598
920.00119,0.16262
918.07246,0.15924
916.14374,0.15578
914.21502,0.15222
912.28629,0.14868
910.35757,0.14505
908.42885,0.14122
906.50012,0.13730
904.57140,0.13359
902.64268,0.13019
900.71395,0.12664
898.78523,0.12279
896.85650,0.11901
894.92778,0.11536
892.99906,0.11193
891.07033,0.10876
889.14161,0.10542
887.21289,0.10198
885.28416,0.09892
883.35544,0.09627
881.42671,0.09394
879.49799,0.09185
877.56927,0.08981
875.64054,0.08768
873.71182,0.08557
871.78310,0.08363
869.85437,0.08185
867.92565,0.08040
865.99693,0.07927
864.06820,0.07801
862.13948,0.07658
860.21075,0.07535
858.28203,0.07432
856.35331,0.07348
854.42458,0.07281
852.49586,0.07229
850.56714,0.07226
848.63841,0.07307
846.70969,0.07458
844.78097,0.07669
842.85224,0.07959
840.92352,0.08320
838.99479,0.08721
837.06607,0.09143
835.13735,0.09571
833.20862,0.09970
831.27990,0.10341
829.35118,0.10739
827.42245,0.11183
825.49373,0.11613
823.56501,0.11992
821.63628,0.12361
819.70756,0.12769
817.77883,0.13213
815.85011,0.13638
813.92139,0.14009
811.99266,0.14334
810.06394,0.14630
808.13522,0.14906
806.20649,0.15189
804.27777,0.15484
802.34904,0.15737
800.42032,0.15890
798.49160,0.15940
796.56287,0.15910
794.63415,0.15843
792.70543,0.15753
790.77670,0.15600
788.84798,0.15363
786.91926,0.15058
784.99053,0.14689
783.06181,0.14276
781.13308,0.13839
779.20436,0.13376
777.27564,0.12882
775.34691,0.12344
773.41819,0.11780
771.48947,0.11275
769.56074,0.10912
767.63202,0.10687
765.70330,0.10517
763.77457,0.10375
761.84585,0.10276
759.91712,0.10198
757.98840,0.10133
756.05968,0.10093
754.13095,0.10045
752.20223,0.09969
750.27351,0.09906
748.34478,0.09897
746.41606,0.09907
744.48733,0.09891
742.55861,0.09852
740.62989,0.09804
738.70116,0.09757
736.77244,0.09715
734.84372,0.09687
732.91499,0.09692
730.98627,0.09707
729.05755,0.09701
727.12882,0.09688
725.20010,0.09661
723.27137,0.09608
721.34265,0.09581
719.41393,0.09590
717.48520,0.09616
715.55648,0.09634
713.62776,0.09627
711.69903,0.09622
709.77031,0.09646
707.84159,0.09675
705.91286,0.09688
703.98414,0.09718
702.05541,0.09797
700.12669,0.09902
698.19797,0.09985
696.26924,0.10030
694.34052,0.10042
692.41180,0.10027
690.48307,0.10009
688.55435,0.10007
686.62562,0.10015
684.69690,0.10037
682.76818,0.10074
680.83945,0.10097
678.91073,0.10096
676.98201,0.10093
675.05328,0.10094
673.12456,0.10093
671.19584,0.10111
669.26711,0.10167
667.33839,0.10213
665.40966,0.10219
663.48094,0.10238
661.55222,0.10300
659.62349,0.10405
657.69477,0.10526
655.76605,0.10605
653.83732,0.10639
651.90860,0.10705
649.97988,0.10847
648.05115,0.11028
646.12243,0.11196
644.19370,0.11327
642.26498,0.11437
640.33626,0.11562
638.40753,0.11720
636.47881,0.11889
634.55009,0.12016
632.62136,0.12078
630.69264,0.12118
628.76391,0.12204
626.83519,0.12357
624.90647,0.12513
622.97774,0.12637
621.04902,0.12752
619.12030,0.12871
617.19157,0.12944
615.26285,0.12991
613.33413,0.13106
611.40540,0.13235
609.47668,0.13302
607.54795,0.13418
605.61923,0.13645
603.69051,0.13863
601.76178,0.13965
599.83306,0.14028
597.90434,0.14219
595.97561,0.14551
594.04689,0.14836
592.11817,0.14963
590.18944,0.15014
588.26072,0.15092
586.33199,0.15221
584.40327,0.15358
582.47455,0.15465
580.54582,0.15595
578.61710,0.15793
576.68838,0.16001
574.75965,0.16128
572.83093,0.16157
570.90220,0.16184
568.97348,0.16268
567.04476,0.16355
565.11603,0.16410
563.18731,0.16448
561.25859,0.16461
559.32986,0.16456
557.40114,0.16464
555.47242,0.16508
553.54369,0.16572
551.61497,0.16611
549.68624,0.16655
547.75752,0.16791
545.82880,0.17014
543.90007,0.17171
541.97135,0.17133
540.04263,0.17012
538.11390,0.16958
536.18518,0.16926
534.25646,0.16899
532.32773,0.16909
530.39901,0.16888
528.47028,0.16849
526.54156,0.16872
524.61284,0.16921
522.68411,0.16971
520.75539,0.17097
518.82667,0.17300
516.89794,0.17538
514.96922,0.17771
513.04049,0.17978
511.11177,0.18256
509.18305,0.18724
507.25432,0.19316
505.32560,0.19887
503.39688,0.20450
501.46815,0.21053
499.53943,0.21574
497.61071,0.22004
495.68198,0.22548
493.75326,0.23324
491.82453,0.24273
489.89581,0.25295
487.96709,0.26233
486.03836,0.26982
484.10964,0.27740
482.18092,0.28727
480.25219,0.29747
478.32347,0.30465
476.39475,0.30892
474.46602,0.31350
472.53730,0.32066
470.60857,0.32881
468.67985,0.33440
466.75113,0.33632
464.82240,0.33628
462.89368,0.33663
460.96496,0.33867
459.03623,0.33932
457.10751,0.33334
455.17878,0.32267
453.25006,0.31398
451.32134,0.30895
449.39261,0.30579
447.46389,0.30428
445.53517,0.30294
443.60644,0.29716
441.67772,0.28723
439.74900,0.27916
437.82027,0.27455
435.89155,0.27136
433.96282,0.26882
432.03410,0.26496
430.10538,0.25676
428.17665,0.24421
426.24793,0.23180
424.31921,0.22502
422.39048,0.22202
420.46176,0.21531
418.53304,0.20555
416.60431,0.20111
414.67559,0.19994
412.74686,0.19408
410.81814,0.18258
408.88942,0.16918
406.96069,0.15985
405.03197,0.16271
403.10325,0.17820
401.17452,0.19581
399.24580,0.20091
397.31708,0.18368
395.38835,0.15525
393.45963,0.13725
391.53090,0.13310
389.60218,0.13089
387.67346,0.12228
385.74473,0.11105
383.81601,0.10599
381.88729,0.11125
379.95856,0.11933
378.02984,0.11364
376.10111,0.09257
374.17239,0.07748
372.24367,0.06490
370.31494,0.03508
368.38622,0.00000
