3996.31543,0.00016
3994.38671,0.00011
3992.45799,0.00003
3990.52926,0.00000
3988.60054,0.00016
3986.67182,0.00031
3984.74309,0.00023
3982.81437,0.00009
3980.88564,0.00018
3978.95692,0.00038
3977.02820,0.00044
3975.09947,0.00045
3973.17075,0.00049
3971.24203,0.00043
3969.31330,0.00029
3967.38458,0.00029
3965.45586,0.00045
3963.52713,0.00054
3961.59841,0.00057
3959.66968,0.00056
3957.74096,0.00041
3955.81224,0.00037
3953.88351,0.00064
3951.95479,0.00095
3950.02607,0.00096
3948.09734,0.00094
3946.16862,0.00112
3944.23990,0.00103
3942.31117,0.00089
3940.38245,0.00104
3938.45372,0.00111
3936.52500,0.00106
3934.59628,0.00086
3932.66755,0.00062
3930.73883,0.00083
3928.81011,0.00133
3926.88138,0.00135
3924.95266,0.00101
3923.02393,0.00103
3921.09521,0.00103
3919.16649,0.00066
3917.23776,0.00043
3915.30904,0.00065
3913.38032,0.00088
3911.45159,0.00104
3909.52287,0.00148
3907.59415,0.00170
3905.66542,0.00129
3903.73670,0.00103
3901.80797,0.00111
3899.87925,0.00091
3897.95053,0.00113
3896.02180,0.00162
3894.09308,0.00124
3892.16436,0.00048
3890.23563,0.00100
3888.30691,0.00169
3886.37819,0.00115
3884.44946,0.00108
3882.52074,0.00109
3880.59201,0.00059
3878.66329,0.00114
3876.73457,0.00162
3874.80584,0.00127
3872.87712,0.00108
3870.94840,0.00054
3869.01967,0.00070
3867.09095,0.00149
3865.16222,0.00115
3863.23350,0.00086
3861.30478,0.00144
3859.37605,0.00243
3857.44733,0.00295
3855.51861,0.00179
3853.58988,0.00000
3851.66116,0.00047
3849.73244,0.00158
3847.80371,0.00179
3845.87499,0.00154
3843.94626,0.00157
3842.01754,0.00194
3840.08882,0.00167
3838.16009,0.00113
3836.23137,0.00138
3834.30265,0.00171
3832.37392,0.00158
3830.44520,0.00173
3828.51648,0.00195
3826.58775,0.00223
3824.65903,0.00265
3822.73030,0.00183
3820.80158,0.00124
3818.87286,0.00199
3816.94413,0.00137
3815.01541,0.00091
3813.08669,0.00194
3811.15796,0.00269
3809.22924,0.00236
3807.30052,0.00199
3805.37179,0.00296
3803.44307,0.00309
3801.51434,0.00226
3799.58562,0.00285
3797.65690,0.00308
3795.72817,0.00275
3793.79945,0.00285
3791.87073,0.00295
3789.94200,0.00325
3788.01328,0.00372
3786.08455,0.00394
3784.15583,0.00427
3782.22711,0.00449
3780.29838,0.00409
3778.36966,0.00422
3776.44094,0.00515
3774.51221,0.00593
3772.58349,0.00606
3770.65477,0.00577
3768.72604,0.00602
3766.79732,0.00640
3764.86859,0.00691
3762.93987,0.00780
3761.01115,0.00807
3759.08242,0.00841
3757.15370,0.00976
3755.22498,0.01097
3753.29625,0.01071
3751.36753,0.01023
3749.43881,0.01185
3747.51008,0.01376
3745.58136,0.01343
3743.65263,0.01386
3741.72391,0.01625
3739.79519,0.01788
3737.86646,0.01835
3735.93774,0.01887
3734.00902,0.02048
3732.08029,0.02282
3730.15157,0.02522
3728.22284,0.02690
3726.29412,0.02830
3724.36540,0.03035
3722.43667,0.03265
3720.50795,0.03510
3718.57923,0.03788
3716.65050,0.04086
3714.72178,0.04330
3712.79306,0.04525
3710.86433,0.04837
3708.93561,0.05274
3707.00688,0.05677
3705.07816,0.05990
3703.14944,0.06260
3701.22071,0.06606
3699.29199,0.07023
3697.36327,0.07394
3695.43454,0.07745
3693.50582,0.08080
3691.57710,0.08360
3689.64837,0.08671
3687.71965,0.09126
3685.79092,0.09621
3683.86220,0.10030
3681.93348,0.10416
3680.00475,0.10826
3678.07603,0.11193
3676.14731,0.11572
3674.21858,0.12167
3672.28986,0.12662
3670.36113,0.12935
3668.43241,0.13355
3666.50369,0.13832
3664.57496,0.14198
3662.64624,0.14545
3660.71752,0.14910
3658.78879,0.15224
3656.86007,0.15540
3654.93135,0.15984
3653.00262,0.16358
3651.07390,0.16532
3649.14517,0.16777
3647.21645,0.17203
3645.28773,0.17611
3643.35900,0.17880
3641.43028,0.18096
3639.50156,0.18341
3637.57283,0.18610
3635.64411,0.18884
3633.71539,0.19158
3631.78666,0.19356
3629.85794,0.19454
3627.92921,0.19732
3626.00049,0.20149
3624.07177,0.20429
3622.14304,0.20563
3620.21432,0.20656
3618.28560,0.20856
3616.35687,0.21120
3614.42815,0.21297
3612.49942,0.21445
3610.57070,0.21597
3608.64198,0.21736
3606.71325,0.21946
3604.78453,0.22179
3602.85581,0.22336
3600.92708,0.22469
3598.99836,0.22624
3597.06964,0.22764
3595.14091,0.22911
3593.21219,0.23128
3591.28346,0.23337
3589.35474,0.23430
3587.42602,0.23519
3585.49729,0.23725
3583.56857,0.23922
3581.63985,0.24044
3579.71112,0.24151
3577.78240,0.24276
3575.85368,0.24414
3573.92495,0.24572
3571.99623,0.24735
3570.06750,0.24832
3568.13878,0.24870
3566.21006,0.24998
3564.28133,0.25211
3562.35261,0.25365
3560.42389,0.25473
3558.49516,0.25604
3556.56644,0.25742
3554.63771,0.25844
3552.70899,0.25934
3550.78027,0.26061
3548.85154,0.26185
3546.92282,0.26278
3544.99410,0.26382
3543.06537,0.26507
3541.13665,0.26625
3539.20793,0.26716
3537.27920,0.26782
3535.35048,0.26858
3533.42175,0.26960
3531.49303,0.27062
3529.56431,0.27158
3527.63558,0.27266
3525.70686,0.27379
3523.77814,0.27471
3521.84941,0.27552
3519.92069,0.27623
3517.99197,0.27686
3516.06324,0.27758
3514.13452,0.27837
3512.20579,0.27914
3510.27707,0.27997
3508.34835,0.28109
3506.41962,0.28213
3504.49090,0.28270
3502.56218,0.28345
3500.63345,0.28446
3498.70473,0.28509
3496.77600,0.28545
3494.84728,0.28608
3492.91856,0.28694
3490.98983,0.28776
3489.06111,0.28846
3487.13239,0.28915
3485.20366,0.28975
3483.27494,0.29016
3481.34622,0.29080
3479.41749,0.29173
3477.48877,0.29247
3475.56004,0.29300
3473.63132,0.29354
3471.70260,0.29404
3469.77387,0.29454
3467.84515,0.29507
3465.91643,0.29551
3463.98770,0.29578
3462.05898,0.29608
3460.13026,0.29659
3458.20153,0.29714
3456.27281,0.29754
3454.34408,0.29786
3452.41536,0.29827
3450.48664,0.29876
3448.55791,0.29897
3446.62919,0.29923
3444.70047,0.29969
3442.77174,0.29989
3440.84302,0.30006
3438.91429,0.30033
3436.98557,0.30059
3435.05685,0.30088
3433.12812,0.30108
3431.19940,0.30129
3429.27068,0.30165
3427.34195,0.30213
3425.41323,0.30265
3423.48451,0.30305
3421.55578,0.30322
3419.62706,0.30337
3417.69833,0.30342
3415.76961,0.30333
3413.84089,0.30354
3411.91216,0.30396
3409.98344,0.30417
3408.05472,0.30418
3406.12599,0.30428
3404.19727,0.30456
3402.26855,0.30470
3400.33982,0.30455
3398.41110,0.30436
3396.48237,0.30430
3394.55365,0.30410
3392.62493,0.30385
3390.69620,0.30384
3388.76748,0.30383
3386.83876,0.30364
3384.91003,0.30349
3382.98131,0.30353
3381.05259,0.30355
3379.12386,0.30346
3377.19514,0.30340
3375.26641,0.30335
3373.33769,0.30317
3371.40897,0.30292
3369.48024,0.30273
3367.55152,0.30247
3365.62280,0.30215
3363.69407,0.30191
3361.76535,0.30169
3359.83662,0.30157
3357.90790,0.30164
3355.97918,0.30174
3354.05045,0.30156
3352.12173,0.30102
3350.19301,0.30035
3348.26428,0.29974
3346.33556,0.29937
3344.40684,0.29941
3342.47811,0.29968
3340.54939,0.29970
3338.62066,0.29930
3336.69194,0.29881
3334.76322,0.29853
3332.83449,0.29838
3330.90577,0.29810
3328.97705,0.29767
3327.04832,0.29719
3325.11960,0.29675
3323.19088,0.29627
3321.26215,0.29573
3319.33343,0.29526
3317.40470,0.29494
3315.47598,0.29461
3313.54726,0.29423
3311.61853,0.29394
3309.68981,0.29369
3307.76109,0.29346
3305.83236,0.29330
3303.90364,0.29318
3301.97491,0.29300
3300.04619,0.29267
3298.11747,0.29231
3296.18874,0.29211
3294.26002,0.29203
3292.33130,0.29182
3290.40257,0.29136
3288.47385,0.29079
3286.54513,0.29035
3284.61640,0.28999
3282.68768,0.28952
3280.75895,0.28901
3278.83023,0.28860
3276.90151,0.28822
3274.97278,0.28769
3273.04406,0.28709
3271.11534,0.28665
3269.18661,0.28633
3267.25789,0.28595
3265.32917,0.28549
3263.40044,0.28506
3261.47172,0.28468
3259.54299,0.28415
3257.61427,0.28345
3255.68555,0.28283
3253.75682,0.28239
3251.82810,0.28195
3249.89938,0.28141
3247.97065,0.28088
3246.04193,0.28037
3244.11320,0.27992
3242.18448,0.27957
3240.25576,0.27921
3238.32703,0.27876
3236.39831,0.27824
3234.46959,0.27770
3232.54086,0.27710
3230.61214,0.27649
3228.68342,0.27596
3226.75469,0.27546
3224.82597,0.27488
3222.89724,0.27422
3220.96852,0.27354
3219.03980,0.27285
3217.11107,0.27214
3215.18235,0.27151
3213.25363,0.27101
3211.32490,0.27034
3209.39618,0.26942
3207.46746,0.26855
3205.53873,0.26775
3203.61001,0.26700
3201.68128,0.26637
3199.75256,0.26566
3197.82384,0.26484
3195.89511,0.26414
3193.96639,0.26352
3192.03767,0.26283
3190.10894,0.26203
3188.18022,0.26118
3186.25149,0.26032
3184.32277,0.25944
3182.39405,0.25858
3180.46532,0.25776
3178.53660,0.25690
3176.60788,0.25609
3174.67915,0.25530
3172.75043,0.25442
3170.82171,0.25340
3168.89298,0.25228
3166.96426,0.25120
3165.03553,0.25034
3163.10681,0.24964
3161.17809,0.24887
3159.24936,0.24792
3157.32064,0.24687
3155.39192,0.24588
3153.46319,0.24502
3151.53447,0.24428
3149.60575,0.24350
3147.67702,0.24261
3145.74830,0.24173
3143.81957,0.24091
3141.89085,0.24005
3139.96213,0.23918
3138.03340,0.23842
3136.10468,0.23764
3134.17596,0.23667
3132.24723,0.23568
3130.31851,0.23483
3128.38978,0.23399
3126.46106,0.23309
3124.53234,0.23211
3122.60361,0.23104
3120.67489,0.23004
3118.74617,0.22915
3116.81744,0.22832
3114.88872,0.22748
3112.96000,0.22653
3111.03127,0.22552
3109.10255,0.22465
3107.17382,0.22386
3105.24510,0.22295
3103.31638,0.22185
3101.38765,0.22070
3099.45893,0.21968
3097.53021,0.21871
3095.60148,0.21767
3093.67276,0.21664
3091.74404,0.21566
3089.81531,0.21475
3087.88659,0.21386
3085.95786,0.21287
3084.02914,0.21174
3082.10042,0.21065
3080.17169,0.20971
3078.24297,0.20875
3076.31425,0.20762
3074.38552,0.20639
3072.45680,0.20517
3070.52807,0.20407
3068.59935,0.20317
3066.67063,0.20233
3064.74190,0.20136
3062.81318,0.20023
3060.88446,0.19901
3058.95573,0.19779
3057.02701,0.19669
3055.09829,0.19578
3053.16956,0.19492
3051.24084,0.19393
3049.31211,0.19283
3047.38339,0.19171
3045.45467,0.19067
3043.52594,0.18969
3041.59722,0.18856
3039.66850,0.18727
3037.73977,0.18617
3035.81105,0.18536
3033.88233,0.18462
3031.95360,0.18378
3030.02488,0.18287
3028.09615,0.18191
3026.16743,0.18096
3024.23871,0.18009
3022.30998,0.17922
3020.38126,0.17825
3018.45254,0.17726
3016.52381,0.17641
3014.59509,0.17579
3012.66636,0.17524
3010.73764,0.17452
3008.80892,0.17369
3006.88019,0.17293
3004.95147,0.17226
3003.02275,0.17160
3001.09402,0.17092
2999.16530,0.17026
2997.23658,0.16962
2995.30785,0.16902
2993.37913,0.16855
2991.45040,0.16809
2989.52168,0.16756
2987.59296,0.16721
2985.66423,0.16710
2983.73551,0.16694
2981.80679,0.16657
2979.87806,0.16609
2977.94934,0.16563
2976.02062,0.16534
2974.09189,0.16536
2972.16317,0.16552
2970.23444,0.16568
2968.30572,0.16599
2966.37700,0.16635
2964.44827,0.16650
2962.51955,0.16643
2960.59083,0.16628
2958.66210,0.16608
2956.73338,0.16586
2954.80466,0.16554
2952.87593,0.16503
2950.94721,0.16447
2949.01848,0.16402
2947.08976,0.16385
2945.16104,0.16401
2943.23231,0.16446
2941.30359,0.16523
2939.37487,0.16616
2937.44614,0.16706
2935.51742,0.16802
2933.58869,0.16905
2931.65997,0.16988
2929.73125,0.17046
2927.80252,0.17081
2925.87380,0.17068
2923.94508,0.16974
2922.01635,0.16811
2920.08763,0.16603
2918.15891,0.16350
2916.23018,0.16062
2914.30146,0.15778
2912.37273,0.15525
2910.44401,0.15289
2908.51529,0.15062
2906.58656,0.14848
2904.65784,0.14657
2902.72912,0.14496
2900.80039,0.14353
2898.87167,0.14207
2896.94295,0.14055
2895.01422,0.13900
2893.08550,0.13745
2891.15677,0.13598
2889.22805,0.13459
2887.29933,0.13333
2885.37060,0.13225
2883.44188,0.13125
2881.51316,0.13029
2879.58443,0.12948
2877.65571,0.12880
2875.72698,0.12819
2873.79826,0.12756
2871.86954,0.12679
2869.94081,0.12598
2868.01209,0.12521
2866.08337,0.12460
2864.15464,0.12436
2862.22592,0.12460
2860.29720,0.12515
2858.36847,0.12584
2856.43975,0.12648
2854.51102,0.12671
2852.58230,0.12608
2850.65358,0.12428
2848.72485,0.12134
2846.79613,0.11786
2844.86741,0.11440
2842.93868,0.11124
2841.00996,0.10854
2839.08124,0.10624
2837.15251,0.10428
2835.22379,0.10266
2833.29506,0.10128
2831.36634,0.09998
2829.43762,0.09879
2827.50889,0.09769
2825.58017,0.09659
2823.65145,0.09553
2821.72272,0.09455
2819.79400,0.09360
2817.86527,0.09268
2815.93655,0.09178
2814.00783,0.09085
2812.07910,0.08993
2810.15038,0.08905
2808.22166,0.08813
2806.29293,0.08719
2804.36421,0.08630
2802.43549,0.08548
2800.50676,0.08475
2798.57804,0.08405
2796.64931,0.08329
2794.72059,0.08253
2792.79187,0.08185
2790.86314,0.08118
2788.93442,0.08044
2787.00570,0.07966
2785.07697,0.07889
2783.14825,0.07811
2781.21953,0.07731
2779.29080,0.07656
2777.36208,0.07592
2775.43335,0.07529
2773.50463,0.07460
2771.57591,0.07387
2769.64718,0.07315
2767.71846,0.07252
2765.78974,0.07192
2763.86101,0.07131
2761.93229,0.07064
2760.00356,0.06997
2758.07484,0.06930
2756.14612,0.06861
2754.21739,0.06794
2752.28867,0.06735
2750.35995,0.06680
2748.43122,0.06623
2746.50250,0.06566
2744.57378,0.06507
2742.64505,0.06441
2740.71633,0.06371
2738.78760,0.06314
2736.85888,0.06269
2734.93016,0.06213
2733.00143,0.06149
2731.07271,0.06090
2729.14399,0.06032
2727.21526,0.05964
2725.28654,0.05890
2723.35782,0.05818
2721.42909,0.05760
2719.50037,0.05711
2717.57164,0.05664
2715.64292,0.05611
2713.71420,0.05552
2711.78547,0.05495
2709.85675,0.05439
2707.92803,0.05380
2705.99930,0.05322
2704.07058,0.05267
2702.14185,0.05213
2700.21313,0.05156
2698.28441,0.05095
2696.35568,0.05037
2694.42696,0.04985
2692.49824,0.04936
2690.56951,0.04888
2688.64079,0.04842
2686.71207,0.04793
2684.78334,0.04745
2682.85462,0.04695
2680.92589,0.04641
2678.99717,0.04593
2677.06845,0.04546
2675.13972,0.04489
2673.21100,0.04430
2671.28228,0.04382
2669.35355,0.04343
2667.42483,0.04298
2665.49611,0.04247
2663.56738,0.04199
2661.63866,0.04151
2659.70993,0.04103
2657.78121,0.04060
2655.85249,0.04017
2653.92376,0.03965
2651.99504,0.03910
2650.06632,0.03863
2648.13759,0.03817
2646.20887,0.03771
2644.28014,0.03728
2642.35142,0.03686
2640.42270,0.03645
2638.49397,0.03610
2636.56525,0.03576
2634.63653,0.03538
2632.70780,0.03498
2630.77908,0.03456
2628.85036,0.03413
2626.92163,0.03368
2624.99291,0.03325
2623.06418,0.03287
2621.13546,0.03249
2619.20674,0.03202
2617.27801,0.03151
2615.34929,0.03114
2613.42057,0.03086
2611.49184,0.03056
2609.56312,0.03020
2607.63440,0.02984
2605.70567,0.02946
2603.77695,0.02905
2601.84822,0.02869
2599.91950,0.02833
2597.99078,0.02795
2596.06205,0.02764
2594.13333,0.02734
2592.20461,0.02699
2590.27588,0.02662
2588.34716,0.02632
2586.41843,0.02610
2584.48971,0.02583
2582.56099,0.02549
2580.63226,0.02517
2578.70354,0.02488
2576.77482,0.02458
2574.84609,0.02425
2572.91737,0.02394
2570.98865,0.02370
2569.05992,0.02353
2567.13120,0.02333
2565.20247,0.02306
2563.27375,0.02278
2561.34503,0.02248
2559.41630,0.02214
2557.48758,0.02182
2555.55886,0.02158
2553.63013,0.02136
2551.70141,0.02113
2549.77269,0.02091
2547.84396,0.02072
2545.91524,0.02055
2543.98651,0.02033
2542.05779,0.02007
2540.12907,0.01985
2538.20034,0.01971
2536.27162,0.01956
2534.34290,0.01938
2532.41417,0.01919
2530.48545,0.01894
2528.55673,0.01862
2526.62800,0.01833
2524.69928,0.01813
2522.77055,0.01796
2520.84183,0.01776
2518.91311,0.01756
2516.98438,0.01738
2515.05566,0.01716
2513.12694,0.01691
2511.19821,0.01672
2509.26949,0.01655
2507.34076,0.01633
2505.41204,0.01606
2503.48332,0.01582
2501.55459,0.01566
2499.62587,0.01557
2497.69715,0.01545
2495.76842,0.01526
2493.83970,0.01500
2491.91098,0.01471
2489.98225,0.01444
2488.05353,0.01426
2486.12480,0.01411
2484.19608,0.01393
2482.26736,0.01369
2480.33863,0.01345
2478.40991,0.01324
2476.48119,0.01305
2474.55246,0.01292
2472.62374,0.01277
2470.69502,0.01254
2468.76629,0.01233
2466.83757,0.01220
2464.90884,0.01202
2462.98012,0.01176
2461.05140,0.01155
2459.12267,0.01138
2457.19395,0.01122
2455.26523,0.01103
2453.33650,0.01083
2451.40778,0.01063
2449.47905,0.01038
2447.55033,0.01013
2445.62161,0.00997
2443.69288,0.00986
2441.76416,0.00974
2439.83544,0.00957
2437.90671,0.00934
2435.97799,0.00910
2434.04927,0.00891
2432.12054,0.00879
2430.19182,0.00871
2428.26309,0.00860
2426.33437,0.00842
2424.40565,0.00826
2422.47692,0.00816
2420.54820,0.00801
2418.61948,0.00773
2416.69075,0.00744
2414.76203,0.00723
2412.83331,0.00705
2410.90458,0.00691
2408.97586,0.00679
2407.04713,0.00664
2405.11841,0.00651
2403.18969,0.00645
2401.26096,0.00638
2399.33224,0.00623
2397.40352,0.00603
2395.47479,0.00582
2393.54607,0.00564
2391.61734,0.00552
2389.68862,0.00542
2387.75990,0.00535
2385.83117,0.00532
2383.90245,0.00530
2381.97373,0.00528
2380.04500,0.00529
2378.11628,0.00530
2376.18756,0.00532
2374.25883,0.00541
2372.33011,0.00551
2370.40138,0.00551
2368.47266,0.00542
2366.54394,0.00535
2364.61521,0.00530
2362.68649,0.00519
2360.75777,0.00502
2358.82904,0.00493
2356.90032,0.00493
2354.97160,0.00481
2353.04287,0.00447
2351.11415,0.00410
2349.18542,0.00392
2347.25670,0.00397
2345.32798,0.00414
2343.39925,0.00427
2341.47053,0.00433
2339.54181,0.00427
2337.61308,0.00406
2335.68436,0.00377
2333.75563,0.00357
2331.82691,0.00346
2329.89819,0.00331
2327.96946,0.00309
2326.04074,0.00294
2324.11202,0.00293
2322.18329,0.00296
2320.25457,0.00292
2318.32585,0.00278
2316.39712,0.00261
2314.46840,0.00247
2312.53967,0.00238
2310.61095,0.00231
2308.68223,0.00223
2306.75350,0.00210
2304.82478,0.00197
2302.89606,0.00187
2300.96733,0.00179
2299.03861,0.00168
2297.10989,0.00160
2295.18116,0.00158
2293.25244,0.00157
2291.32371,0.00150
2289.39499,0.00140
2287.46627,0.00133
2285.53754,0.00130
2283.60882,0.00131
2281.68010,0.00135
2279.75137,0.00138
2277.82265,0.00134
2275.89392,0.00124
2273.96520,0.00112
2272.03648,0.00106
2270.10775,0.00110
2268.17903,0.00116
2266.25031,0.00116
2264.32158,0.00113
2262.39286,0.00110
2260.46414,0.00105
2258.53541,0.00094
2256.60669,0.00081
2254.67796,0.00075
2252.74924,0.00077
2250.82052,0.00083
2248.89179,0.00083
2246.96307,0.00073
2245.03435,0.00058
2243.10562,0.00049
2241.17690,0.00045
2239.24818,0.00045
2237.31945,0.00046
2235.39073,0.00043
2233.46200,0.00040
2231.53328,0.00041
2229.60456,0.00042
2227.67583,0.00039
2225.74711,0.00034
2223.81839,0.00023
2221.88966,0.00012
2219.96094,0.00010
2218.03221,0.00012
2216.10349,0.00011
2214.17477,0.00014
2212.24604,0.00025
2210.31732,0.00030
2208.38860,0.00022
2206.45987,0.00007
2204.53115,0.00000
2202.60243,0.00001
2200.67370,-0.00001
2198.74498,-0.00002
2196.81625,0.00003
2194.88753,0.00004
2192.95881,0.00001
2191.03008,-0.00003
2189.10136,-0.00006
2187.17264,-0.00006
2185.24391,-0.00004
2183.31519,-0.00003
2181.38647,0.00001
2179.45774,0.00009
2177.52902,0.00015
2175.60029,0.00014
2173.67157,0.00010
2171.74285,0.00007
2169.81412,0.00009
2167.88540,0.00014
2165.95668,0.00018
2164.02795,0.00013
2162.09923,0.00004
2160.17050,0.00003
2158.24178,0.00010
2156.31306,0.00014
2154.38433,0.00016
2152.45561,0.00018
2150.52689,0.00021
2148.59816,0.00027
2146.66944,0.00033
2144.74072,0.00037
2142.81199,0.00036
2140.88327,0.00035
2138.95454,0.00036
2137.02582,0.00035
2135.09710,0.00027
2133.16837,0.00023
2131.23965,0.00026
2129.31093,0.00024
2127.38220,0.00020
2125.45348,0.00022
2123.52476,0.00024
2121.59603,0.00016
2119.66731,0.00009
2117.73858,0.00011
2115.80986,0.00017
2113.88114,0.00019
2111.95241,0.00017
2110.02369,0.00014
2108.09497,0.00011
2106.16624,0.00005
2104.23752,-0.00003
2102.30880,-0.00003
2100.38007,0.00004
2098.45135,0.00014
2096.52262,0.00021
2094.59390,0.00025
2092.66518,0.00026
2090.73645,0.00020
2088.80773,0.00008
2086.87901,0.00000
2084.95028,-0.00002
2083.02156,0.00001
2081.09283,-0.00002
2079.16411,-0.00007
2077.23539,-0.00008
2075.30666,-0.00006
2073.37794,-0.00004
2071.44922,-0.00001
2069.52049,0.00010
2067.59177,0.00019
2065.66305,0.00014
2063.73432,0.00012
2061.80560,0.00018
2059.87687,0.00023
2057.94815,0.00033
2056.01943,0.00045
2054.09070,0.00057
2052.16198,0.00071
2050.23326,0.00085
2048.30453,0.00096
2046.37581,0.00108
2044.44709,0.00123
2042.51836,0.00136
2040.58964,0.00157
2038.66091,0.00184
2036.73219,0.00198
2034.80347,0.00207
2032.87474,0.00219
2030.94602,0.00237
2029.01730,0.00258
2027.08857,0.00277
2025.15985,0.00291
2023.23112,0.00306
2021.30240,0.00325
2019.37368,0.00331
2017.44495,0.00328
2015.51623,0.00342
2013.58751,0.00362
2011.65878,0.00370
2009.73006,0.00376
2007.80134,0.00385
2005.87261,0.00398
2003.94389,0.00410
2002.01516,0.00409
2000.08644,0.00404
1998.15772,0.00408
1996.22899,0.00419
1994.30027,0.00407
1992.37155,0.00376
1990.44282,0.00378
1988.51410,0.00383
1986.58538,0.00378
1984.65665,0.00374
1982.72793,0.00363
1980.79920,0.00354
1978.87048,0.00347
1976.94176,0.00333
1975.01303,0.00312
1973.08431,0.00295
1971.15559,0.00288
1969.22686,0.00261
1967.29814,0.00222
1965.36941,0.00216
1963.44069,0.00216
1961.51197,0.00196
1959.58324,0.00178
1957.65452,0.00158
1955.72580,0.00130
1953.79707,0.00107
1951.86835,0.00097
1949.93963,0.00096
1948.01090,0.00096
1946.08218,0.00087
1944.15345,0.00048
1942.22473,0.00017
1940.29601,0.00036
1938.36728,0.00036
1936.43856,0.00008
1934.50984,-0.00012
1932.58111,-0.00019
1930.65239,-0.00019
1928.72367,-0.00013
1926.79494,0.00000
1924.86622,-0.00010
1922.93749,-0.00011
1921.00877,0.00026
1919.08005,0.00023
1917.15132,0.00031
1915.22260,0.00090
1913.29388,0.00125
1911.36515,0.00137
1909.43643,0.00163
1907.50770,0.00214
1905.57898,0.00262
1903.65026,0.00300
1901.72153,0.00346
1899.79281,0.00404
1897.86409,0.00456
1895.93536,0.00498
1894.00664,0.00558
1892.07792,0.00605
1890.14919,0.00616
1888.22047,0.00664
1886.29174,0.00727
1884.36302,0.00755
1882.43430,0.00773
1880.50557,0.00788
1878.57685,0.00801
1876.64813,0.00816
1874.71940,0.00838
1872.79068,0.00857
1870.86196,0.00816
1868.93323,0.00746
1867.00451,0.00744
1865.07578,0.00763
1863.14706,0.00733
1861.21834,0.00678
1859.28961,0.00628
1857.36089,0.00579
1855.43217,0.00526
1853.50344,0.00475
1851.57472,0.00433
1849.64599,0.00398
1847.71727,0.00361
1845.78855,0.00273
1843.85982,0.00191
1841.93110,0.00202
1840.00238,0.00196
1838.07365,0.00131
1836.14493,0.00096
1834.21621,0.00101
1832.28748,0.00066
1830.35876,0.00000
1828.43003,0.00007
1826.50131,0.00013
1824.57259,-0.00018
1822.64386,-0.00010
1820.71514,-0.00009
1818.78642,-0.00031
1816.85769,-0.00029
1814.92897,0.00000
1813.00025,-0.00020
1811.07152,-0.00057
1809.14280,-0.00053
1807.21407,-0.00024
1805.28535,-0.00005
1803.35663,-0.00015
1801.42790,-0.00029
1799.49918,0.00013
1797.57046,0.00094
1795.64173,0.00136
1793.71301,0.00103
1791.78428,0.00112
1789.85556,0.00235
1787.92684,0.00322
1785.99811,0.00336
1784.06939,0.00378
1782.14067,0.00440
1780.21194,0.00511
1778.28322,0.00631
1776.35450,0.00739
1774.42577,0.00767
1772.49705,0.00787
1770.56832,0.00911
1768.63960,0.01033
1766.71088,0.01124
1764.78215,0.01188
1762.85343,0.01196
1760.92471,0.01274
1758.99598,0.01398
1757.06726,0.01495
1755.13854,0.01640
1753.20981,0.01738
1751.28109,0.01767
1749.35236,0.01882
1747.42364,0.02076
1745.49492,0.02246
1743.56619,0.02375
1741.63747,0.02498
1739.70875,0.02684
1737.78002,0.02936
1735.85130,0.03040
1733.92257,0.03127
1731.99385,0.03419
1730.06513,0.03659
1728.13640,0.03814
1726.20768,0.03960
1724.27896,0.04119
1722.35023,0.04326
1720.42151,0.04464
1718.49279,0.04515
1716.56406,0.04726
1714.63534,0.05060
1712.70661,0.05331
1710.77789,0.05526
1708.84917,0.05688
1706.92044,0.05877
1704.99172,0.06183
1703.06300,0.06486
1701.13427,0.06673
1699.20555,0.07022
1697.27683,0.07433
1695.34810,0.07796
1693.41938,0.08213
1691.49065,0.08525
1689.56193,0.08818
1687.63321,0.09152
1685.70448,0.09395
1683.77576,0.09773
1681.84704,0.10361
1679.91831,0.10781
1677.98959,0.11024
1676.06087,0.11256
1674.13214,0.11623
1672.20342,0.11970
1670.27469,0.12194
1668.34597,0.12547
1666.41725,0.12935
1664.48852,0.13130
1662.55980,0.13292
1660.63108,0.13585
1658.70235,0.13870
1656.77363,0.13996
1654.84490,0.13926
1652.91618,0.14043
1650.98746,0.14508
1649.05873,0.14628
1647.13001,0.14489
1645.20129,0.14596
1643.27256,0.14800
1641.34384,0.14884
1639.41512,0.14877
1637.48639,0.14751
1635.55767,0.14663
1633.62894,0.14798
1631.70022,0.14872
1629.77150,0.14747
1627.84277,0.14593
1625.91405,0.14452
1623.98533,0.14242
1622.05660,0.14104
1620.12788,0.13991
1618.19916,0.13671
1616.27043,0.13333
1614.34171,0.13178
1612.41298,0.12996
1610.48426,0.12706
1608.55554,0.12414
1606.62681,0.12154
1604.69809,0.11888
1602.76937,0.11609
1600.84064,0.11360
1598.91192,0.11140
1596.98319,0.10910
1595.05447,0.10669
1593.12575,0.10442
1591.19702,0.10225
1589.26830,0.10012
1587.33958,0.09807
1585.41085,0.09606
1583.48213,0.09421
1581.55341,0.09276
1579.62468,0.09118
1577.69596,0.08847
1575.76723,0.08644
1573.83851,0.08655
1571.90979,0.08560
1569.98106,0.08314
1568.05234,0.08213
1566.12362,0.08198
1564.19489,0.08190
1562.26617,0.08101
1560.33745,0.07741
1558.40872,0.07480
1556.48000,0.07606
1554.55127,0.07620
1552.62255,0.07490
1550.69383,0.07337
1548.76510,0.07244
1546.83638,0.07171
1544.90766,0.07020
1542.97893,0.06785
1541.05021,0.06444
1539.12148,0.06286
1537.19276,0.06364
1535.26404,0.06204
1533.33531,0.05894
1531.40659,0.05766
1529.47787,0.05646
1527.54914,0.05416
1525.62042,0.05205
1523.69170,0.04962
1521.76297,0.04662
1519.83425,0.04491
1517.90552,0.04300
1515.97680,0.04054
1514.04808,0.03888
1512.11935,0.03738
1510.19063,0.03485
1508.26191,0.02992
1506.33318,0.02542
1504.40446,0.02477
1502.47574,0.02410
1500.54701,0.02152
1498.61829,0.01832
1496.68956,0.01608
1494.76084,0.01553
1492.83212,0.01469
1490.90339,0.01246
1488.97467,0.01089
1487.04595,0.01102
1485.11722,0.01158
1483.18850,0.01175
1481.25977,0.01212
1479.33105,0.01322
1477.40233,0.01437
1475.47360,0.01541
1473.54488,0.01702
1471.61616,0.02047
1469.68743,0.02452
1467.75871,0.02648
1465.82999,0.02705
1463.90126,0.02863
1461.97254,0.03059
1460.04381,0.03042
1458.11509,0.02895
1456.18637,0.02979
1454.25764,0.03208
1452.32892,0.03283
1450.40020,0.03233
1448.47147,0.03180
1446.54275,0.03203
1444.61403,0.03269
1442.68530,0.03329
1440.75658,0.03393
1438.82785,0.03385
1436.89913,0.03358
1434.97041,0.03483
1433.04168,0.03603
1431.11296,0.03621
1429.18424,0.03677
1427.25551,0.03769
1425.32679,0.03810
1423.39806,0.03866
1421.46934,0.03907
1419.54062,0.03886
1417.61189,0.03974
1415.68317,0.04120
1413.75445,0.04177
1411.82572,0.04207
1409.89700,0.04284
1407.96828,0.04369
1406.03955,0.04413
1404.11083,0.04477
1402.18210,0.04537
1400.25338,0.04481
1398.32466,0.04352
1396.39593,0.04173
1394.46721,0.03964
1392.53849,0.03821
1390.60976,0.03668
1388.68104,0.03431
1386.75232,0.03226
1384.82359,0.03126
1382.89487,0.03050
1380.96614,0.02967
1379.03742,0.02887
1377.10870,0.02779
1375.17997,0.02618
1373.25125,0.02489
1371.32253,0.02405
1369.39380,0.02284
1367.46508,0.02163
1365.53635,0.02037
1363.60763,0.01863
1361.67891,0.01724
1359.75018,0.01643
1357.82146,0.01546
1355.89274,0.01434
1353.96401,0.01349
1352.03529,0.01286
1350.10657,0.01220
1348.17784,0.01156
1346.24912,0.01109
1344.32039,0.01071
1342.39167,0.01009
1340.46295,0.00920
1338.53422,0.00874
1336.60550,0.00882
1334.67678,0.00875
1332.74805,0.00841
1330.81933,0.00812
1328.89061,0.00802
1326.96188,0.00798
1325.03316,0.00803
1323.10443,0.00828
1321.17571,0.00869
1319.24699,0.00937
1317.31826,0.01050
1315.38954,0.01188
1313.46082,0.01331
1311.53209,0.01493
1309.60337,0.01670
1307.67464,0.01890
1305.74592,0.02227
1303.81720,0.02683
1301.88847,0.03100
1299.95975,0.03312
1298.03103,0.03382
1296.10230,0.03477
1294.17358,0.03604
1292.24486,0.03683
1290.31613,0.03699
1288.38741,0.03683
1286.45868,0.03659
1284.52996,0.03644
1282.60124,0.03657
1280.67251,0.03721
1278.74379,0.03856
1276.81507,0.04075
1274.88634,0.04368
1272.95762,0.04726
1271.02890,0.05163
1269.10017,0.05681
1267.17145,0.06269
1265.24272,0.06931
1263.31400,0.07673
1261.38528,0.08499
1259.45655,0.09428
1257.52783,0.10447
1255.59911,0.11521
1253.67038,0.12641
1251.74166,0.13782
1249.81294,0.14895
1247.88421,0.15935
1245.95549,0.16901
1244.02676,0.17808
1242.09804,0.18642
1240.16932,0.19391
1238.24059,0.20063
1236.31187,0.20662
1234.38315,0.21202
1232.45442,0.21708
1230.52570,0.22186
1228.59697,0.22615
1226.66825,0.22996
1224.73953,0.23362
1222.81080,0.23729
1220.88208,0.24081
1218.95336,0.24400
1217.02463,0.24700
1215.09591,0.24996
1213.16719,0.25278
1211.23846,0.25547
1209.30974,0.25821
1207.38101,0.26111
1205.45229,0.26424
1203.52357,0.26743
1201.59484,0.27075
1199.66612,0.27489
1197.73740,0.28038
1195.80867,0.28700
1193.87995,0.29362
1191.95123,0.29834
1190.02250,0.30049
1188.09378,0.30187
1186.16505,0.30399
1184.23633,0.30588
1182.30761,0.30628
1180.37888,0.30567
1178.45016,0.30505
1176.52144,0.30450
1174.59271,0.30381
1172.66399,0.30322
1170.73526,0.30285
1168.80654,0.30250
1166.87782,0.30259
1164.94909,0.30358
1163.02037,0.30490
1161.09165,0.30588
1159.16292,0.30672
1157.23420,0.30779
1155.30548,0.30902
1153.37675,0.31014
1151.44803,0.31131
1149.51930,0.31281
1147.59058,0.31438
1145.66186,0.31570
1143.73313,0.31672
1141.80441,0.31743
1139.87569,0.31852
1137.94696,0.32083
1136.01824,0.32381
1134.08952,0.32671
1132.16079,0.32957
1130.23207,0.33254
1128.30334,0.33585
1126.37462,0.34002
1124.44590,0.34492
1122.51717,0.35002
1120.58845,0.35547
1118.65973,0.36159
1116.73100,0.36819
1114.80228,0.37482
1112.87355,0.38159
1110.94483,0.38881
1109.01611,0.39648
1107.08738,0.40426
1105.15866,0.41116
1103.22994,0.41629
1101.30121,0.42019
1099.37249,0.42375
1097.44377,0.42678
1095.51504,0.42848
1093.58632,0.42886
1091.65759,0.42848
1089.72887,0.42754
1087.80015,0.42637
1085.87142,0.42517
1083.94270,0.42347
1082.01398,0.42097
1080.08525,0.41790
1078.15653,0.41442
1076.22781,0.41094
1074.29908,0.40756
1072.37036,0.40387
1070.44163,0.39968
1068.51291,0.39483
1066.58419,0.38933
1064.65546,0.38364
1062.72674,0.37791
1060.79802,0.37190
1058.86929,0.36573
1056.94057,0.35961
1055.01184,0.35358
1053.08312,0.34731
1051.15440,0.34044
1049.22567,0.33324
1047.29695,0.32588
1045.36823,0.31840
1043.43950,0.31107
1041.51078,0.30399
1039.58206,0.29704
1037.65333,0.28994
1035.72461,0.28264
1033.79588,0.27535
1031.86716,0.26808
1029.93844,0.26074
1028.00971,0.25367
1026.08099,0.24733
1024.15227,0.24165
1022.22354,0.23627
1020.29482,0.23087
1018.36610,0.22546
1016.43737,0.22036
1014.50865,0.21577
1012.57992,0.21171
1010.65120,0.20797
1008.72248,0.20431
1006.79375,0.20080
1004.86503,0.19756
1002.93631,0.19439
1001.00758,0.19122
999.07886,0.18827
997.15013,0.18569
995.22141,0.18355
993.29269,0.18159
991.36396,0.17964
989.43524,0.17783
987.50652,0.17602
985.57779,0.17434
983.64907,0.17321
981.72035,0.17250
979.79162,0.17199
977.86290,0.17175
975.93417,0.17162
974.00545,0.17115
972.07673,0.17010
970.14800,0.16879
968.21928,0.16784
966.29056,0.16737
964.36183,0.16691
962.43311,0.16630
960.50439,0.16562
958.57566,0.16465
956.64694,0.16337
954.71821,0.16200
952.78949,0.16054
950.86077,0.15892
948.93204,0.15741
947.00332,0.15580
945.07460,0.15358
943.14587,0.15105
941.21715,0.14872
939.28842,0.14636
937.35970,0.14357
935.43098,0.14044
933.50225,0.13727
931.57353,0.13428
929.64481,0.13128
927.71608,0.12786
925.78736,0.12416
923.85864,0.12075
921.92991,0.11764
920.00119,0.11432
918.07246,0.11035
916.14374,0.10599
914.21502,0.10191
912.28629,0.09800
910.35757,0.09397
908.42885,0.08993
906.50012,0.08589
904.57140,0.08188
902.64268,0.07809
900.71395,0.07454
898.78523,0.07101
896.85650,0.06725
894.92778,0.06356
892.99906,0.06031
891.07033,0.05732
889.14161,0.05428
887.21289,0.05126
885.28416,0.04863
883.35544,0.04641
881.42671,0.04417
879.49799,0.04162
877.56927,0.03876
875.64054,0.03597
873.71182,0.03368
871.78310,0.03169
869.85437,0.02973
867.92565,0.02794
865.99693,0.02638
864.06820,0.02486
862.13948,0.02340
860.21075,0.02227
858.28203,0.02142
856.35331,0.02059
854.42458,0.01985
852.49586,0.01924
850.56714,0.01878
848.63841,0.01864
846.70969,0.01901
844.78097,0.02008
842.85224,0.02179
840.92352,0.02389
838.99479,0.02633
837.06607,0.02909
835.13735,0.03177
833.20862,0.03421
831.27990,0.03680
829.35118,0.03982
827.42245,0.04317
825.49373,0.04644
823.56501,0.04941
821.63628,0.05231
819.70756,0.05521
817.77883,0.05805
815.85011,0.06106
813.92139,0.06415
811.99266,0.06687
810.06394,0.06923
808.13522,0.07164
806.20649,0.07398
804.27777,0.07583
802.34904,0.07715
800.42032,0.07809
798.49160,0.07862
796.56287,0.07867
794.63415,0.07815
792.70543,0.07704
790.77670,0.07537
788.84798,0.07325
786.91926,0.07102
784.99053,0.06871
783.06181,0.06577
781.13308,0.06196
779.20436,0.05762
777.27564,0.05334
775.34691,0.04947
773.41819,0.04605
771.48947,0.04286
769.56074,0.04002
767.63202,0.03799
765.70330,0.03667
763.77457,0.03560
761.84585,0.03486
759.91712,0.03469
757.98840,0.03454
756.05968,0.03400
754.13095,0.03359
752.20223,0.03346
750.27351,0.03322
748.34478,0.03301
746.41606,0.03318
744.48733,0.03344
742.55861,0.03333
740.62989,0.03306
738.70116,0.03298
736.77244,0.03309
734.84372,0.03334
732.91499,0.03369
730.98627,0.03392
729.05755,0.03388
727.12882,0.03383
725.20010,0.03414
723.27137,0.03476
721.34265,0.03571
719.41393,0.03660
717.48520,0.03705
715.55648,0.03719
713.62776,0.03745
711.69903,0.03802
709.77031,0.03889
707.84159,0.03995
705.91286,0.04109
703.98414,0.04231
702.05541,0.04367
700.12669,0.04505
698.19797,0.04623
696.26924,0.04712
694.34052,0.04789
692.41180,0.04847
690.48307,0.04866
688.55435,0.04865
686.62562,0.04875
684.69690,0.04909
682.76818,0.04982
680.83945,0.05096
678.91073,0.05221
676.98201,0.05309
675.05328,0.05324
673.12456,0.05289
671.19584,0.05294
669.26711,0.05431
667.33839,0.05651
665.40966,0.05763
663.48094,0.05745
661.55222,0.05726
659.62349,0.05770
657.69477,0.05852
655.76605,0.05933
653.83732,0.05992
651.90860,0.06049
649.97988,0.06139
648.05115,0.06266
646.12243,0.06421
644.19370,0.06594
642.26498,0.06775
640.33626,0.06953
638.40753,0.07089
636.47881,0.07157
634.55009,0.07197
632.62136,0.07259
630.69264,0.07343
628.76391,0.07420
626.83519,0.07477
624.90647,0.07565
622.97774,0.07712
621.04902,0.07878
619.12030,0.08009
617.19157,0.08077
615.26285,0.08160
613.33413,0.08316
611.40540,0.08457
609.47668,0.08550
607.54795,0.08647
605.61923,0.08770
603.69051,0.08936
601.76178,0.09136
599.83306,0.09352
597.90434,0.09579
595.97561,0.09744
594.04689,0.09815
592.11817,0.09920
590.18944,0.10134
588.26072,0.10365
586.33199,0.10535
584.40327,0.10594
582.47455,0.10544
580.54582,0.10525
578.61710,0.10615
576.68838,0.10725
574.75965,0.10791
572.83093,0.10823
570.90220,0.10838
568.97348,0.10884
567.04476,0.10991
565.11603,0.11104
563.18731,0.11196
561.25859,0.11287
559.32986,0.11321
557.40114,0.11294
555.47242,0.11282
553.54369,0.11298
551.61497,0.11315
549.68624,0.11295
547.75752,0.11210
545.82880,0.11120
543.90007,0.11084
541.97135,0.11113
540.04263,0.11197
538.11390,0.11256
536.18518,0.11265
534.25646,0.11273
532.32773,0.11241
530.39901,0.11172
528.47028,0.11136
526.54156,0.11110
524.61284,0.11072
522.68411,0.11036
520.75539,0.11049
518.82667,0.11114
516.89794,0.11192
514.96922,0.11361
513.04049,0.11662
511.11177,0.11974
509.18305,0.12253
507.25432,0.12568
505.32560,0.12878
503.39688,0.13189
501.46815,0.13825
499.53943,0.14844
497.61071,0.15773
495.68198,0.16350
493.75326,0.16854
491.82453,0.17616
489.89581,0.18540
487.96709,0.19400
486.03836,0.20200
484.10964,0.20925
482.18092,0.21494
480.25219,0.22024
478.32347,0.22641
476.39475,0.23251
474.46602,0.23788
472.53730,0.24327
470.60857,0.24785
468.67985,0.24976
466.75113,0.25091
464.82240,0.25442
462.89368,0.25886
460.96496,0.25908
459.03623,0.25196
457.10751,0.24084
455.17878,0.23174
453.25006,0.22618
451.32134,0.22234
449.39261,0.21718
447.46389,0.20936
445.53517,0.20151
443.60644,0.19612
441.67772,0.19199
439.74900,0.18652
437.82027,0.17843
435.89155,0.16913
433.96282,0.16143
432.03410,0.15568
430.10538,0.15102
428.17665,0.14759
426.24793,0.14349
424.31921,0.13636
422.39048,0.12941
420.46176,0.12794
418.53304,0.13064
416.60431,0.12967
414.67559,0.12138
412.74686,0.10992
410.81814,0.10137
408.88942,0.09685
406.96069,0.09331
405.03197,0.09041
403.10325,0.08855
401.17452,0.08442
399.24580,0.07656
397.31708,0.06651
395.38835,0.05170
393.45963,0.03184
391.53090,0.01264
389.60218,0.00000
387.67346,-0.00918
385.74473,-0.00233
383.81601,0.00564
381.88729,-0.00746
379.95856,-0.03611
378.02984,-0.06034
376.10111,-0.06143
374.17239,-0.02013
372.24367,0.03954
370.31494,0.05337
368.38622,0.00000
