3996.31543,0.00000
3994.38671,0.00002
3992.45799,0.00013
3990.52926,0.00030
3988.60054,0.00047
3986.67182,0.00052
3984.74309,0.00034
3982.81437,0.00008
3980.88564,0.00003
3978.95692,0.00017
3977.02820,0.00033
3975.09947,0.00048
3973.17075,0.00059
3971.24203,0.00060
3969.31330,0.00053
3967.38458,0.00048
3965.45586,0.00046
3963.52713,0.00042
3961.59841,0.00043
3959.66968,0.00041
3957.74096,0.00029
3955.81224,0.00017
3953.88351,0.00025
3951.95479,0.00049
3950.02607,0.00070
3948.09734,0.00074
3946.16862,0.00067
3944.23990,0.00066
3942.31117,0.00077
3940.38245,0.00086
3938.45372,0.00085
3936.52500,0.00079
3934.59628,0.00079
3932.66755,0.00091
3930.73883,0.00101
3928.81011,0.00097
3926.88138,0.00080
3924.95266,0.00063
3923.02393,0.00058
3921.09521,0.00055
3919.16649,0.00040
3917.23776,0.00026
3915.30904,0.00025
3913.38032,0.00035
3911.45159,0.00052
3909.52287,0.00065
3907.59415,0.00060
3905.66542,0.00048
3903.73670,0.00047
3901.80797,0.00061
3899.87925,0.00079
3897.95053,0.00078
3896.02180,0.00053
3894.09308,0.00034
3892.16436,0.00045
3890.23563,0.00064
3888.30691,0.00057
3886.37819,0.00043
3884.44946,0.00048
3882.52074,0.00068
3880.59201,0.00084
3878.66329,0.00082
3876.73457,0.00058
3874.80584,0.00031
3872.87712,0.00026
3870.94840,0.00047
3869.01967,0.00069
3867.09095,0.00072
3865.16222,0.00067
3863.23350,0.00073
3861.30478,0.00078
3859.37605,0.00068
3857.44733,0.00049
3855.51861,0.00046
3853.58988,0.00081
3851.66116,0.00116
3849.73244,0.00112
3847.80371,0.00087
3845.87499,0.00077
3843.94626,0.00100
3842.01754,0.00143
3840.08882,0.00172
3838.16009,0.00179
3836.23137,0.00172
3834.30265,0.00156
3832.37392,0.00140
3830.44520,0.00130
3828.51648,0.00128
3826.58775,0.00133
3824.65903,0.00134
3822.73030,0.00132
3820.80158,0.00138
3818.87286,0.00142
3816.94413,0.00140
3815.01541,0.00147
3813.08669,0.00157
3811.15796,0.00162
3809.22924,0.00169
3807.30052,0.00185
3805.37179,0.00195
3803.44307,0.00203
3801.51434,0.00231
3799.58562,0.00265
3797.65690,0.00273
3795.72817,0.00261
3793.79945,0.00248
3791.87073,0.00247
3789.94200,0.00263
3788.01328,0.00293
3786.08455,0.00323
3784.15583,0.00331
3782.22711,0.00328
3780.29838,0.00341
3778.36966,0.00370
3776.44094,0.00390
3774.51221,0.00406
3772.58349,0.00443
3770.65477,0.00503
3768.72604,0.00549
3766.79732,0.00564
3764.86859,0.00565
3762.93987,0.00578
3761.01115,0.00614
3759.08242,0.00673
3757.15370,0.00727
3755.22498,0.00768
3753.29625,0.00820
3751.36753,0.00908
3749.43881,0.01009
3747.51008,0.01083
3745.58136,0.01144
3743.65263,0.01199
3741.72391,0.01234
3739.79519,0.01268
3737.86646,0.01339
3735.93774,0.01462
3734.00902,0.01591
3732.08029,0.01672
3730.15157,0.01723
3728.22284,0.01796
3726.29412,0.01922
3724.36540,0.02080
3722.43667,0.02243
3720.50795,0.02413
3718.57923,0.02592
3716.65050,0.02763
3714.72178,0.02932
3712.79306,0.03163
3710.86433,0.03491
3708.93561,0.03827
3707.00688,0.04101
3705.07816,0.04357
3703.14944,0.04661
3701.22071,0.05023
3699.29199,0.05376
3697.36327,0.05681
3695.43454,0.05959
3693.50582,0.06231
3691.57710,0.06526
3689.64837,0.06877
3687.71965,0.07249
3685.79092,0.07578
3683.86220,0.07879
3681.93348,0.08201
3680.00475,0.08564
3678.07603,0.08984
3676.14731,0.09500
3674.21858,0.10033
3672.28986,0.10459
3670.36113,0.10880
3668.43241,0.11345
3666.50369,0.11738
3664.57496,0.12067
3662.64624,0.12403
3660.71752,0.12758
3658.78879,0.13125
3656.86007,0.13520
3654.93135,0.13899
3653.00262,0.14205
3651.07390,0.14531
3649.14517,0.14995
3647.21645,0.15490
3645.28773,0.15868
3643.35900,0.16160
3641.43028,0.16449
3639.50156,0.16754
3637.57283,0.17063
3635.64411,0.17372
3633.71539,0.17664
3631.78666,0.17941
3629.85794,0.18284
3627.92921,0.18713
3626.00049,0.19058
3624.07177,0.19276
3622.14304,0.19470
3620.21432,0.19704
3618.28560,0.19942
3616.35687,0.20121
3614.42815,0.20272
3612.49942,0.20447
3610.57070,0.20644
3608.64198,0.20852
3606.71325,0.21052
3604.78453,0.21220
3602.85581,0.21372
3600.92708,0.21542
3598.99836,0.21730
3597.06964,0.21919
3595.14091,0.22097
3593.21219,0.22256
3591.28346,0.22389
3589.35474,0.22527
3587.42602,0.22705
3585.49729,0.22896
3583.56857,0.23065
3581.63985,0.23218
3579.71112,0.23369
3577.78240,0.23518
3575.85368,0.23660
3573.92495,0.23790
3571.99623,0.23900
3570.06750,0.24004
3568.13878,0.24156
3566.21006,0.24370
3564.28133,0.24555
3562.35261,0.24657
3560.42389,0.24715
3558.49516,0.24787
3556.56644,0.24890
3554.63771,0.25007
3552.70899,0.25123
3550.78027,0.25210
3548.85154,0.25261
3546.92282,0.25309
3544.99410,0.25384
3543.06537,0.25477
3541.13665,0.25563
3539.20793,0.25626
3537.27920,0.25674
3535.35048,0.25725
3533.42175,0.25777
3531.49303,0.25822
3529.56431,0.25863
3527.63558,0.25912
3525.70686,0.25970
3523.77814,0.26038
3521.84941,0.26116
3519.92069,0.26206
3517.99197,0.26300
3516.06324,0.26385
3514.13452,0.26452
3512.20579,0.26510
3510.27707,0.26567
3508.34835,0.26616
3506.41962,0.26657
3504.49090,0.26710
3502.56218,0.26786
3500.63345,0.26867
3498.70473,0.26941
3496.77600,0.27005
3494.84728,0.27061
3492.91856,0.27125
3490.98983,0.27211
3489.06111,0.27303
3487.13239,0.27376
3485.20366,0.27432
3483.27494,0.27498
3481.34622,0.27580
3479.41749,0.27649
3477.48877,0.27703
3475.56004,0.27768
3473.63132,0.27843
3471.70260,0.27904
3469.77387,0.27943
3467.84515,0.27975
3465.91643,0.28016
3463.98770,0.28069
3462.05898,0.28123
3460.13026,0.28179
3458.20153,0.28231
3456.27281,0.28263
3454.34408,0.28294
3452.41536,0.28339
3450.48664,0.28388
3448.55791,0.28433
3446.62919,0.28485
3444.70047,0.28531
3442.77174,0.28561
3440.84302,0.28599
3438.91429,0.28646
3436.98557,0.28688
3435.05685,0.28714
3433.12812,0.28721
3431.19940,0.28726
3429.27068,0.28749
3427.34195,0.28773
3425.41323,0.28780
3423.48451,0.28786
3421.55578,0.28815
3419.62706,0.28854
3417.69833,0.28867
3415.76961,0.28852
3413.84089,0.28841
3411.91216,0.28845
3409.98344,0.28848
3408.05472,0.28854
3406.12599,0.28872
3404.19727,0.28879
3402.26855,0.28861
3400.33982,0.28841
3398.41110,0.28827
3396.48237,0.28803
3394.55365,0.28782
3392.62493,0.28767
3390.69620,0.28728
3388.76748,0.28684
3386.83876,0.28671
3384.91003,0.28655
3382.98131,0.28602
3381.05259,0.28551
3379.12386,0.28524
3377.19514,0.28486
3375.26641,0.28439
3373.33769,0.28405
3371.40897,0.28364
3369.48024,0.28309
3367.55152,0.28259
3365.62280,0.28220
3363.69407,0.28178
3361.76535,0.28123
3359.83662,0.28064
3357.90790,0.28008
3355.97918,0.27949
3354.05045,0.27892
3352.12173,0.27840
3350.19301,0.27776
3348.26428,0.27699
3346.33556,0.27621
3344.40684,0.27553
3342.47811,0.27491
3340.54939,0.27428
3338.62066,0.27367
3336.69194,0.27305
3334.76322,0.27247
3332.83449,0.27204
3330.90577,0.27154
3328.97705,0.27081
3327.04832,0.27005
3325.11960,0.26930
3323.19088,0.26858
3321.26215,0.26798
3319.33343,0.26739
3317.40470,0.26663
3315.47598,0.26579
3313.54726,0.26506
3311.61853,0.26445
3309.68981,0.26389
3307.76109,0.26334
3305.83236,0.26272
3303.90364,0.26202
3301.97491,0.26136
3300.04619,0.26074
3298.11747,0.26010
3296.18874,0.25946
3294.26002,0.25881
3292.33130,0.25813
3290.40257,0.25751
3288.47385,0.25707
3286.54513,0.25678
3284.61640,0.25646
3282.68768,0.25600
3280.75895,0.25536
3278.83023,0.25457
3276.90151,0.25389
3274.97278,0.25347
3273.04406,0.25306
3271.11534,0.25244
3269.18661,0.25178
3267.25789,0.25132
3265.32917,0.25093
3263.40044,0.25038
3261.47172,0.24975
3259.54299,0.24918
3257.61427,0.24873
3255.68555,0.24827
3253.75682,0.24758
3251.82810,0.24688
3249.89938,0.24648
3247.97065,0.24624
3246.04193,0.24579
3244.11320,0.24506
3242.18448,0.24429
3240.25576,0.24361
3238.32703,0.24292
3236.39831,0.24212
3234.46959,0.24134
3232.54086,0.24076
3230.61214,0.24021
3228.68342,0.23954
3226.75469,0.23875
3224.82597,0.23790
3222.89724,0.23707
3220.96852,0.23632
3219.03980,0.23563
3217.11107,0.23498
3215.18235,0.23427
3213.25363,0.23341
3211.32490,0.23253
3209.39618,0.23179
3207.46746,0.23117
3205.53873,0.23048
3203.61001,0.22952
3201.68128,0.22837
3199.75256,0.22739
3197.82384,0.22674
3195.89511,0.22603
3193.96639,0.22497
3192.03767,0.22378
3190.10894,0.22275
3188.18022,0.22181
3186.25149,0.22079
3184.32277,0.21983
3182.39405,0.21902
3180.46532,0.21818
3178.53660,0.21721
3176.60788,0.21615
3174.67915,0.21501
3172.75043,0.21384
3170.82171,0.21278
3168.89298,0.21184
3166.96426,0.21095
3165.03553,0.21016
3163.10681,0.20941
3161.17809,0.20854
3159.24936,0.20757
3157.32064,0.20653
3155.39192,0.20540
3153.46319,0.20426
3151.53447,0.20321
3149.60575,0.20220
3147.67702,0.20112
3145.74830,0.19997
3143.81957,0.19881
3141.89085,0.19777
3139.96213,0.19689
3138.03340,0.19606
3136.10468,0.19507
3134.17596,0.19396
3132.24723,0.19290
3130.31851,0.19203
3128.38978,0.19130
3126.46106,0.19049
3124.53234,0.18947
3122.60361,0.18828
3120.67489,0.18717
3118.74617,0.18622
3116.81744,0.18521
3114.88872,0.18414
3112.96000,0.18320
3111.03127,0.18226
3109.10255,0.18117
3107.17382,0.17999
3105.24510,0.17888
3103.31638,0.17788
3101.38765,0.17689
3099.45893,0.17586
3097.53021,0.17479
3095.60148,0.17366
3093.67276,0.17251
3091.74404,0.17147
3089.81531,0.17051
3087.88659,0.16954
3085.95786,0.16857
3084.02914,0.16753
3082.10042,0.16647
3080.17169,0.16543
3078.24297,0.16432
3076.31425,0.16305
3074.38552,0.16183
3072.45680,0.16078
3070.52807,0.15977
3068.59935,0.15875
3066.67063,0.15781
3064.74190,0.15693
3062.81318,0.15599
3060.88446,0.15495
3058.95573,0.15389
3057.02701,0.15290
3055.09829,0.15201
3053.16956,0.15115
3051.24084,0.15027
3049.31211,0.14933
3047.38339,0.14831
3045.45467,0.14720
3043.52594,0.14611
3041.59722,0.14513
3039.66850,0.14421
3037.73977,0.14332
3035.81105,0.14244
3033.88233,0.14157
3031.95360,0.14074
3030.02488,0.13994
3028.09615,0.13904
3026.16743,0.13808
3024.23871,0.13712
3022.30998,0.13619
3020.38126,0.13535
3018.45254,0.13462
3016.52381,0.13389
3014.59509,0.13309
3012.66636,0.13222
3010.73764,0.13125
3008.80892,0.13031
3006.88019,0.12959
3004.95147,0.12895
3003.02275,0.12818
3001.09402,0.12739
2999.16530,0.12671
2997.23658,0.12606
2995.30785,0.12529
2993.37913,0.12459
2991.45040,0.12405
2989.52168,0.12352
2987.59296,0.12298
2985.66423,0.12258
2983.73551,0.12226
2981.80679,0.12195
2979.87806,0.12179
2977.94934,0.12176
2976.02062,0.12176
2974.09189,0.12179
2972.16317,0.12197
2970.23444,0.12222
2968.30572,0.12239
2966.37700,0.12252
2964.44827,0.12262
2962.51955,0.12244
2960.59083,0.12192
2958.66210,0.12112
2956.73338,0.12010
2954.80466,0.11888
2952.87593,0.11763
2950.94721,0.11654
2949.01848,0.11569
2947.08976,0.11513
2945.16104,0.11487
2943.23231,0.11486
2941.30359,0.11509
2939.37487,0.11556
2937.44614,0.11613
2935.51742,0.11658
2933.58869,0.11698
2931.65997,0.11737
2929.73125,0.11753
2927.80252,0.11719
2925.87380,0.11625
2923.94508,0.11467
2922.01635,0.11250
2920.08763,0.11001
2918.15891,0.10771
2916.23018,0.10588
2914.30146,0.10435
2912.37273,0.10288
2910.44401,0.10144
2908.51529,0.10001
2906.58656,0.09860
2904.65784,0.09732
2902.72912,0.09611
2900.80039,0.09484
2898.87167,0.09358
2896.94295,0.09241
2895.01422,0.09128
2893.08550,0.09017
2891.15677,0.08914
2889.22805,0.08817
2887.29933,0.08726
2885.37060,0.08649
2883.44188,0.08586
2881.51316,0.08536
2879.58443,0.08493
2877.65571,0.08449
2875.72698,0.08402
2873.79826,0.08361
2871.86954,0.08323
2869.94081,0.08273
2868.01209,0.08206
2866.08337,0.08149
2864.15464,0.08118
2862.22592,0.08102
2860.29720,0.08104
2858.36847,0.08121
2856.43975,0.08114
2854.51102,0.08044
2852.58230,0.07905
2850.65358,0.07717
2848.72485,0.07503
2846.79613,0.07289
2844.86741,0.07087
2842.93868,0.06902
2841.00996,0.06738
2839.08124,0.06593
2837.15251,0.06464
2835.22379,0.06347
2833.29506,0.06243
2831.36634,0.06151
2829.43762,0.06074
2827.50889,0.06000
2825.58017,0.05920
2823.65145,0.05833
2821.72272,0.05750
2819.79400,0.05677
2817.86527,0.05612
2815.93655,0.05554
2814.00783,0.05499
2812.07910,0.05439
2810.15038,0.05376
2808.22166,0.05315
2806.29293,0.05255
2804.36421,0.05190
2802.43549,0.05115
2800.50676,0.05040
2798.57804,0.04978
2796.64931,0.04929
2794.72059,0.04879
2792.79187,0.04825
2790.86314,0.04771
2788.93442,0.04714
2787.00570,0.04650
2785.07697,0.04581
2783.14825,0.04525
2781.21953,0.04484
2779.29080,0.04439
2777.36208,0.04388
2775.43335,0.04339
2773.50463,0.04289
2771.57591,0.04235
2769.64718,0.04174
2767.71846,0.04106
2765.78974,0.04039
2763.86101,0.03983
2761.93229,0.03934
2760.00356,0.03892
2758.07484,0.03852
2756.14612,0.03806
2754.21739,0.03760
2752.28867,0.03718
2750.35995,0.03671
2748.43122,0.03618
2746.50250,0.03572
2744.57378,0.03529
2742.64505,0.03472
2740.71633,0.03406
2738.78760,0.03355
2736.85888,0.03322
2734.93016,0.03284
2733.00143,0.03238
2731.07271,0.03194
2729.14399,0.03148
2727.21526,0.03103
2725.28654,0.03060
2723.35782,0.03019
2721.42909,0.02976
2719.50037,0.02929
2717.57164,0.02877
2715.64292,0.02829
2713.71420,0.02790
2711.78547,0.02756
2709.85675,0.02720
2707.92803,0.02676
2705.99930,0.02631
2704.07058,0.02590
2702.14185,0.02550
2700.21313,0.02510
2698.28441,0.02472
2696.35568,0.02435
2694.42696,0.02395
2692.49824,0.02353
2690.56951,0.02315
2688.64079,0.02281
2686.71207,0.02250
2684.78334,0.02221
2682.85462,0.02192
2680.92589,0.02156
2678.99717,0.02112
2677.06845,0.02068
2675.13972,0.02027
2673.21100,0.01993
2671.28228,0.01963
2669.35355,0.01931
2667.42483,0.01894
2665.49611,0.01853
2663.56738,0.01813
2661.63866,0.01777
2659.70993,0.01745
2657.78121,0.01719
2655.85249,0.01695
2653.92376,0.01666
2651.99504,0.01633
2650.06632,0.01606
2648.13759,0.01586
2646.20887,0.01558
2644.28014,0.01518
2642.35142,0.01481
2640.42270,0.01455
2638.49397,0.01432
2636.56525,0.01404
2634.63653,0.01377
2632.70780,0.01353
2630.77908,0.01331
2628.85036,0.01310
2626.92163,0.01284
2624.99291,0.01252
2623.06418,0.01220
2621.13546,0.01191
2619.20674,0.01165
2617.27801,0.01141
2615.34929,0.01115
2613.42057,0.01090
2611.49184,0.01061
2609.56312,0.01038
2607.63440,0.01026
2605.70567,0.01014
2603.77695,0.00990
2601.84822,0.00957
2599.91950,0.00924
2597.99078,0.00899
2596.06205,0.00885
2594.13333,0.00867
2592.20461,0.00842
2590.27588,0.00819
2588.34716,0.00802
2586.41843,0.00785
2584.48971,0.00766
2582.56099,0.00743
2580.63226,0.00718
2578.70354,0.00697
2576.77482,0.00680
2574.84609,0.00661
2572.91737,0.00644
2570.98865,0.00628
2569.05992,0.00613
2567.13120,0.00597
2565.20247,0.00581
2563.27375,0.00567
2561.34503,0.00552
2559.41630,0.00537
2557.48758,0.00520
2555.55886,0.00503
2553.63013,0.00486
2551.70141,0.00468
2549.77269,0.00448
2547.84396,0.00429
2545.91524,0.00410
2543.98651,0.00393
2542.05779,0.00384
2540.12907,0.00380
2538.20034,0.00374
2536.27162,0.00365
2534.34290,0.00351
2532.41417,0.00334
2530.48545,0.00320
2528.55673,0.00311
2526.62800,0.00304
2524.69928,0.00294
2522.77055,0.00291
2520.84183,0.00293
2518.91311,0.00284
2516.98438,0.00263
2515.05566,0.00248
2513.12694,0.00238
2511.19821,0.00230
2509.26949,0.00227
2507.34076,0.00226
2505.41204,0.00225
2503.48332,0.00226
2501.55459,0.00220
2499.62587,0.00210
2497.69715,0.00208
2495.76842,0.00208
2493.83970,0.00201
2491.91098,0.00192
2489.98225,0.00188
2488.05353,0.00187
2486.12480,0.00182
2484.19608,0.00175
2482.26736,0.00171
2480.33863,0.00166
2478.40991,0.00156
2476.48119,0.00141
2474.55246,0.00126
2472.62374,0.00109
2470.69502,0.00088
2468.76629,0.00073
2466.83757,0.00070
2464.90884,0.00070
2462.98012,0.00064
2461.05140,0.00052
2459.12267,0.00040
2457.19395,0.00029
2455.26523,0.00025
2453.33650,0.00028
2451.40778,0.00032
2449.47905,0.00029
2447.55033,0.00024
2445.62161,0.00022
2443.69288,0.00019
2441.76416,0.00014
2439.83544,0.00010
2437.90671,0.00011
2435.97799,0.00013
2434.04927,0.00011
2432.12054,0.00012
2430.19182,0.00017
2428.26309,0.00017
2426.33437,0.00013
2424.40565,0.00007
2422.47692,0.00000
2420.54820,-0.00003
2418.61948,-0.00003
2416.69075,-0.00004
2414.76203,-0.00004
2412.83331,-0.00001
2410.90458,-0.00002
2408.97586,-0.00009
2407.04713,-0.00016
2405.11841,-0.00014
2403.18969,-0.00005
2401.26096,-0.00000
2399.33224,-0.00001
2397.40352,-0.00002
2395.47479,-0.00003
2393.54607,-0.00003
2391.61734,-0.00003
2389.68862,-0.00003
2387.75990,-0.00003
2385.83117,0.00000
2383.90245,0.00006
2381.97373,0.00012
2380.04500,0.00018
2378.11628,0.00019
2376.18756,0.00015
2374.25883,0.00007
2372.33011,0.00000
2370.40138,-0.00001
2368.47266,0.00000
2366.54394,0.00001
2364.61521,0.00001
2362.68649,0.00002
2360.75777,-0.00002
2358.82904,-0.00019
2356.90032,-0.00036
2354.97160,-0.00028
2353.04287,0.00020
2351.11415,0.00091
2349.18542,0.00119
2347.25670,0.00078
2345.32798,0.00029
2343.39925,0.00020
2341.47053,0.00023
2339.54181,0.00025
2337.61308,0.00026
2335.68436,0.00016
2333.75563,0.00004
2331.82691,0.00006
2329.89819,0.00015
2327.96946,0.00020
2326.04074,0.00023
2324.11202,0.00027
2322.18329,0.00031
2320.25457,0.00032
2318.32585,0.00031
2316.39712,0.00029
2314.46840,0.00033
2312.53967,0.00038
2310.61095,0.00039
2308.68223,0.00036
2306.75350,0.00032
2304.82478,0.00023
2302.89606,0.00011
2300.96733,0.00008
2299.03861,0.00013
2297.10989,0.00018
2295.18116,0.00020
2293.25244,0.00023
2291.32371,0.00027
2289.39499,0.00026
2287.46627,0.00017
2285.53754,0.00002
2283.60882,-0.00007
2281.68010,-0.00004
2279.75137,0.00004
2277.82265,0.00008
2275.89392,0.00009
2273.96520,0.00007
2272.03648,0.00002
2270.10775,-0.00001
2268.17903,0.00005
2266.25031,0.00011
2264.32158,0.00009
2262.39286,0.00007
2260.46414,0.00011
2258.53541,0.00019
2256.60669,0.00025
2254.67796,0.00024
2252.74924,0.00018
2250.82052,0.00013
2248.89179,0.00011
2246.96307,0.00005
2245.03435,-0.00002
2243.10562,-0.00005
2241.17690,-0.00001
2239.24818,0.00009
2237.31945,0.00017
2235.39073,0.00017
2233.46200,0.00011
2231.53328,0.00003
2229.60456,0.00001
2227.67583,0.00003
2225.74711,0.00009
2223.81839,0.00010
2221.88966,0.00006
2219.96094,0.00003
2218.03221,0.00003
2216.10349,0.00001
2214.17477,0.00001
2212.24604,0.00001
2210.31732,-0.00004
2208.38860,-0.00007
2206.45987,0.00000
2204.53115,0.00009
2202.60243,0.00011
2200.67370,0.00003
2198.74498,-0.00008
2196.81625,-0.00013
2194.88753,-0.00009
2192.95881,-0.00008
2191.03008,-0.00015
2189.10136,-0.00021
2187.17264,-0.00021
2185.24391,-0.00018
2183.31519,-0.00018
2181.38647,-0.00019
2179.45774,-0.00018
2177.52902,-0.00015
2175.60029,-0.00015
2173.67157,-0.00012
2171.74285,-0.00007
2169.81412,-0.00007
2167.88540,-0.00010
2165.95668,-0.00006
2164.02795,-0.00003
2162.09923,-0.00003
2160.17050,-0.00002
2158.24178,0.00000
2156.31306,-0.00004
2154.38433,-0.00010
2152.45561,-0.00007
2150.52689,0.00002
2148.59816,0.00006
2146.66944,0.00006
2144.74072,0.00006
2142.81199,0.00008
2140.88327,0.00013
2138.95454,0.00018
2137.02582,0.00026
2135.09710,0.00032
2133.16837,0.00028
2131.23965,0.00016
2129.31093,0.00007
2127.38220,0.00003
2125.45348,0.00002
2123.52476,0.00004
2121.59603,0.00005
2119.66731,0.00003
2117.73858,0.00004
2115.80986,0.00008
2113.88114,0.00005
2111.95241,0.00003
2110.02369,0.00007
2108.09497,0.00008
2106.16624,0.00003
2104.23752,-0.00002
2102.30880,-0.00002
2100.38007,-0.00002
2098.45135,-0.00002
2096.52262,-0.00001
2094.59390,0.00000
2092.66518,-0.00004
2090.73645,-0.00007
2088.80773,-0.00013
2086.87901,-0.00019
2084.95028,-0.00022
2083.02156,-0.00025
2081.09283,-0.00024
2079.16411,-0.00020
2077.23539,-0.00023
2075.30666,-0.00032
2073.37794,-0.00036
2071.44922,-0.00036
2069.52049,-0.00039
2067.59177,-0.00041
2065.66305,-0.00034
2063.73432,-0.00027
2061.80560,-0.00024
2059.87687,-0.00018
2057.94815,-0.00006
2056.01943,0.00001
2054.09070,0.00001
2052.16198,0.00006
2050.23326,0.00022
2048.30453,0.00037
2046.37581,0.00049
2044.44709,0.00061
2042.51836,0.00076
2040.58964,0.00098
2038.66091,0.00123
2036.73219,0.00146
2034.80347,0.00162
2032.87474,0.00171
2030.94602,0.00180
2029.01730,0.00198
2027.08857,0.00220
2025.15985,0.00239
2023.23112,0.00252
2021.30240,0.00263
2019.37368,0.00278
2017.44495,0.00295
2015.51623,0.00304
2013.58751,0.00310
2011.65878,0.00320
2009.73006,0.00332
2007.80134,0.00338
2005.87261,0.00341
2003.94389,0.00350
2002.01516,0.00357
2000.08644,0.00358
1998.15772,0.00361
1996.22899,0.00370
1994.30027,0.00378
1992.37155,0.00380
1990.44282,0.00371
1988.51410,0.00357
1986.58538,0.00343
1984.65665,0.00333
1982.72793,0.00325
1980.79920,0.00317
1978.87048,0.00306
1976.94176,0.00294
1975.01303,0.00279
1973.08431,0.00261
1971.15559,0.00247
1969.22686,0.00241
1967.29814,0.00237
1965.36941,0.00222
1963.44069,0.00197
1961.51197,0.00172
1959.58324,0.00155
1957.65452,0.00146
1955.72580,0.00137
1953.79707,0.00124
1951.86835,0.00110
1949.93963,0.00097
1948.01090,0.00083
1946.08218,0.00072
1944.15345,0.00061
1942.22473,0.00053
1940.29601,0.00045
1938.36728,0.00036
1936.43856,0.00030
1934.50984,0.00025
1932.58111,0.00019
1930.65239,0.00015
1928.72367,0.00016
1926.79494,0.00020
1924.86622,0.00025
1922.93749,0.00036
1921.00877,0.00051
1919.08005,0.00070
1917.15132,0.00095
1915.22260,0.00115
1913.29388,0.00136
1911.36515,0.00172
1909.43643,0.00222
1907.50770,0.00273
1905.57898,0.00320
1903.65026,0.00366
1901.72153,0.00408
1899.79281,0.00448
1897.86409,0.00493
1895.93536,0.00543
1894.00664,0.00588
1892.07792,0.00621
1890.14919,0.00653
1888.22047,0.00690
1886.29174,0.00718
1884.36302,0.00737
1882.43430,0.00757
1880.50557,0.00777
1878.57685,0.00792
1876.64813,0.00804
1874.71940,0.00811
1872.79068,0.00809
1870.86196,0.00799
1868.93323,0.00784
1867.00451,0.00763
1865.07578,0.00734
1863.14706,0.00703
1861.21834,0.00671
1859.28961,0.00633
1857.36089,0.00584
1855.43217,0.00526
1853.50344,0.00469
1851.57472,0.00420
1849.64599,0.00379
1847.71727,0.00337
1845.78855,0.00293
1843.85982,0.00251
1841.93110,0.00215
1840.00238,0.00185
1838.07365,0.00163
1836.14493,0.00141
1834.21621,0.00112
1832.28748,0.00081
1830.35876,0.00060
1828.43003,0.00052
1826.50131,0.00043
1824.57259,0.00028
1822.64386,0.00010
1820.71514,-0.00004
1818.78642,-0.00010
1816.85769,-0.00007
1814.92897,0.00000
1813.00025,0.00002
1811.07152,0.00008
1809.14280,0.00011
1807.21407,0.00009
1805.28535,0.00009
1803.35663,0.00019
1801.42790,0.00037
1799.49918,0.00050
1797.57046,0.00048
1795.64173,0.00042
1793.71301,0.00043
1791.78428,0.00053
1789.85556,0.00059
1787.92684,0.00057
1785.99811,0.00056
1784.06939,0.00061
1782.14067,0.00073
1780.21194,0.00086
1778.28322,0.00093
1776.35450,0.00096
1774.42577,0.00105
1772.49705,0.00130
1770.56832,0.00160
1768.63960,0.00177
1766.71088,0.00180
1764.78215,0.00181
1762.85343,0.00197
1760.92471,0.00226
1758.99598,0.00250
1757.06726,0.00265
1755.13854,0.00273
1753.20981,0.00277
1751.28109,0.00292
1749.35236,0.00324
1747.42364,0.00357
1745.49492,0.00379
1743.56619,0.00400
1741.63747,0.00436
1739.70875,0.00490
1737.78002,0.00544
1735.85130,0.00616
1733.92257,0.00750
1731.99385,0.00916
1730.06513,0.01054
1728.13640,0.01181
1726.20768,0.01317
1724.27896,0.01470
1722.35023,0.01626
1720.42151,0.01780
1718.49279,0.01980
1716.56406,0.02247
1714.63534,0.02498
1712.70661,0.02693
1710.77789,0.02873
1708.84917,0.03073
1706.92044,0.03313
1704.99172,0.03568
1703.06300,0.03790
1701.13427,0.04027
1699.20555,0.04329
1697.27683,0.04650
1695.34810,0.04972
1693.41938,0.05256
1691.49065,0.05498
1689.56193,0.05747
1687.63321,0.06005
1685.70448,0.06316
1683.77576,0.06738
1681.84704,0.07126
1679.91831,0.07392
1677.98959,0.07622
1676.06087,0.07895
1674.13214,0.08198
1672.20342,0.08482
1670.27469,0.08781
1668.34597,0.09100
1666.41725,0.09356
1664.48852,0.09578
1662.55980,0.09835
1660.63108,0.10091
1658.70235,0.10281
1656.77363,0.10416
1654.84490,0.10590
1652.91618,0.10870
1650.98746,0.11107
1649.05873,0.11244
1647.13001,0.11407
1645.20129,0.11610
1643.27256,0.11754
1641.34384,0.11836
1639.41512,0.11891
1637.48639,0.11940
1635.55767,0.12001
1633.62894,0.12044
1631.70022,0.12030
1629.77150,0.11965
1627.84277,0.11867
1625.91405,0.11739
1623.98533,0.11573
1622.05660,0.11369
1620.12788,0.11132
1618.19916,0.10842
1616.27043,0.10496
1614.34171,0.10162
1612.41298,0.09856
1610.48426,0.09535
1608.55554,0.09184
1606.62681,0.08818
1604.69809,0.08454
1602.76937,0.08102
1600.84064,0.07765
1598.91192,0.07444
1596.98319,0.07142
1595.05447,0.06865
1593.12575,0.06612
1591.19702,0.06373
1589.26830,0.06144
1587.33958,0.05928
1585.41085,0.05728
1583.48213,0.05537
1581.55341,0.05352
1579.62468,0.05177
1577.69596,0.05013
1575.76723,0.04856
1573.83851,0.04712
1571.90979,0.04579
1569.98106,0.04449
1568.05234,0.04326
1566.12362,0.04211
1564.19489,0.04101
1562.26617,0.03995
1560.33745,0.03887
1558.40872,0.03768
1556.48000,0.03658
1554.55127,0.03571
1552.62255,0.03492
1550.69383,0.03405
1548.76510,0.03305
1546.83638,0.03189
1544.90766,0.03059
1542.97893,0.02931
1541.05021,0.02828
1539.12148,0.02750
1537.19276,0.02681
1535.26404,0.02600
1533.33531,0.02497
1531.40659,0.02384
1529.47787,0.02280
1527.54914,0.02175
1525.62042,0.02059
1523.69170,0.01939
1521.76297,0.01829
1519.83425,0.01746
1517.90552,0.01688
1515.97680,0.01634
1514.04808,0.01569
1512.11935,0.01494
1510.19063,0.01405
1508.26191,0.01288
1506.33318,0.01141
1504.40446,0.01014
1502.47574,0.00924
1500.54701,0.00849
1498.61829,0.00782
1496.68956,0.00730
1494.76084,0.00688
1492.83212,0.00652
1490.90339,0.00628
1488.97467,0.00618
1487.04595,0.00609
1485.11722,0.00604
1483.18850,0.00614
1481.25977,0.00639
1479.33105,0.00667
1477.40233,0.00704
1475.47360,0.00781
1473.54488,0.00936
1471.61616,0.01143
1469.68743,0.01308
1467.75871,0.01410
1465.82999,0.01497
1463.90126,0.01588
1461.97254,0.01647
1460.04381,0.01672
1458.11509,0.01706
1456.18637,0.01760
1454.25764,0.01786
1452.32892,0.01781
1450.40020,0.01776
1448.47147,0.01792
1446.54275,0.01820
1444.61403,0.01838
1442.68530,0.01840
1440.75658,0.01833
1438.82785,0.01832
1436.89913,0.01852
1434.97041,0.01880
1433.04168,0.01892
1431.11296,0.01900
1429.18424,0.01920
1427.25551,0.01946
1425.32679,0.01973
1423.39806,0.02003
1421.46934,0.02039
1419.54062,0.02092
1417.61189,0.02152
1415.68317,0.02191
1413.75445,0.02226
1411.82572,0.02286
1409.89700,0.02362
1407.96828,0.02428
1406.03955,0.02483
1404.11083,0.02529
1402.18210,0.02544
1400.25338,0.02503
1398.32466,0.02402
1396.39593,0.02255
1394.46721,0.02081
1392.53849,0.01908
1390.60976,0.01764
1388.68104,0.01681
1386.75232,0.01664
1384.82359,0.01645
1382.89487,0.01545
1380.96614,0.01373
1379.03742,0.01198
1377.10870,0.01054
1375.17997,0.00934
1373.25125,0.00828
1371.32253,0.00737
1369.39380,0.00659
1367.46508,0.00583
1365.53635,0.00507
1363.60763,0.00436
1361.67891,0.00368
1359.75018,0.00302
1357.82146,0.00241
1355.89274,0.00190
1353.96401,0.00148
1352.03529,0.00113
1350.10657,0.00081
1348.17784,0.00053
1346.24912,0.00026
1344.32039,0.00000
1342.39167,-0.00039
1340.46295,-0.00071
1338.53422,-0.00101
1336.60550,-0.00132
1334.67678,-0.00161
1332.74805,-0.00177
1330.81933,-0.00179
1328.89061,-0.00176
1326.96188,-0.00172
1325.03316,-0.00160
1323.10443,-0.00140
1321.17571,-0.00119
1319.24699,-0.00101
1317.31826,-0.00079
1315.38954,-0.00052
1313.46082,-0.00025
1311.53209,0.00000
1309.60337,0.00021
1307.67464,0.00053
1305.74592,0.00091
1303.81720,0.00127
1301.88847,0.00168
1299.95975,0.00237
1298.03103,0.00334
1296.10230,0.00436
1294.17358,0.00542
1292.24486,0.00666
1290.31613,0.00810
1288.38741,0.00972
1286.45868,0.01155
1284.52996,0.01360
1282.60124,0.01586
1280.67251,0.01834
1278.74379,0.02112
1276.81507,0.02424
1274.88634,0.02773
1272.95762,0.03175
1271.02890,0.03642
1269.10017,0.04171
1267.17145,0.04758
1265.24272,0.05409
1263.31400,0.06132
1261.38528,0.06934
1259.45655,0.07809
1257.52783,0.08731
1255.59911,0.09682
1253.67038,0.10649
1251.74166,0.11606
1249.81294,0.12526
1247.88421,0.13385
1245.95549,0.14170
1244.02676,0.14881
1242.09804,0.15525
1240.16932,0.16111
1238.24059,0.16653
1236.31187,0.17165
1234.38315,0.17641
1232.45442,0.18086
1230.52570,0.18519
1228.59697,0.18948
1226.66825,0.19348
1224.73953,0.19712
1222.81080,0.20064
1220.88208,0.20431
1218.95336,0.20802
1217.02463,0.21158
1215.09591,0.21503
1213.16719,0.21849
1211.23846,0.22205
1209.30974,0.22555
1207.38101,0.22886
1205.45229,0.23204
1203.52357,0.23506
1201.59484,0.23785
1199.66612,0.24046
1197.73740,0.24302
1195.80867,0.24572
1193.87995,0.24861
1191.95123,0.25151
1190.02250,0.25433
1188.09378,0.25713
1186.16505,0.25984
1184.23633,0.26252
1182.30761,0.26531
1180.37888,0.26815
1178.45016,0.27090
1176.52144,0.27360
1174.59271,0.27649
1172.66399,0.27957
1170.73526,0.28247
1168.80654,0.28489
1166.87782,0.28705
1164.94909,0.28934
1163.02037,0.29187
1161.09165,0.29439
1159.16292,0.29665
1157.23420,0.29896
1155.30548,0.30154
1153.37675,0.30403
1151.44803,0.30625
1149.51930,0.30845
1147.59058,0.31077
1145.66186,0.31290
1143.73313,0.31498
1141.80441,0.31745
1139.87569,0.32005
1137.94696,0.32257
1136.01824,0.32529
1134.08952,0.32809
1132.16079,0.33068
1130.23207,0.33345
1128.30334,0.33681
1126.37462,0.34075
1124.44590,0.34491
1122.51717,0.34879
1120.58845,0.35230
1118.65973,0.35615
1116.73100,0.36075
1114.80228,0.36547
1112.87355,0.37012
1110.94483,0.37508
1109.01611,0.37992
1107.08738,0.38404
1105.15866,0.38767
1103.22994,0.39116
1101.30121,0.39415
1099.37249,0.39652
1097.44377,0.39859
1095.51504,0.40011
1093.58632,0.40079
1091.65759,0.40088
1089.72887,0.40077
1087.80015,0.40051
1085.87142,0.40006
1083.94270,0.39955
1082.01398,0.39932
1080.08525,0.39930
1078.15653,0.39878
1076.22781,0.39764
1074.29908,0.39614
1072.37036,0.39461
1070.44163,0.39343
1068.51291,0.39261
1066.58419,0.39179
1064.65546,0.39086
1062.72674,0.39004
1060.79802,0.38907
1058.86929,0.38768
1056.94057,0.38608
1055.01184,0.38466
1053.08312,0.38365
1051.15440,0.38257
1049.22567,0.38114
1047.29695,0.37961
1045.36823,0.37798
1043.43950,0.37602
1041.51078,0.37368
1039.58206,0.37122
1037.65333,0.36874
1035.72461,0.36584
1033.79588,0.36228
1031.86716,0.35861
1029.93844,0.35486
1028.00971,0.35075
1026.08099,0.34668
1024.15227,0.34287
1022.22354,0.33885
1020.29482,0.33419
1018.36610,0.32916
1016.43737,0.32441
1014.50865,0.32012
1012.57992,0.31601
1010.65120,0.31163
1008.72248,0.30675
1006.79375,0.30154
1004.86503,0.29625
1002.93631,0.29054
1001.00758,0.28431
999.07886,0.27815
997.15013,0.27222
995.22141,0.26620
993.29269,0.26002
991.36396,0.25408
989.43524,0.24851
987.50652,0.24302
985.57779,0.23762
983.64907,0.23238
981.72035,0.22726
979.79162,0.22249
977.86290,0.21814
975.93417,0.21389
974.00545,0.20971
972.07673,0.20586
970.14800,0.20226
968.21928,0.19876
966.29056,0.19551
964.36183,0.19262
962.43311,0.18999
960.50439,0.18746
958.57566,0.18473
956.64694,0.18163
954.71821,0.17866
952.78949,0.17617
950.86077,0.17403
948.93204,0.17188
947.00332,0.16920
945.07460,0.16600
943.14587,0.16276
941.21715,0.15963
939.28842,0.15642
937.35970,0.15325
935.43098,0.15039
933.50225,0.14761
931.57353,0.14471
929.64481,0.14178
927.71608,0.13894
925.78736,0.13629
923.85864,0.13378
921.92991,0.13135
920.00119,0.12899
918.07246,0.12650
916.14374,0.12365
914.21502,0.12061
912.28629,0.11765
910.35757,0.11462
908.42885,0.11121
906.50012,0.10756
904.57140,0.10394
902.64268,0.10021
900.71395,0.09630
898.78523,0.09264
896.85650,0.08956
894.92778,0.08670
892.99906,0.08368
891.07033,0.08067
889.14161,0.07794
887.21289,0.07541
885.28416,0.07299
883.35544,0.07053
881.42671,0.06802
879.49799,0.06562
877.56927,0.06330
875.64054,0.06076
873.71182,0.05797
871.78310,0.05543
869.85437,0.05344
867.92565,0.05175
865.99693,0.05019
864.06820,0.04859
862.13948,0.04638
860.21075,0.04331
858.28203,0.03989
856.35331,0.03690
854.42458,0.03455
852.49586,0.03259
850.56714,0.03112
848.63841,0.03039
846.70969,0.03017
844.78097,0.03020
842.85224,0.03052
840.92352,0.03133
838.99479,0.03262
837.06607,0.03430
835.13735,0.03633
833.20862,0.03838
831.27990,0.04017
829.35118,0.04206
827.42245,0.04447
825.49373,0.04735
823.56501,0.05015
821.63628,0.05242
819.70756,0.05439
817.77883,0.05640
815.85011,0.05819
813.92139,0.05974
811.99266,0.06154
810.06394,0.06366
808.13522,0.06605
806.20649,0.06861
804.27777,0.07071
802.34904,0.07190
800.42032,0.07243
798.49160,0.07262
796.56287,0.07252
794.63415,0.07191
792.70543,0.07071
790.77670,0.06923
788.84798,0.06763
786.91926,0.06575
784.99053,0.06355
783.06181,0.06118
781.13308,0.05863
779.20436,0.05588
777.27564,0.05313
775.34691,0.05021
773.41819,0.04698
771.48947,0.04388
769.56074,0.04131
767.63202,0.03960
765.70330,0.03899
763.77457,0.03880
761.84585,0.03816
759.91712,0.03730
757.98840,0.03674
756.05968,0.03628
754.13095,0.03573
752.20223,0.03530
750.27351,0.03505
748.34478,0.03482
746.41606,0.03456
744.48733,0.03433
742.55861,0.03408
740.62989,0.03365
738.70116,0.03316
736.77244,0.03295
734.84372,0.03307
732.91499,0.03307
730.98627,0.03291
729.05755,0.03304
727.12882,0.03329
725.20010,0.03343
723.27137,0.03352
721.34265,0.03309
719.41393,0.03230
717.48520,0.03195
715.55648,0.03226
713.62776,0.03272
711.69903,0.03298
709.77031,0.03301
707.84159,0.03292
705.91286,0.03289
703.98414,0.03320
702.05541,0.03380
700.12669,0.03428
698.19797,0.03439
696.26924,0.03440
694.34052,0.03477
692.41180,0.03532
690.48307,0.03572
688.55435,0.03602
686.62562,0.03635
684.69690,0.03670
682.76818,0.03702
680.83945,0.03717
678.91073,0.03714
676.98201,0.03706
675.05328,0.03712
673.12456,0.03726
671.19584,0.03673
669.26711,0.03561
667.33839,0.03580
665.40966,0.03683
663.48094,0.03684
661.55222,0.03656
659.62349,0.03701
657.69477,0.03771
655.76605,0.03831
653.83732,0.03882
651.90860,0.03923
649.97988,0.03979
648.05115,0.04078
646.12243,0.04205
644.19370,0.04313
642.26498,0.04375
640.33626,0.04405
638.40753,0.04431
636.47881,0.04470
634.55009,0.04543
632.62136,0.04680
630.69264,0.04841
628.76391,0.04923
626.83519,0.04890
624.90647,0.04848
622.97774,0.04860
621.04902,0.04894
619.12030,0.04929
617.19157,0.04996
615.26285,0.05129
613.33413,0.05272
611.40540,0.05359
609.47668,0.05441
607.54795,0.05592
605.61923,0.05788
603.69051,0.05983
601.76178,0.06165
599.83306,0.06340
597.90434,0.06524
595.97561,0.06689
594.04689,0.06796
592.11817,0.06906
590.18944,0.07038
588.26072,0.07113
586.33199,0.07153
584.40327,0.07241
582.47455,0.07354
580.54582,0.07441
578.61710,0.07513
576.68838,0.07646
574.75965,0.07850
572.83093,0.07999
570.90220,0.08079
568.97348,0.08219
567.04476,0.08414
565.11603,0.08546
563.18731,0.08589
561.25859,0.08623
559.32986,0.08729
557.40114,0.08950
555.47242,0.09283
553.54369,0.09642
551.61497,0.09903
549.68624,0.10000
547.75752,0.10052
545.82880,0.10256
543.90007,0.10565
541.97135,0.10785
540.04263,0.10878
538.11390,0.10925
536.18518,0.11028
534.25646,0.11200
532.32773,0.11296
530.39901,0.11247
528.47028,0.11237
526.54156,0.11427
524.61284,0.11681
522.68411,0.11803
520.75539,0.11869
518.82667,0.12024
516.89794,0.12241
514.96922,0.12499
513.04049,0.12866
511.11177,0.13295
509.18305,0.13621
507.25432,0.13811
505.32560,0.14035
503.39688,0.14464
501.46815,0.15138
499.53943,0.15953
497.61071,0.16782
495.68198,0.17553
493.75326,0.18214
491.82453,0.18813
489.89581,0.19405
487.96709,0.19967
486.03836,0.20589
484.10964,0.21341
482.18092,0.22024
480.25219,0.22512
478.32347,0.22955
476.39475,0.23421
474.46602,0.23880
472.53730,0.24451
470.60857,0.25188
468.67985,0.25814
466.75113,0.26028
464.82240,0.25839
462.89368,0.25469
460.96496,0.25048
459.03623,0.24626
457.10751,0.24333
455.17878,0.24085
453.25006,0.23506
451.32134,0.22701
449.39261,0.22256
447.46389,0.22274
445.53517,0.22191
443.60644,0.21472
441.67772,0.20391
439.74900,0.19700
437.82027,0.19454
435.89155,0.19196
433.96282,0.18783
432.03410,0.18238
430.10538,0.17545
428.17665,0.16804
426.24793,0.16010
424.31921,0.15060
422.39048,0.14201
420.46176,0.13730
418.53304,0.13382
416.60431,0.12849
414.67559,0.12433
412.74686,0.12225
410.81814,0.11857
408.88942,0.11087
406.96069,0.09979
405.03197,0.08844
403.10325,0.08231
401.17452,0.08280
399.24580,0.08024
397.31708,0.06359
395.38835,0.04438
393.45963,0.04015
391.53090,0.04422
389.60218,0.04134
387.67346,0.02995
385.74473,0.01849
383.81601,0.01096
381.88729,0.00443
379.95856,0.00000
378.02984,0.00978
376.10111,0.05256
374.17239,0.10667
372.24367,0.10307
370.31494,0.04889
368.38622,0.00000
