3996.31543,0.00000
3994.38671,0.00007
3992.45799,0.00014
3990.52926,0.00017
3988.60054,0.00017
3986.67182,0.00021
3984.74309,0.00026
3982.81437,0.00031
3980.88564,0.00037
3978.95692,0.00037
3977.02820,0.00036
3975.09947,0.00048
3973.17075,0.00067
3971.24203,0.00078
3969.31330,0.00082
3967.38458,0.00085
3965.45586,0.00085
3963.52713,0.00089
3961.59841,0.00098
3959.66968,0.00101
3957.74096,0.00093
3955.81224,0.00085
3953.88351,0.00090
3951.95479,0.00097
3950.02607,0.00092
3948.09734,0.00079
3946.16862,0.00075
3944.23990,0.00081
3942.31117,0.00078
3940.38245,0.00066
3938.45372,0.00060
3936.52500,0.00066
3934.59628,0.00073
3932.66755,0.00064
3930.73883,0.00046
3928.81011,0.00044
3926.88138,0.00067
3924.95266,0.00088
3923.02393,0.00091
3921.09521,0.00086
3919.16649,0.00073
3917.23776,0.00052
3915.30904,0.00041
3913.38032,0.00049
3911.45159,0.00064
3909.52287,0.00089
3907.59415,0.00132
3905.66542,0.00166
3903.73670,0.00150
3901.80797,0.00103
3899.87925,0.00073
3897.95053,0.00069
3896.02180,0.00079
3894.09308,0.00086
3892.16436,0.00078
3890.23563,0.00067
3888.30691,0.00069
3886.37819,0.00068
3884.44946,0.00053
3882.52074,0.00043
3880.59201,0.00035
3878.66329,0.00032
3876.73457,0.00041
3874.80584,0.00061
3872.87712,0.00085
3870.94840,0.00088
3869.01967,0.00056
3867.09095,0.00030
3865.16222,0.00018
3863.23350,0.00001
3861.30478,0.00000
3859.37605,0.00036
3857.44733,0.00104
3855.51861,0.00153
3853.58988,0.00119
3851.66116,0.00029
3849.73244,-0.00018
3847.80371,-0.00015
3845.87499,0.00001
3843.94626,0.00016
3842.01754,0.00034
3840.08882,0.00048
3838.16009,0.00046
3836.23137,0.00044
3834.30265,0.00060
3832.37392,0.00072
3830.44520,0.00067
3828.51648,0.00057
3826.58775,0.00059
3824.65903,0.00075
3822.73030,0.00086
3820.80158,0.00088
3818.87286,0.00107
3816.94413,0.00125
3815.01541,0.00111
3813.08669,0.00104
3811.15796,0.00131
3809.22924,0.00158
3807.30052,0.00152
3805.37179,0.00146
3803.44307,0.00171
3801.51434,0.00180
3799.58562,0.00159
3797.65690,0.00143
3795.72817,0.00141
3793.79945,0.00156
3791.87073,0.00187
3789.94200,0.00220
3788.01328,0.00247
3786.08455,0.00273
3784.15583,0.00301
3782.22711,0.00333
3780.29838,0.00359
3778.36966,0.00372
3776.44094,0.00387
3774.51221,0.00410
3772.58349,0.00440
3770.65477,0.00471
3768.72604,0.00497
3766.79732,0.00521
3764.86859,0.00550
3762.93987,0.00602
3761.01115,0.00674
3759.08242,0.00745
3757.15370,0.00809
3755.22498,0.00886
3753.29625,0.00965
3751.36753,0.01014
3749.43881,0.01050
3747.51008,0.01122
3745.58136,0.01215
3743.65263,0.01293
3741.72391,0.01373
3739.79519,0.01476
3737.86646,0.01589
3735.93774,0.01701
3734.00902,0.01825
3732.08029,0.01981
3730.15157,0.02155
3728.22284,0.02332
3726.29412,0.02521
3724.36540,0.02726
3722.43667,0.02940
3720.50795,0.03161
3718.57923,0.03397
3716.65050,0.03656
3714.72178,0.03943
3712.79306,0.04263
3710.86433,0.04589
3708.93561,0.04889
3707.00688,0.05177
3705.07816,0.05475
3703.14944,0.05802
3701.22071,0.06165
3699.29199,0.06540
3697.36327,0.06901
3695.43454,0.07236
3693.50582,0.07542
3691.57710,0.07854
3689.64837,0.08219
3687.71965,0.08618
3685.79092,0.09003
3683.86220,0.09373
3681.93348,0.09744
3680.00475,0.10116
3678.07603,0.10512
3676.14731,0.10970
3674.21858,0.11441
3672.28986,0.11851
3670.36113,0.12262
3668.43241,0.12695
3666.50369,0.13075
3664.57496,0.13413
3662.64624,0.13758
3660.71752,0.14111
3658.78879,0.14458
3656.86007,0.14804
3654.93135,0.15142
3653.00262,0.15455
3651.07390,0.15770
3649.14517,0.16095
3647.21645,0.16385
3645.28773,0.16651
3643.35900,0.16927
3641.43028,0.17208
3639.50156,0.17474
3637.57283,0.17723
3635.64411,0.17964
3633.71539,0.18199
3631.78666,0.18426
3629.85794,0.18661
3627.92921,0.18917
3626.00049,0.19170
3624.07177,0.19398
3622.14304,0.19592
3620.21432,0.19753
3618.28560,0.19903
3616.35687,0.20068
3614.42815,0.20256
3612.49942,0.20442
3610.57070,0.20602
3608.64198,0.20745
3606.71325,0.20900
3604.78453,0.21063
3602.85581,0.21220
3600.92708,0.21366
3598.99836,0.21495
3597.06964,0.21619
3595.14091,0.21756
3593.21219,0.21908
3591.28346,0.22063
3589.35474,0.22202
3587.42602,0.22322
3585.49729,0.22446
3583.56857,0.22584
3581.63985,0.22722
3579.71112,0.22856
3577.78240,0.22991
3575.85368,0.23132
3573.92495,0.23279
3571.99623,0.23425
3570.06750,0.23553
3568.13878,0.23652
3566.21006,0.23740
3564.28133,0.23855
3562.35261,0.24000
3560.42389,0.24142
3558.49516,0.24259
3556.56644,0.24368
3554.63771,0.24476
3552.70899,0.24571
3550.78027,0.24658
3548.85154,0.24754
3546.92282,0.24858
3544.99410,0.24962
3543.06537,0.25066
3541.13665,0.25167
3539.20793,0.25265
3537.27920,0.25362
3535.35048,0.25458
3533.42175,0.25550
3531.49303,0.25640
3529.56431,0.25731
3527.63558,0.25818
3525.70686,0.25898
3523.77814,0.25972
3521.84941,0.26048
3519.92069,0.26128
3517.99197,0.26215
3516.06324,0.26306
3514.13452,0.26392
3512.20579,0.26473
3510.27707,0.26552
3508.34835,0.26633
3506.41962,0.26723
3504.49090,0.26819
3502.56218,0.26900
3500.63345,0.26957
3498.70473,0.27009
3496.77600,0.27069
3494.84728,0.27141
3492.91856,0.27221
3490.98983,0.27299
3489.06111,0.27367
3487.13239,0.27440
3485.20366,0.27526
3483.27494,0.27605
3481.34622,0.27663
3479.41749,0.27712
3477.48877,0.27763
3475.56004,0.27823
3473.63132,0.27893
3471.70260,0.27960
3469.77387,0.28020
3467.84515,0.28066
3465.91643,0.28079
3463.98770,0.28088
3462.05898,0.28140
3460.13026,0.28212
3458.20153,0.28248
3456.27281,0.28249
3454.34408,0.28261
3452.41536,0.28293
3450.48664,0.28329
3448.55791,0.28365
3446.62919,0.28404
3444.70047,0.28450
3442.77174,0.28499
3440.84302,0.28540
3438.91429,0.28573
3436.98557,0.28600
3435.05685,0.28617
3433.12812,0.28624
3431.19940,0.28641
3429.27068,0.28673
3427.34195,0.28700
3425.41323,0.28718
3423.48451,0.28723
3421.55578,0.28721
3419.62706,0.28748
3417.69833,0.28807
3415.76961,0.28856
3413.84089,0.28873
3411.91216,0.28869
3409.98344,0.28875
3408.05472,0.28904
3406.12599,0.28926
3404.19727,0.28925
3402.26855,0.28909
3400.33982,0.28892
3398.41110,0.28890
3396.48237,0.28899
3394.55365,0.28898
3392.62493,0.28884
3390.69620,0.28879
3388.76748,0.28889
3386.83876,0.28897
3384.91003,0.28889
3382.98131,0.28875
3381.05259,0.28854
3379.12386,0.28818
3377.19514,0.28781
3375.26641,0.28757
3373.33769,0.28741
3371.40897,0.28735
3369.48024,0.28732
3367.55152,0.28715
3365.62280,0.28690
3363.69407,0.28670
3361.76535,0.28654
3359.83662,0.28632
3357.90790,0.28607
3355.97918,0.28583
3354.05045,0.28558
3352.12173,0.28539
3350.19301,0.28528
3348.26428,0.28512
3346.33556,0.28489
3344.40684,0.28459
3342.47811,0.28421
3340.54939,0.28376
3338.62066,0.28327
3336.69194,0.28281
3334.76322,0.28252
3332.83449,0.28238
3330.90577,0.28216
3328.97705,0.28179
3327.04832,0.28141
3325.11960,0.28124
3323.19088,0.28114
3321.26215,0.28082
3319.33343,0.28039
3317.40470,0.28009
3315.47598,0.27984
3313.54726,0.27961
3311.61853,0.27944
3309.68981,0.27912
3307.76109,0.27849
3305.83236,0.27785
3303.90364,0.27749
3301.97491,0.27728
3300.04619,0.27699
3298.11747,0.27660
3296.18874,0.27627
3294.26002,0.27608
3292.33130,0.27589
3290.40257,0.27553
3288.47385,0.27511
3286.54513,0.27486
3284.61640,0.27460
3282.68768,0.27410
3280.75895,0.27350
3278.83023,0.27302
3276.90151,0.27275
3274.97278,0.27259
3273.04406,0.27240
3271.11534,0.27212
3269.18661,0.27165
3267.25789,0.27105
3265.32917,0.27056
3263.40044,0.27020
3261.47172,0.26975
3259.54299,0.26916
3257.61427,0.26853
3255.68555,0.26803
3253.75682,0.26760
3251.82810,0.26711
3249.89938,0.26656
3247.97065,0.26602
3246.04193,0.26547
3244.11320,0.26491
3242.18448,0.26439
3240.25576,0.26407
3238.32703,0.26390
3236.39831,0.26355
3234.46959,0.26289
3232.54086,0.26226
3230.61214,0.26176
3228.68342,0.26117
3226.75469,0.26052
3224.82597,0.25999
3222.89724,0.25945
3220.96852,0.25879
3219.03980,0.25811
3217.11107,0.25751
3215.18235,0.25696
3213.25363,0.25634
3211.32490,0.25566
3209.39618,0.25502
3207.46746,0.25443
3205.53873,0.25384
3203.61001,0.25321
3201.68128,0.25253
3199.75256,0.25182
3197.82384,0.25106
3195.89511,0.25021
3193.96639,0.24934
3192.03767,0.24861
3190.10894,0.24801
3188.18022,0.24729
3186.25149,0.24644
3184.32277,0.24564
3182.39405,0.24490
3180.46532,0.24405
3178.53660,0.24305
3176.60788,0.24199
3174.67915,0.24109
3172.75043,0.24040
3170.82171,0.23971
3168.89298,0.23886
3166.96426,0.23795
3165.03553,0.23708
3163.10681,0.23626
3161.17809,0.23543
3159.24936,0.23455
3157.32064,0.23362
3155.39192,0.23279
3153.46319,0.23213
3151.53447,0.23146
3149.60575,0.23061
3147.67702,0.22958
3145.74830,0.22849
3143.81957,0.22750
3141.89085,0.22666
3139.96213,0.22582
3138.03340,0.22495
3136.10468,0.22410
3134.17596,0.22322
3132.24723,0.22230
3130.31851,0.22147
3128.38978,0.22073
3126.46106,0.21995
3124.53234,0.21903
3122.60361,0.21802
3120.67489,0.21709
3118.74617,0.21630
3116.81744,0.21552
3114.88872,0.21457
3112.96000,0.21350
3111.03127,0.21248
3109.10255,0.21160
3107.17382,0.21076
3105.24510,0.20983
3103.31638,0.20884
3101.38765,0.20779
3099.45893,0.20670
3097.53021,0.20559
3095.60148,0.20448
3093.67276,0.20346
3091.74404,0.20252
3089.81531,0.20152
3087.88659,0.20039
3085.95786,0.19928
3084.02914,0.19829
3082.10042,0.19732
3080.17169,0.19620
3078.24297,0.19500
3076.31425,0.19392
3074.38552,0.19293
3072.45680,0.19188
3070.52807,0.19082
3068.59935,0.18983
3066.67063,0.18884
3064.74190,0.18777
3062.81318,0.18670
3060.88446,0.18571
3058.95573,0.18474
3057.02701,0.18372
3055.09829,0.18271
3053.16956,0.18165
3051.24084,0.18049
3049.31211,0.17930
3047.38339,0.17818
3045.45467,0.17713
3043.52594,0.17618
3041.59722,0.17531
3039.66850,0.17443
3037.73977,0.17348
3035.81105,0.17253
3033.88233,0.17160
3031.95360,0.17066
3030.02488,0.16977
3028.09615,0.16885
3026.16743,0.16787
3024.23871,0.16700
3022.30998,0.16631
3020.38126,0.16551
3018.45254,0.16449
3016.52381,0.16350
3014.59509,0.16267
3012.66636,0.16194
3010.73764,0.16126
3008.80892,0.16065
3006.88019,0.16005
3004.95147,0.15929
3003.02275,0.15842
3001.09402,0.15771
2999.16530,0.15715
2997.23658,0.15652
2995.30785,0.15582
2993.37913,0.15518
2991.45040,0.15460
2989.52168,0.15400
2987.59296,0.15340
2985.66423,0.15290
2983.73551,0.15266
2981.80679,0.15268
2979.87806,0.15268
2977.94934,0.15252
2976.02062,0.15233
2974.09189,0.15222
2972.16317,0.15222
2970.23444,0.15231
2968.30572,0.15239
2966.37700,0.15247
2964.44827,0.15267
2962.51955,0.15285
2960.59083,0.15277
2958.66210,0.15253
2956.73338,0.15235
2954.80466,0.15213
2952.87593,0.15173
2950.94721,0.15124
2949.01848,0.15092
2947.08976,0.15087
2945.16104,0.15105
2943.23231,0.15139
2941.30359,0.15178
2939.37487,0.15220
2937.44614,0.15272
2935.51742,0.15341
2933.58869,0.15416
2931.65997,0.15480
2929.73125,0.15533
2927.80252,0.15574
2925.87380,0.15581
2923.94508,0.15540
2922.01635,0.15452
2920.08763,0.15309
2918.15891,0.15107
2916.23018,0.14854
2914.30146,0.14566
2912.37273,0.14281
2910.44401,0.14032
2908.51529,0.13817
2906.58656,0.13618
2904.65784,0.13440
2902.72912,0.13283
2900.80039,0.13135
2898.87167,0.12989
2896.94295,0.12852
2895.01422,0.12726
2893.08550,0.12600
2891.15677,0.12468
2889.22805,0.12332
2887.29933,0.12199
2885.37060,0.12085
2883.44188,0.11995
2881.51316,0.11908
2879.58443,0.11822
2877.65571,0.11755
2875.72698,0.11709
2873.79826,0.11654
2871.86954,0.11570
2869.94081,0.11481
2868.01209,0.11415
2866.08337,0.11369
2864.15464,0.11338
2862.22592,0.11334
2860.29720,0.11363
2858.36847,0.11415
2856.43975,0.11476
2854.51102,0.11526
2852.58230,0.11519
2850.65358,0.11397
2848.72485,0.11145
2846.79613,0.10814
2844.86741,0.10474
2842.93868,0.10169
2841.00996,0.09913
2839.08124,0.09697
2837.15251,0.09507
2835.22379,0.09343
2833.29506,0.09208
2831.36634,0.09087
2829.43762,0.08970
2827.50889,0.08863
2825.58017,0.08766
2823.65145,0.08673
2821.72272,0.08577
2819.79400,0.08476
2817.86527,0.08385
2815.93655,0.08311
2814.00783,0.08242
2812.07910,0.08164
2810.15038,0.08076
2808.22166,0.07985
2806.29293,0.07901
2804.36421,0.07820
2802.43549,0.07742
2800.50676,0.07676
2798.57804,0.07617
2796.64931,0.07549
2794.72059,0.07468
2792.79187,0.07389
2790.86314,0.07321
2788.93442,0.07256
2787.00570,0.07188
2785.07697,0.07121
2783.14825,0.07055
2781.21953,0.06987
2779.29080,0.06913
2777.36208,0.06843
2775.43335,0.06787
2773.50463,0.06734
2771.57591,0.06668
2769.64718,0.06595
2767.71846,0.06530
2765.78974,0.06469
2763.86101,0.06397
2761.93229,0.06321
2760.00356,0.06258
2758.07484,0.06206
2756.14612,0.06153
2754.21739,0.06099
2752.28867,0.06045
2750.35995,0.05989
2748.43122,0.05932
2746.50250,0.05870
2744.57378,0.05807
2742.64505,0.05752
2740.71633,0.05701
2738.78760,0.05647
2736.85888,0.05589
2734.93016,0.05525
2733.00143,0.05463
2731.07271,0.05417
2729.14399,0.05378
2727.21526,0.05326
2725.28654,0.05258
2723.35782,0.05193
2721.42909,0.05140
2719.50037,0.05091
2717.57164,0.05036
2715.64292,0.04982
2713.71420,0.04935
2711.78547,0.04888
2709.85675,0.04830
2707.92803,0.04774
2705.99930,0.04731
2704.07058,0.04688
2702.14185,0.04634
2700.21313,0.04572
2698.28441,0.04515
2696.35568,0.04468
2694.42696,0.04424
2692.49824,0.04373
2690.56951,0.04315
2688.64079,0.04260
2686.71207,0.04213
2684.78334,0.04165
2682.85462,0.04120
2680.92589,0.04083
2678.99717,0.04044
2677.06845,0.03997
2675.13972,0.03953
2673.21100,0.03920
2671.28228,0.03879
2669.35355,0.03819
2667.42483,0.03753
2665.49611,0.03695
2663.56738,0.03645
2661.63866,0.03601
2659.70993,0.03564
2657.78121,0.03528
2655.85249,0.03488
2653.92376,0.03445
2651.99504,0.03400
2650.06632,0.03357
2648.13759,0.03315
2646.20887,0.03271
2644.28014,0.03229
2642.35142,0.03192
2640.42270,0.03161
2638.49397,0.03129
2636.56525,0.03087
2634.63653,0.03039
2632.70780,0.02996
2630.77908,0.02958
2628.85036,0.02922
2626.92163,0.02882
2624.99291,0.02840
2623.06418,0.02799
2621.13546,0.02757
2619.20674,0.02718
2617.27801,0.02684
2615.34929,0.02652
2613.42057,0.02621
2611.49184,0.02588
2609.56312,0.02553
2607.63440,0.02518
2605.70567,0.02486
2603.77695,0.02456
2601.84822,0.02424
2599.91950,0.02394
2597.99078,0.02364
2596.06205,0.02324
2594.13333,0.02277
2592.20461,0.02236
2590.27588,0.02206
2588.34716,0.02180
2586.41843,0.02150
2584.48971,0.02121
2582.56099,0.02095
2580.63226,0.02066
2578.70354,0.02033
2576.77482,0.01998
2574.84609,0.01973
2572.91737,0.01954
2570.98865,0.01929
2569.05992,0.01902
2567.13120,0.01880
2565.20247,0.01860
2563.27375,0.01838
2561.34503,0.01813
2559.41630,0.01785
2557.48758,0.01755
2555.55886,0.01726
2553.63013,0.01708
2551.70141,0.01694
2549.77269,0.01672
2547.84396,0.01645
2545.91524,0.01621
2543.98651,0.01602
2542.05779,0.01582
2540.12907,0.01557
2538.20034,0.01534
2536.27162,0.01515
2534.34290,0.01493
2532.41417,0.01470
2530.48545,0.01454
2528.55673,0.01442
2526.62800,0.01424
2524.69928,0.01398
2522.77055,0.01373
2520.84183,0.01356
2518.91311,0.01336
2516.98438,0.01308
2515.05566,0.01282
2513.12694,0.01261
2511.19821,0.01242
2509.26949,0.01226
2507.34076,0.01207
2505.41204,0.01188
2503.48332,0.01170
2501.55459,0.01145
2499.62587,0.01115
2497.69715,0.01097
2495.76842,0.01085
2493.83970,0.01070
2491.91098,0.01051
2489.98225,0.01033
2488.05353,0.01018
2486.12480,0.01006
2484.19608,0.00990
2482.26736,0.00965
2480.33863,0.00939
2478.40991,0.00921
2476.48119,0.00905
2474.55246,0.00886
2472.62374,0.00866
2470.69502,0.00846
2468.76629,0.00827
2466.83757,0.00814
2464.90884,0.00803
2462.98012,0.00785
2461.05140,0.00759
2459.12267,0.00732
2457.19395,0.00714
2455.26523,0.00703
2453.33650,0.00693
2451.40778,0.00680
2449.47905,0.00664
2447.55033,0.00648
2445.62161,0.00631
2443.69288,0.00615
2441.76416,0.00605
2439.83544,0.00596
2437.90671,0.00579
2435.97799,0.00556
2434.04927,0.00535
2432.12054,0.00521
2430.19182,0.00509
2428.26309,0.00496
2426.33437,0.00478
2424.40565,0.00460
2422.47692,0.00449
2420.54820,0.00442
2418.61948,0.00427
2416.69075,0.00410
2414.76203,0.00400
2412.83331,0.00393
2410.90458,0.00383
2408.97586,0.00371
2407.04713,0.00354
2405.11841,0.00335
2403.18969,0.00321
2401.26096,0.00313
2399.33224,0.00305
2397.40352,0.00300
2395.47479,0.00296
2393.54607,0.00289
2391.61734,0.00276
2389.68862,0.00260
2387.75990,0.00251
2385.83117,0.00248
2383.90245,0.00247
2381.97373,0.00247
2380.04500,0.00257
2378.11628,0.00268
2376.18756,0.00265
2374.25883,0.00254
2372.33011,0.00253
2370.40138,0.00269
2368.47266,0.00292
2366.54394,0.00305
2364.61521,0.00294
2362.68649,0.00274
2360.75777,0.00271
2358.82904,0.00262
2356.90032,0.00223
2354.97160,0.00180
2353.04287,0.00181
2351.11415,0.00233
2349.18542,0.00271
2347.25670,0.00241
2345.32798,0.00179
2343.39925,0.00151
2341.47053,0.00161
2339.54181,0.00178
2337.61308,0.00184
2335.68436,0.00177
2333.75563,0.00161
2331.82691,0.00143
2329.89819,0.00137
2327.96946,0.00147
2326.04074,0.00155
2324.11202,0.00151
2322.18329,0.00144
2320.25457,0.00141
2318.32585,0.00139
2316.39712,0.00133
2314.46840,0.00121
2312.53967,0.00110
2310.61095,0.00098
2308.68223,0.00087
2306.75350,0.00079
2304.82478,0.00075
2302.89606,0.00067
2300.96733,0.00055
2299.03861,0.00046
2297.10989,0.00046
2295.18116,0.00047
2293.25244,0.00044
2291.32371,0.00043
2289.39499,0.00046
2287.46627,0.00047
2285.53754,0.00042
2283.60882,0.00039
2281.68010,0.00043
2279.75137,0.00048
2277.82265,0.00048
2275.89392,0.00042
2273.96520,0.00031
2272.03648,0.00019
2270.10775,0.00015
2268.17903,0.00017
2266.25031,0.00020
2264.32158,0.00023
2262.39286,0.00025
2260.46414,0.00021
2258.53541,0.00019
2256.60669,0.00019
2254.67796,0.00018
2252.74924,0.00012
2250.82052,0.00008
2248.89179,0.00006
2246.96307,0.00005
2245.03435,0.00008
2243.10562,0.00007
2241.17690,-0.00001
2239.24818,-0.00002
2237.31945,0.00001
2235.39073,0.00000
2233.46200,-0.00003
2231.53328,-0.00007
2229.60456,-0.00008
2227.67583,-0.00007
2225.74711,-0.00007
2223.81839,-0.00005
2221.88966,-0.00001
2219.96094,-0.00004
2218.03221,-0.00010
2216.10349,-0.00009
2214.17477,-0.00004
2212.24604,-0.00004
2210.31732,-0.00000
2208.38860,0.00008
2206.45987,0.00011
2204.53115,0.00006
2202.60243,0.00000
2200.67370,-0.00005
2198.74498,-0.00007
2196.81625,-0.00003
2194.88753,0.00004
2192.95881,0.00008
2191.03008,0.00008
2189.10136,0.00006
2187.17264,0.00005
2185.24391,0.00004
2183.31519,0.00005
2181.38647,0.00005
2179.45774,0.00006
2177.52902,0.00010
2175.60029,0.00016
2173.67157,0.00018
2171.74285,0.00017
2169.81412,0.00019
2167.88540,0.00024
2165.95668,0.00027
2164.02795,0.00025
2162.09923,0.00025
2160.17050,0.00025
2158.24178,0.00025
2156.31306,0.00026
2154.38433,0.00027
2152.45561,0.00028
2150.52689,0.00030
2148.59816,0.00032
2146.66944,0.00035
2144.74072,0.00037
2142.81199,0.00039
2140.88327,0.00041
2138.95454,0.00044
2137.02582,0.00046
2135.09710,0.00044
2133.16837,0.00046
2131.23965,0.00046
2129.31093,0.00043
2127.38220,0.00041
2125.45348,0.00043
2123.52476,0.00047
2121.59603,0.00047
2119.66731,0.00047
2117.73858,0.00047
2115.80986,0.00040
2113.88114,0.00031
2111.95241,0.00027
2110.02369,0.00030
2108.09497,0.00037
2106.16624,0.00040
2104.23752,0.00036
2102.30880,0.00030
2100.38007,0.00019
2098.45135,0.00005
2096.52262,-0.00003
2094.59390,0.00000
2092.66518,0.00003
2090.73645,0.00001
2088.80773,-0.00005
2086.87901,-0.00011
2084.95028,-0.00017
2083.02156,-0.00018
2081.09283,-0.00016
2079.16411,-0.00010
2077.23539,0.00002
2075.30666,0.00009
2073.37794,0.00004
2071.44922,-0.00001
2069.52049,-0.00003
2067.59177,-0.00000
2065.66305,0.00003
2063.73432,0.00006
2061.80560,0.00011
2059.87687,0.00022
2057.94815,0.00035
2056.01943,0.00046
2054.09070,0.00055
2052.16198,0.00065
2050.23326,0.00072
2048.30453,0.00079
2046.37581,0.00086
2044.44709,0.00092
2042.51836,0.00100
2040.58964,0.00121
2038.66091,0.00153
2036.73219,0.00181
2034.80347,0.00198
2032.87474,0.00208
2030.94602,0.00225
2029.01730,0.00246
2027.08857,0.00263
2025.15985,0.00273
2023.23112,0.00276
2021.30240,0.00278
2019.37368,0.00287
2017.44495,0.00305
2015.51623,0.00328
2013.58751,0.00345
2011.65878,0.00353
2009.73006,0.00356
2007.80134,0.00361
2005.87261,0.00370
2003.94389,0.00380
2002.01516,0.00385
2000.08644,0.00385
1998.15772,0.00383
1996.22899,0.00386
1994.30027,0.00391
1992.37155,0.00390
1990.44282,0.00386
1988.51410,0.00381
1986.58538,0.00373
1984.65665,0.00361
1982.72793,0.00351
1980.79920,0.00343
1978.87048,0.00336
1976.94176,0.00327
1975.01303,0.00316
1973.08431,0.00304
1971.15559,0.00290
1969.22686,0.00269
1967.29814,0.00245
1965.36941,0.00224
1963.44069,0.00212
1961.51197,0.00200
1959.58324,0.00182
1957.65452,0.00162
1955.72580,0.00138
1953.79707,0.00116
1951.86835,0.00104
1949.93963,0.00096
1948.01090,0.00083
1946.08218,0.00064
1944.15345,0.00043
1942.22473,0.00030
1940.29601,0.00025
1938.36728,0.00020
1936.43856,0.00010
1934.50984,0.00001
1932.58111,-0.00006
1930.65239,-0.00012
1928.72367,-0.00010
1926.79494,0.00000
1924.86622,0.00010
1922.93749,0.00017
1921.00877,0.00029
1919.08005,0.00043
1917.15132,0.00062
1915.22260,0.00088
1913.29388,0.00119
1911.36515,0.00149
1909.43643,0.00181
1907.50770,0.00215
1905.57898,0.00253
1903.65026,0.00296
1901.72153,0.00346
1899.79281,0.00400
1897.86409,0.00451
1895.93536,0.00495
1894.00664,0.00537
1892.07792,0.00577
1890.14919,0.00613
1888.22047,0.00647
1886.29174,0.00685
1884.36302,0.00722
1882.43430,0.00749
1880.50557,0.00765
1878.57685,0.00774
1876.64813,0.00782
1874.71940,0.00788
1872.79068,0.00792
1870.86196,0.00792
1868.93323,0.00778
1867.00451,0.00751
1865.07578,0.00722
1863.14706,0.00688
1861.21834,0.00645
1859.28961,0.00596
1857.36089,0.00549
1855.43217,0.00503
1853.50344,0.00456
1851.57472,0.00406
1849.64599,0.00360
1847.71727,0.00319
1845.78855,0.00274
1843.85982,0.00223
1841.93110,0.00186
1840.00238,0.00167
1838.07365,0.00146
1836.14493,0.00117
1834.21621,0.00088
1832.28748,0.00062
1830.35876,0.00035
1828.43003,0.00012
1826.50131,0.00000
1824.57259,-0.00010
1822.64386,-0.00017
1820.71514,-0.00021
1818.78642,-0.00019
1816.85769,-0.00012
1814.92897,0.00000
1813.00025,-0.00009
1811.07152,-0.00022
1809.14280,-0.00035
1807.21407,-0.00035
1805.28535,-0.00022
1803.35663,-0.00001
1801.42790,0.00024
1799.49918,0.00054
1797.57046,0.00086
1795.64173,0.00118
1793.71301,0.00150
1791.78428,0.00179
1789.85556,0.00210
1787.92684,0.00254
1785.99811,0.00313
1784.06939,0.00380
1782.14067,0.00450
1780.21194,0.00525
1778.28322,0.00604
1776.35450,0.00683
1774.42577,0.00759
1772.49705,0.00831
1770.56832,0.00902
1768.63960,0.00976
1766.71088,0.01054
1764.78215,0.01130
1762.85343,0.01205
1760.92471,0.01283
1758.99598,0.01367
1757.06726,0.01455
1755.13854,0.01545
1753.20981,0.01638
1751.28109,0.01746
1749.35236,0.01870
1747.42364,0.01996
1745.49492,0.02119
1743.56619,0.02256
1741.63747,0.02412
1739.70875,0.02572
1737.78002,0.02717
1735.85130,0.02865
1733.92257,0.03050
1731.99385,0.03244
1730.06513,0.03410
1728.13640,0.03562
1726.20768,0.03718
1724.27896,0.03879
1722.35023,0.04031
1720.42151,0.04175
1718.49279,0.04342
1716.56406,0.04547
1714.63534,0.04755
1712.70661,0.04949
1710.77789,0.05135
1708.84917,0.05330
1706.92044,0.05557
1704.99172,0.05811
1703.06300,0.06058
1701.13427,0.06332
1699.20555,0.06667
1697.27683,0.07034
1695.34810,0.07413
1693.41938,0.07754
1691.49065,0.08052
1689.56193,0.08354
1687.63321,0.08664
1685.70448,0.09014
1683.77576,0.09442
1681.84704,0.09837
1679.91831,0.10140
1677.98959,0.10416
1676.06087,0.10723
1674.13214,0.11051
1672.20342,0.11354
1670.27469,0.11650
1668.34597,0.11958
1666.41725,0.12236
1664.48852,0.12498
1662.55980,0.12773
1660.63108,0.13021
1658.70235,0.13202
1656.77363,0.13337
1654.84490,0.13476
1652.91618,0.13651
1650.98746,0.13803
1649.05873,0.13899
1647.13001,0.13987
1645.20129,0.14090
1643.27256,0.14177
1641.34384,0.14233
1639.41512,0.14268
1637.48639,0.14294
1635.55767,0.14311
1633.62894,0.14310
1631.70022,0.14284
1629.77150,0.14220
1627.84277,0.14112
1625.91405,0.13974
1623.98533,0.13809
1622.05660,0.13628
1620.12788,0.13450
1618.19916,0.13235
1616.27043,0.12958
1614.34171,0.12695
1612.41298,0.12475
1610.48426,0.12253
1608.55554,0.12007
1606.62681,0.11752
1604.69809,0.11502
1602.76937,0.11257
1600.84064,0.11020
1598.91192,0.10790
1596.98319,0.10565
1595.05447,0.10344
1593.12575,0.10132
1591.19702,0.09935
1589.26830,0.09756
1587.33958,0.09589
1585.41085,0.09418
1583.48213,0.09241
1581.55341,0.09077
1579.62468,0.08932
1577.69596,0.08778
1575.76723,0.08606
1573.83851,0.08473
1571.90979,0.08383
1569.98106,0.08281
1568.05234,0.08162
1566.12362,0.08063
1564.19489,0.07989
1562.26617,0.07928
1560.33745,0.07832
1558.40872,0.07663
1556.48000,0.07513
1554.55127,0.07430
1552.62255,0.07366
1550.69383,0.07291
1548.76510,0.07207
1546.83638,0.07119
1544.90766,0.07009
1542.97893,0.06850
1541.05021,0.06632
1539.12148,0.06410
1537.19276,0.06267
1535.26404,0.06142
1533.33531,0.05967
1531.40659,0.05778
1529.47787,0.05607
1527.54914,0.05412
1525.62042,0.05183
1523.69170,0.04950
1521.76297,0.04718
1519.83425,0.04504
1517.90552,0.04314
1515.97680,0.04121
1514.04808,0.03928
1512.11935,0.03748
1510.19063,0.03563
1508.26191,0.03312
1506.33318,0.02970
1504.40446,0.02692
1502.47574,0.02520
1500.54701,0.02363
1498.61829,0.02165
1496.68956,0.01956
1494.76084,0.01797
1492.83212,0.01697
1490.90339,0.01605
1488.97467,0.01506
1487.04595,0.01439
1485.11722,0.01423
1483.18850,0.01446
1481.25977,0.01503
1479.33105,0.01581
1477.40233,0.01672
1475.47360,0.01801
1473.54488,0.02015
1471.61616,0.02296
1469.68743,0.02544
1467.75871,0.02726
1465.82999,0.02870
1463.90126,0.02982
1461.97254,0.03062
1460.04381,0.03122
1458.11509,0.03184
1456.18637,0.03253
1454.25764,0.03316
1452.32892,0.03362
1450.40020,0.03391
1448.47147,0.03415
1446.54275,0.03446
1444.61403,0.03490
1442.68530,0.03540
1440.75658,0.03585
1438.82785,0.03622
1436.89913,0.03661
1434.97041,0.03717
1433.04168,0.03782
1431.11296,0.03850
1429.18424,0.03922
1427.25551,0.03996
1425.32679,0.04064
1423.39806,0.04126
1421.46934,0.04189
1419.54062,0.04271
1417.61189,0.04375
1415.68317,0.04479
1413.75445,0.04572
1411.82572,0.04667
1409.89700,0.04776
1407.96828,0.04898
1406.03955,0.05014
1404.11083,0.05098
1402.18210,0.05129
1400.25338,0.05088
1398.32466,0.04960
1396.39593,0.04752
1394.46721,0.04506
1392.53849,0.04281
1390.60976,0.04099
1388.68104,0.03941
1386.75232,0.03800
1384.82359,0.03671
1382.89487,0.03535
1380.96614,0.03390
1379.03742,0.03249
1377.10870,0.03111
1375.17997,0.02961
1373.25125,0.02811
1371.32253,0.02684
1369.39380,0.02572
1367.46508,0.02453
1365.53635,0.02323
1363.60763,0.02186
1361.67891,0.02060
1359.75018,0.01958
1357.82146,0.01865
1355.89274,0.01775
1353.96401,0.01696
1352.03529,0.01632
1350.10657,0.01574
1348.17784,0.01516
1346.24912,0.01461
1344.32039,0.01418
1342.39167,0.01382
1340.46295,0.01341
1338.53422,0.01293
1336.60550,0.01254
1334.67678,0.01231
1332.74805,0.01221
1330.81933,0.01214
1328.89061,0.01200
1326.96188,0.01180
1325.03316,0.01167
1323.10443,0.01168
1321.17571,0.01178
1319.24699,0.01184
1317.31826,0.01181
1315.38954,0.01182
1313.46082,0.01203
1311.53209,0.01228
1309.60337,0.01244
1307.67464,0.01265
1305.74592,0.01312
1303.81720,0.01381
1301.88847,0.01468
1299.95975,0.01565
1298.03103,0.01665
1296.10230,0.01766
1294.17358,0.01881
1292.24486,0.02021
1290.31613,0.02186
1288.38741,0.02371
1286.45868,0.02571
1284.52996,0.02791
1282.60124,0.03030
1280.67251,0.03285
1278.74379,0.03573
1276.81507,0.03905
1274.88634,0.04277
1272.95762,0.04685
1271.02890,0.05140
1269.10017,0.05644
1267.17145,0.06201
1265.24272,0.06827
1263.31400,0.07536
1261.38528,0.08335
1259.45655,0.09220
1257.52783,0.10182
1255.59911,0.11206
1253.67038,0.12264
1251.74166,0.13322
1249.81294,0.14352
1247.88421,0.15328
1245.95549,0.16246
1244.02676,0.17107
1242.09804,0.17897
1240.16932,0.18608
1238.24059,0.19236
1236.31187,0.19803
1234.38315,0.20337
1232.45442,0.20825
1230.52570,0.21249
1228.59697,0.21624
1226.66825,0.21962
1224.73953,0.22268
1222.81080,0.22553
1220.88208,0.22838
1218.95336,0.23121
1217.02463,0.23384
1215.09591,0.23613
1213.16719,0.23816
1211.23846,0.24023
1209.30974,0.24250
1207.38101,0.24475
1205.45229,0.24690
1203.52357,0.24905
1201.59484,0.25118
1199.66612,0.25318
1197.73740,0.25505
1195.80867,0.25694
1193.87995,0.25890
1191.95123,0.26091
1190.02250,0.26290
1188.09378,0.26485
1186.16505,0.26674
1184.23633,0.26842
1182.30761,0.27002
1180.37888,0.27204
1178.45016,0.27434
1176.52144,0.27644
1174.59271,0.27831
1172.66399,0.28012
1170.73526,0.28191
1168.80654,0.28360
1166.87782,0.28519
1164.94909,0.28679
1163.02037,0.28859
1161.09165,0.29048
1159.16292,0.29218
1157.23420,0.29368
1155.30548,0.29503
1153.37675,0.29636
1151.44803,0.29788
1149.51930,0.29955
1147.59058,0.30146
1145.66186,0.30359
1143.73313,0.30552
1141.80441,0.30721
1139.87569,0.30911
1137.94696,0.31136
1136.01824,0.31377
1134.08952,0.31640
1132.16079,0.31902
1130.23207,0.32137
1128.30334,0.32389
1126.37462,0.32704
1124.44590,0.33067
1122.51717,0.33472
1120.58845,0.33920
1118.65973,0.34358
1116.73100,0.34785
1114.80228,0.35291
1112.87355,0.35906
1110.94483,0.36602
1109.01611,0.37352
1107.08738,0.38084
1105.15866,0.38701
1103.22994,0.39177
1101.30121,0.39593
1099.37249,0.40028
1097.44377,0.40398
1095.51504,0.40622
1093.58632,0.40766
1091.65759,0.40865
1089.72887,0.40912
1087.80015,0.40905
1085.87142,0.40815
1083.94270,0.40655
1082.01398,0.40484
1080.08525,0.40311
1078.15653,0.40111
1076.22781,0.39845
1074.29908,0.39501
1072.37036,0.39146
1070.44163,0.38814
1068.51291,0.38438
1066.58419,0.37987
1064.65546,0.37500
1062.72674,0.37016
1060.79802,0.36532
1058.86929,0.36016
1056.94057,0.35441
1055.01184,0.34838
1053.08312,0.34231
1051.15440,0.33604
1049.22567,0.32950
1047.29695,0.32281
1045.36823,0.31617
1043.43950,0.30944
1041.51078,0.30235
1039.58206,0.29505
1037.65333,0.28779
1035.72461,0.28073
1033.79588,0.27395
1031.86716,0.26736
1029.93844,0.26081
1028.00971,0.25441
1026.08099,0.24818
1024.15227,0.24213
1022.22354,0.23652
1020.29482,0.23102
1018.36610,0.22553
1016.43737,0.22047
1014.50865,0.21586
1012.57992,0.21157
1010.65120,0.20757
1008.72248,0.20376
1006.79375,0.19997
1004.86503,0.19618
1002.93631,0.19253
1001.00758,0.18906
999.07886,0.18579
997.15013,0.18277
995.22141,0.17989
993.29269,0.17690
991.36396,0.17383
989.43524,0.17110
987.50652,0.16893
985.57779,0.16713
983.64907,0.16532
981.72035,0.16345
979.79162,0.16177
977.86290,0.16053
975.93417,0.15968
974.00545,0.15883
972.07673,0.15795
970.14800,0.15732
968.21928,0.15694
966.29056,0.15660
964.36183,0.15627
962.43311,0.15593
960.50439,0.15539
958.57566,0.15465
956.64694,0.15387
954.71821,0.15300
952.78949,0.15177
950.86077,0.15014
948.93204,0.14858
947.00332,0.14710
945.07460,0.14530
943.14587,0.14331
941.21715,0.14139
939.28842,0.13932
937.35970,0.13695
935.43098,0.13432
933.50225,0.13149
931.57353,0.12855
929.64481,0.12552
927.71608,0.12247
925.78736,0.11944
923.85864,0.11610
921.92991,0.11234
920.00119,0.10859
918.07246,0.10520
916.14374,0.10184
914.21502,0.09814
912.28629,0.09426
910.35757,0.09040
908.42885,0.08659
906.50012,0.08296
904.57140,0.07931
902.64268,0.07543
900.71395,0.07167
898.78523,0.06825
896.85650,0.06491
894.92778,0.06160
892.99906,0.05860
891.07033,0.05578
889.14161,0.05279
887.21289,0.04971
885.28416,0.04682
883.35544,0.04417
881.42671,0.04171
879.49799,0.03957
877.56927,0.03757
875.64054,0.03548
873.71182,0.03352
871.78310,0.03187
869.85437,0.03031
867.92565,0.02863
865.99693,0.02684
864.06820,0.02506
862.13948,0.02345
860.21075,0.02217
858.28203,0.02115
856.35331,0.02019
854.42458,0.01922
852.49586,0.01857
850.56714,0.01855
848.63841,0.01880
846.70969,0.01908
844.78097,0.01981
842.85224,0.02131
840.92352,0.02329
838.99479,0.02533
837.06607,0.02746
835.13735,0.03009
833.20862,0.03318
831.27990,0.03636
829.35118,0.03961
827.42245,0.04289
825.49373,0.04587
823.56501,0.04857
821.63628,0.05132
819.70756,0.05444
817.77883,0.05788
815.85011,0.06104
813.92139,0.06350
811.99266,0.06573
810.06394,0.06814
808.13522,0.07044
806.20649,0.07242
804.27777,0.07448
802.34904,0.07648
800.42032,0.07777
798.49160,0.07813
796.56287,0.07772
794.63415,0.07701
792.70543,0.07623
790.77670,0.07477
788.84798,0.07242
786.91926,0.06972
784.99053,0.06693
783.06181,0.06429
781.13308,0.06191
779.20436,0.05931
777.27564,0.05601
775.34691,0.05190
773.41819,0.04759
771.48947,0.04415
769.56074,0.04184
767.63202,0.04000
765.70330,0.03850
763.77457,0.03767
761.84585,0.03732
759.91712,0.03709
757.98840,0.03681
756.05968,0.03630
754.13095,0.03572
752.20223,0.03550
750.27351,0.03542
748.34478,0.03507
746.41606,0.03457
744.48733,0.03424
742.55861,0.03423
740.62989,0.03446
738.70116,0.03458
736.77244,0.03425
734.84372,0.03385
732.91499,0.03401
730.98627,0.03454
729.05755,0.03492
727.12882,0.03513
725.20010,0.03549
723.27137,0.03599
721.34265,0.03619
719.41393,0.03627
717.48520,0.03671
715.55648,0.03747
713.62776,0.03807
711.69903,0.03836
709.77031,0.03886
707.84159,0.03995
705.91286,0.04125
703.98414,0.04247
702.05541,0.04366
700.12669,0.04480
698.19797,0.04569
696.26924,0.04616
694.34052,0.04622
692.41180,0.04620
690.48307,0.04630
688.55435,0.04638
686.62562,0.04650
684.69690,0.04684
682.76818,0.04726
680.83945,0.04760
678.91073,0.04791
676.98201,0.04815
675.05328,0.04840
673.12456,0.04884
671.19584,0.04874
669.26711,0.04772
667.33839,0.04767
665.40966,0.04907
663.48094,0.05005
661.55222,0.05079
659.62349,0.05225
657.69477,0.05369
655.76605,0.05431
653.83732,0.05465
651.90860,0.05573
649.97988,0.05764
648.05115,0.05953
646.12243,0.06081
644.19370,0.06185
642.26498,0.06313
640.33626,0.06441
638.40753,0.06563
636.47881,0.06703
634.55009,0.06839
632.62136,0.06929
630.69264,0.06969
628.76391,0.06974
626.83519,0.06961
624.90647,0.06976
622.97774,0.07068
621.04902,0.07207
619.12030,0.07342
617.19157,0.07446
615.26285,0.07520
613.33413,0.07613
611.40540,0.07729
609.47668,0.07811
607.54795,0.07863
605.61923,0.07955
603.69051,0.08126
601.76178,0.08372
599.83306,0.08664
597.90434,0.08903
595.97561,0.08992
594.04689,0.08962
592.11817,0.08952
590.18944,0.09066
588.26072,0.09246
586.33199,0.09364
584.40327,0.09429
582.47455,0.09527
580.54582,0.09625
578.61710,0.09661
576.68838,0.09672
574.75965,0.09725
572.83093,0.09845
570.90220,0.09983
568.97348,0.10064
567.04476,0.10080
565.11603,0.10073
563.18731,0.10088
561.25859,0.10134
559.32986,0.10174
557.40114,0.10176
555.47242,0.10179
553.54369,0.10264
551.61497,0.10415
549.68624,0.10516
547.75752,0.10526
545.82880,0.10510
543.90007,0.10504
541.97135,0.10500
540.04263,0.10518
538.11390,0.10567
536.18518,0.10605
534.25646,0.10628
532.32773,0.10630
530.39901,0.10553
528.47028,0.10442
526.54156,0.10443
524.61284,0.10513
522.68411,0.10480
520.75539,0.10353
518.82667,0.10275
516.89794,0.10341
514.96922,0.10497
513.04049,0.10667
511.11177,0.10927
509.18305,0.11345
507.25432,0.11836
505.32560,0.12282
503.39688,0.12656
501.46815,0.13063
499.53943,0.13645
497.61071,0.14376
495.68198,0.15063
493.75326,0.15591
491.82453,0.16079
489.89581,0.16652
487.96709,0.17267
486.03836,0.17945
484.10964,0.18748
482.18092,0.19493
480.25219,0.20073
478.32347,0.20705
476.39475,0.21454
474.46602,0.22124
472.53730,0.22666
470.60857,0.23066
468.67985,0.23191
466.75113,0.23099
464.82240,0.23042
462.89368,0.23125
460.96496,0.23126
459.03623,0.22737
457.10751,0.22048
455.17878,0.21498
453.25006,0.21168
451.32134,0.20825
449.39261,0.20520
447.46389,0.20360
445.53517,0.19990
443.60644,0.19142
441.67772,0.18202
439.74900,0.17526
437.82027,0.16957
435.89155,0.16369
433.96282,0.15823
432.03410,0.15168
430.10538,0.14404
428.17665,0.13860
426.24793,0.13422
424.31921,0.12666
422.39048,0.11792
420.46176,0.11339
418.53304,0.11198
416.60431,0.10835
414.67559,0.10124
412.74686,0.09217
410.81814,0.08484
408.88942,0.08354
406.96069,0.08719
405.03197,0.08802
403.10325,0.08125
401.17452,0.07464
399.24580,0.07724
397.31708,0.08169
395.38835,0.07540
393.45963,0.06273
391.53090,0.05111
389.60218,0.04224
387.67346,0.03597
385.74473,0.02801
383.81601,0.01756
381.88729,0.02018
379.95856,0.05002
378.02984,0.09342
376.10111,0.10388
374.17239,0.05382
372.24367,0.00299
370.31494,0.00000
368.38622,0.00000
