3996.31543,0.00000
3994.38671,0.00011
3992.45799,0.00015
3990.52926,0.00006
3988.60054,0.00007
3986.67182,0.00021
3984.74309,0.00030
3982.81437,0.00034
3980.88564,0.00046
3978.95692,0.00060
3977.02820,0.00066
3975.09947,0.00078
3973.17075,0.00097
3971.24203,0.00108
3969.31330,0.00111
3967.38458,0.00116
3965.45586,0.00116
3963.52713,0.00100
3961.59841,0.00092
3959.66968,0.00104
3957.74096,0.00114
3955.81224,0.00120
3953.88351,0.00133
3951.95479,0.00143
3950.02607,0.00139
3948.09734,0.00143
3946.16862,0.00150
3944.23990,0.00122
3942.31117,0.00106
3940.38245,0.00133
3938.45372,0.00144
3936.52500,0.00138
3934.59628,0.00113
3932.66755,0.00091
3930.73883,0.00119
3928.81011,0.00163
3926.88138,0.00145
3924.95266,0.00109
3923.02393,0.00128
3921.09521,0.00139
3919.16649,0.00106
3917.23776,0.00097
3915.30904,0.00139
3913.38032,0.00164
3911.45159,0.00153
3909.52287,0.00152
3907.59415,0.00136
3905.66542,0.00085
3903.73670,0.00081
3901.80797,0.00130
3899.87925,0.00158
3897.95053,0.00214
3896.02180,0.00259
3894.09308,0.00196
3892.16436,0.00117
3890.23563,0.00174
3888.30691,0.00216
3886.37819,0.00143
3884.44946,0.00161
3882.52074,0.00198
3880.59201,0.00181
3878.66329,0.00258
3876.73457,0.00295
3874.80584,0.00240
3872.87712,0.00212
3870.94840,0.00168
3869.01967,0.00190
3867.09095,0.00235
3865.16222,0.00168
3863.23350,0.00156
3861.30478,0.00244
3859.37605,0.00318
3857.44733,0.00294
3855.51861,0.00121
3853.58988,0.00000
3851.66116,0.00181
3849.73244,0.00342
3847.80371,0.00326
3845.87499,0.00245
3843.94626,0.00210
3842.01754,0.00238
3840.08882,0.00243
3838.16009,0.00259
3836.23137,0.00337
3834.30265,0.00353
3832.37392,0.00286
3830.44520,0.00259
3828.51648,0.00252
3826.58775,0.00258
3824.65903,0.00290
3822.73030,0.00238
3820.80158,0.00255
3818.87286,0.00375
3816.94413,0.00312
3815.01541,0.00268
3813.08669,0.00357
3811.15796,0.00384
3809.22924,0.00320
3807.30052,0.00305
3805.37179,0.00428
3803.44307,0.00434
3801.51434,0.00357
3799.58562,0.00440
3797.65690,0.00474
3795.72817,0.00454
3793.79945,0.00479
3791.87073,0.00489
3789.94200,0.00497
3788.01328,0.00517
3786.08455,0.00540
3784.15583,0.00597
3782.22711,0.00631
3780.29838,0.00588
3778.36966,0.00608
3776.44094,0.00703
3774.51221,0.00760
3772.58349,0.00752
3770.65477,0.00728
3768.72604,0.00780
3766.79732,0.00836
3764.86859,0.00880
3762.93987,0.00934
3761.01115,0.00924
3759.08242,0.00945
3757.15370,0.01073
3755.22498,0.01158
3753.29625,0.01108
3751.36753,0.01105
3749.43881,0.01314
3747.51008,0.01447
3745.58136,0.01329
3743.65263,0.01366
3741.72391,0.01618
3739.79519,0.01738
3737.86646,0.01706
3735.93774,0.01712
3734.00902,0.01885
3732.08029,0.02121
3730.15157,0.02304
3728.22284,0.02385
3726.29412,0.02459
3724.36540,0.02633
3722.43667,0.02854
3720.50795,0.03103
3718.57923,0.03390
3716.65050,0.03680
3714.72178,0.03899
3712.79306,0.04093
3710.86433,0.04451
3708.93561,0.04921
3707.00688,0.05311
3705.07816,0.05601
3703.14944,0.05889
3701.22071,0.06297
3699.29199,0.06765
3697.36327,0.07146
3695.43454,0.07478
3693.50582,0.07787
3691.57710,0.08070
3689.64837,0.08460
3687.71965,0.09026
3685.79092,0.09557
3683.86220,0.09934
3681.93348,0.10284
3680.00475,0.10684
3678.07603,0.11085
3676.14731,0.11547
3674.21858,0.12206
3672.28986,0.12686
3670.36113,0.12941
3668.43241,0.13384
3666.50369,0.13857
3664.57496,0.14173
3662.64624,0.14460
3660.71752,0.14771
3658.78879,0.15036
3656.86007,0.15319
3654.93135,0.15743
3653.00262,0.16079
3651.07390,0.16206
3649.14517,0.16440
3647.21645,0.16856
3645.28773,0.17193
3643.35900,0.17359
3641.43028,0.17487
3639.50156,0.17674
3637.57283,0.17889
3635.64411,0.18101
3633.71539,0.18319
3631.78666,0.18474
3629.85794,0.18531
3627.92921,0.18761
3626.00049,0.19122
3624.07177,0.19333
3622.14304,0.19386
3620.21432,0.19395
3618.28560,0.19495
3616.35687,0.19628
3614.42815,0.19675
3612.49942,0.19739
3610.57070,0.19844
3608.64198,0.19926
3606.71325,0.20054
3604.78453,0.20192
3602.85581,0.20252
3600.92708,0.20293
3598.99836,0.20369
3597.06964,0.20430
3595.14091,0.20480
3593.21219,0.20593
3591.28346,0.20710
3589.35474,0.20739
3587.42602,0.20806
3585.49729,0.21007
3583.56857,0.21154
3581.63985,0.21193
3579.71112,0.21231
3577.78240,0.21304
3575.85368,0.21390
3573.92495,0.21503
3571.99623,0.21630
3570.06750,0.21678
3568.13878,0.21660
3566.21006,0.21740
3564.28133,0.21909
3562.35261,0.22008
3560.42389,0.22054
3558.49516,0.22108
3556.56644,0.22162
3554.63771,0.22207
3552.70899,0.22283
3550.78027,0.22396
3548.85154,0.22465
3546.92282,0.22485
3544.99410,0.22545
3543.06537,0.22645
3541.13665,0.22714
3539.20793,0.22739
3537.27920,0.22761
3535.35048,0.22831
3533.42175,0.22932
3531.49303,0.23008
3529.56431,0.23053
3527.63558,0.23098
3525.70686,0.23150
3523.77814,0.23205
3521.84941,0.23275
3519.92069,0.23337
3517.99197,0.23377
3516.06324,0.23418
3514.13452,0.23469
3512.20579,0.23520
3510.27707,0.23574
3508.34835,0.23650
3506.41962,0.23720
3504.49090,0.23753
3502.56218,0.23816
3500.63345,0.23924
3498.70473,0.23996
3496.77600,0.24030
3494.84728,0.24089
3492.91856,0.24161
3490.98983,0.24202
3489.06111,0.24219
3487.13239,0.24252
3485.20366,0.24301
3483.27494,0.24332
3481.34622,0.24375
3479.41749,0.24457
3477.48877,0.24532
3475.56004,0.24570
3473.63132,0.24597
3471.70260,0.24636
3469.77387,0.24688
3467.84515,0.24742
3465.91643,0.24793
3463.98770,0.24838
3462.05898,0.24870
3460.13026,0.24882
3458.20153,0.24882
3456.27281,0.24899
3454.34408,0.24935
3452.41536,0.24990
3450.48664,0.25052
3448.55791,0.25076
3446.62919,0.25089
3444.70047,0.25133
3442.77174,0.25179
3440.84302,0.25220
3438.91429,0.25250
3436.98557,0.25278
3435.05685,0.25313
3433.12812,0.25331
3431.19940,0.25336
3429.27068,0.25351
3427.34195,0.25367
3425.41323,0.25376
3423.48451,0.25389
3421.55578,0.25416
3419.62706,0.25450
3417.69833,0.25466
3415.76961,0.25460
3413.84089,0.25455
3411.91216,0.25452
3409.98344,0.25451
3408.05472,0.25452
3406.12599,0.25457
3404.19727,0.25460
3402.26855,0.25455
3400.33982,0.25441
3398.41110,0.25414
3396.48237,0.25403
3394.55365,0.25391
3392.62493,0.25363
3390.69620,0.25349
3388.76748,0.25353
3386.83876,0.25352
3384.91003,0.25335
3382.98131,0.25313
3381.05259,0.25282
3379.12386,0.25238
3377.19514,0.25204
3375.26641,0.25180
3373.33769,0.25150
3371.40897,0.25110
3369.48024,0.25065
3367.55152,0.25014
3365.62280,0.24973
3363.69407,0.24956
3361.76535,0.24945
3359.83662,0.24913
3357.90790,0.24859
3355.97918,0.24799
3354.05045,0.24755
3352.12173,0.24737
3350.19301,0.24723
3348.26428,0.24683
3346.33556,0.24627
3344.40684,0.24585
3342.47811,0.24546
3340.54939,0.24486
3338.62066,0.24406
3336.69194,0.24328
3334.76322,0.24281
3332.83449,0.24263
3330.90577,0.24247
3328.97705,0.24212
3327.04832,0.24148
3325.11960,0.24070
3323.19088,0.24008
3321.26215,0.23964
3319.33343,0.23934
3317.40470,0.23918
3315.47598,0.23888
3313.54726,0.23830
3311.61853,0.23773
3309.68981,0.23731
3307.76109,0.23702
3305.83236,0.23671
3303.90364,0.23624
3301.97491,0.23573
3300.04619,0.23530
3298.11747,0.23486
3296.18874,0.23427
3294.26002,0.23366
3292.33130,0.23323
3290.40257,0.23299
3288.47385,0.23279
3286.54513,0.23255
3284.61640,0.23221
3282.68768,0.23165
3280.75895,0.23096
3278.83023,0.23035
3276.90151,0.22985
3274.97278,0.22952
3273.04406,0.22937
3271.11534,0.22915
3269.18661,0.22871
3267.25789,0.22829
3265.32917,0.22798
3263.40044,0.22759
3261.47172,0.22710
3259.54299,0.22658
3257.61427,0.22596
3255.68555,0.22532
3253.75682,0.22493
3251.82810,0.22475
3249.89938,0.22456
3247.97065,0.22421
3246.04193,0.22369
3244.11320,0.22318
3242.18448,0.22269
3240.25576,0.22204
3238.32703,0.22135
3236.39831,0.22089
3234.46959,0.22053
3232.54086,0.22002
3230.61214,0.21942
3228.68342,0.21879
3226.75469,0.21814
3224.82597,0.21751
3222.89724,0.21689
3220.96852,0.21620
3219.03980,0.21552
3217.11107,0.21494
3215.18235,0.21440
3213.25363,0.21387
3211.32490,0.21319
3209.39618,0.21235
3207.46746,0.21160
3205.53873,0.21094
3203.61001,0.21021
3201.68128,0.20939
3199.75256,0.20859
3197.82384,0.20788
3195.89511,0.20721
3193.96639,0.20649
3192.03767,0.20571
3190.10894,0.20486
3188.18022,0.20398
3186.25149,0.20327
3184.32277,0.20279
3182.39405,0.20229
3180.46532,0.20152
3178.53660,0.20055
3176.60788,0.19963
3174.67915,0.19882
3172.75043,0.19806
3170.82171,0.19727
3168.89298,0.19645
3166.96426,0.19563
3165.03553,0.19475
3163.10681,0.19383
3161.17809,0.19301
3159.24936,0.19229
3157.32064,0.19157
3155.39192,0.19073
3153.46319,0.18975
3151.53447,0.18883
3149.60575,0.18811
3147.67702,0.18748
3145.74830,0.18664
3143.81957,0.18562
3141.89085,0.18464
3139.96213,0.18383
3138.03340,0.18316
3136.10468,0.18241
3134.17596,0.18146
3132.24723,0.18059
3130.31851,0.17992
3128.38978,0.17927
3126.46106,0.17861
3124.53234,0.17788
3122.60361,0.17707
3120.67489,0.17629
3118.74617,0.17556
3116.81744,0.17483
3114.88872,0.17407
3112.96000,0.17324
3111.03127,0.17236
3109.10255,0.17148
3107.17382,0.17061
3105.24510,0.16973
3103.31638,0.16882
3101.38765,0.16799
3099.45893,0.16737
3097.53021,0.16670
3095.60148,0.16583
3093.67276,0.16490
3091.74404,0.16399
3089.81531,0.16317
3087.88659,0.16241
3085.95786,0.16160
3084.02914,0.16074
3082.10042,0.15992
3080.17169,0.15915
3078.24297,0.15840
3076.31425,0.15765
3074.38552,0.15683
3072.45680,0.15586
3070.52807,0.15483
3068.59935,0.15390
3066.67063,0.15302
3064.74190,0.15218
3062.81318,0.15144
3060.88446,0.15083
3058.95573,0.15017
3057.02701,0.14937
3055.09829,0.14854
3053.16956,0.14771
3051.24084,0.14675
3049.31211,0.14575
3047.38339,0.14494
3045.45467,0.14426
3043.52594,0.14355
3041.59722,0.14273
3039.66850,0.14184
3037.73977,0.14102
3035.81105,0.14027
3033.88233,0.13940
3031.95360,0.13842
3030.02488,0.13755
3028.09615,0.13678
3026.16743,0.13602
3024.23871,0.13536
3022.30998,0.13470
3020.38126,0.13390
3018.45254,0.13308
3016.52381,0.13237
3014.59509,0.13172
3012.66636,0.13100
3010.73764,0.13018
3008.80892,0.12943
3006.88019,0.12881
3004.95147,0.12817
3003.02275,0.12735
3001.09402,0.12650
2999.16530,0.12581
2997.23658,0.12522
2995.30785,0.12469
2993.37913,0.12420
2991.45040,0.12365
2989.52168,0.12296
2987.59296,0.12231
2985.66423,0.12182
2983.73551,0.12139
2981.80679,0.12099
2979.87806,0.12061
2977.94934,0.12020
2976.02062,0.11980
2974.09189,0.11949
2972.16317,0.11921
2970.23444,0.11894
2968.30572,0.11872
2966.37700,0.11849
2964.44827,0.11824
2962.51955,0.11797
2960.59083,0.11760
2958.66210,0.11713
2956.73338,0.11658
2954.80466,0.11601
2952.87593,0.11548
2950.94721,0.11490
2949.01848,0.11424
2947.08976,0.11362
2945.16104,0.11312
2943.23231,0.11275
2941.30359,0.11256
2939.37487,0.11251
2937.44614,0.11249
2935.51742,0.11247
2933.58869,0.11245
2931.65997,0.11240
2929.73125,0.11223
2927.80252,0.11184
2925.87380,0.11119
2923.94508,0.11021
2922.01635,0.10883
2920.08763,0.10719
2918.15891,0.10562
2916.23018,0.10433
2914.30146,0.10325
2912.37273,0.10216
2910.44401,0.10099
2908.51529,0.09977
2906.58656,0.09856
2904.65784,0.09748
2902.72912,0.09654
2900.80039,0.09561
2898.87167,0.09460
2896.94295,0.09362
2895.01422,0.09265
2893.08550,0.09166
2891.15677,0.09075
2889.22805,0.08994
2887.29933,0.08911
2885.37060,0.08828
2883.44188,0.08755
2881.51316,0.08691
2879.58443,0.08627
2877.65571,0.08564
2875.72698,0.08507
2873.79826,0.08454
2871.86954,0.08404
2869.94081,0.08353
2868.01209,0.08292
2866.08337,0.08221
2864.15464,0.08160
2862.22592,0.08124
2860.29720,0.08105
2858.36847,0.08088
2856.43975,0.08071
2854.51102,0.08040
2852.58230,0.07977
2850.65358,0.07873
2848.72485,0.07735
2846.79613,0.07576
2844.86741,0.07413
2842.93868,0.07259
2841.00996,0.07122
2839.08124,0.06999
2837.15251,0.06874
2835.22379,0.06755
2833.29506,0.06658
2831.36634,0.06575
2829.43762,0.06492
2827.50889,0.06413
2825.58017,0.06342
2823.65145,0.06275
2821.72272,0.06207
2819.79400,0.06133
2817.86527,0.06057
2815.93655,0.05988
2814.00783,0.05925
2812.07910,0.05859
2810.15038,0.05793
2808.22166,0.05726
2806.29293,0.05658
2804.36421,0.05593
2802.43549,0.05531
2800.50676,0.05477
2798.57804,0.05424
2796.64931,0.05365
2794.72059,0.05305
2792.79187,0.05245
2790.86314,0.05184
2788.93442,0.05127
2787.00570,0.05068
2785.07697,0.05000
2783.14825,0.04929
2781.21953,0.04867
2779.29080,0.04815
2777.36208,0.04765
2775.43335,0.04708
2773.50463,0.04647
2771.57591,0.04595
2769.64718,0.04550
2767.71846,0.04499
2765.78974,0.04445
2763.86101,0.04394
2761.93229,0.04345
2760.00356,0.04298
2758.07484,0.04243
2756.14612,0.04187
2754.21739,0.04138
2752.28867,0.04088
2750.35995,0.04035
2748.43122,0.03992
2746.50250,0.03953
2744.57378,0.03909
2742.64505,0.03865
2740.71633,0.03818
2738.78760,0.03763
2736.85888,0.03710
2734.93016,0.03663
2733.00143,0.03615
2731.07271,0.03567
2729.14399,0.03524
2727.21526,0.03482
2725.28654,0.03438
2723.35782,0.03391
2721.42909,0.03345
2719.50037,0.03299
2717.57164,0.03250
2715.64292,0.03199
2713.71420,0.03154
2711.78547,0.03113
2709.85675,0.03070
2707.92803,0.03023
2705.99930,0.02972
2704.07058,0.02928
2702.14185,0.02893
2700.21313,0.02855
2698.28441,0.02804
2696.35568,0.02755
2694.42696,0.02719
2692.49824,0.02682
2690.56951,0.02638
2688.64079,0.02596
2686.71207,0.02555
2684.78334,0.02518
2682.85462,0.02488
2680.92589,0.02458
2678.99717,0.02418
2677.06845,0.02367
2675.13972,0.02324
2673.21100,0.02290
2671.28228,0.02253
2669.35355,0.02210
2667.42483,0.02168
2665.49611,0.02131
2663.56738,0.02093
2661.63866,0.02057
2659.70993,0.02023
2657.78121,0.01986
2655.85249,0.01947
2653.92376,0.01910
2651.99504,0.01877
2650.06632,0.01844
2648.13759,0.01808
2646.20887,0.01766
2644.28014,0.01726
2642.35142,0.01692
2640.42270,0.01661
2638.49397,0.01633
2636.56525,0.01603
2634.63653,0.01569
2632.70780,0.01534
2630.77908,0.01501
2628.85036,0.01469
2626.92163,0.01439
2624.99291,0.01412
2623.06418,0.01383
2621.13546,0.01353
2619.20674,0.01322
2617.27801,0.01293
2615.34929,0.01265
2613.42057,0.01236
2611.49184,0.01206
2609.56312,0.01180
2607.63440,0.01158
2605.70567,0.01138
2603.77695,0.01116
2601.84822,0.01090
2599.91950,0.01062
2597.99078,0.01035
2596.06205,0.01009
2594.13333,0.00982
2592.20461,0.00952
2590.27588,0.00917
2588.34716,0.00884
2586.41843,0.00859
2584.48971,0.00840
2582.56099,0.00823
2580.63226,0.00800
2578.70354,0.00774
2576.77482,0.00751
2574.84609,0.00734
2572.91737,0.00716
2570.98865,0.00697
2569.05992,0.00682
2567.13120,0.00672
2565.20247,0.00659
2563.27375,0.00636
2561.34503,0.00606
2559.41630,0.00576
2557.48758,0.00550
2555.55886,0.00529
2553.63013,0.00508
2551.70141,0.00492
2549.77269,0.00480
2547.84396,0.00466
2545.91524,0.00449
2543.98651,0.00433
2542.05779,0.00418
2540.12907,0.00403
2538.20034,0.00381
2536.27162,0.00352
2534.34290,0.00329
2532.41417,0.00320
2530.48545,0.00321
2528.55673,0.00321
2526.62800,0.00307
2524.69928,0.00281
2522.77055,0.00257
2520.84183,0.00243
2518.91311,0.00235
2516.98438,0.00225
2515.05566,0.00213
2513.12694,0.00204
2511.19821,0.00198
2509.26949,0.00190
2507.34076,0.00180
2505.41204,0.00172
2503.48332,0.00164
2501.55459,0.00151
2499.62587,0.00137
2497.69715,0.00130
2495.76842,0.00131
2493.83970,0.00123
2491.91098,0.00109
2489.98225,0.00101
2488.05353,0.00096
2486.12480,0.00090
2484.19608,0.00084
2482.26736,0.00080
2480.33863,0.00077
2478.40991,0.00069
2476.48119,0.00060
2474.55246,0.00054
2472.62374,0.00051
2470.69502,0.00049
2468.76629,0.00048
2466.83757,0.00041
2464.90884,0.00032
2462.98012,0.00031
2461.05140,0.00032
2459.12267,0.00027
2457.19395,0.00020
2455.26523,0.00018
2453.33650,0.00014
2451.40778,0.00006
2449.47905,0.00000
2447.55033,-0.00001
2445.62161,0.00001
2443.69288,0.00004
2441.76416,0.00002
2439.83544,-0.00002
2437.90671,-0.00004
2435.97799,-0.00006
2434.04927,-0.00007
2432.12054,-0.00004
2430.19182,0.00000
2428.26309,-0.00003
2426.33437,-0.00006
2424.40565,-0.00006
2422.47692,-0.00007
2420.54820,-0.00011
2418.61948,-0.00016
2416.69075,-0.00017
2414.76203,-0.00008
2412.83331,0.00001
2410.90458,-0.00002
2408.97586,-0.00018
2407.04713,-0.00030
2405.11841,-0.00031
2403.18969,-0.00026
2401.26096,-0.00021
2399.33224,-0.00016
2397.40352,-0.00010
2395.47479,-0.00007
2393.54607,-0.00006
2391.61734,-0.00006
2389.68862,-0.00002
2387.75990,0.00006
2385.83117,0.00011
2383.90245,0.00009
2381.97373,0.00005
2380.04500,0.00004
2378.11628,0.00006
2376.18756,0.00005
2374.25883,0.00000
2372.33011,-0.00005
2370.40138,-0.00005
2368.47266,-0.00005
2366.54394,-0.00008
2364.61521,-0.00013
2362.68649,-0.00005
2360.75777,0.00017
2358.82904,0.00026
2356.90032,0.00015
2354.97160,0.00019
2353.04287,0.00065
2351.11415,0.00130
2349.18542,0.00147
2347.25670,0.00096
2345.32798,0.00040
2343.39925,0.00040
2341.47053,0.00071
2339.54181,0.00092
2337.61308,0.00092
2335.68436,0.00085
2333.75563,0.00080
2331.82691,0.00074
2329.89819,0.00070
2327.96946,0.00079
2326.04074,0.00097
2324.11202,0.00109
2322.18329,0.00111
2320.25457,0.00113
2318.32585,0.00122
2316.39712,0.00131
2314.46840,0.00129
2312.53967,0.00119
2310.61095,0.00110
2308.68223,0.00108
2306.75350,0.00113
2304.82478,0.00122
2302.89606,0.00129
2300.96733,0.00133
2299.03861,0.00137
2297.10989,0.00138
2295.18116,0.00133
2293.25244,0.00127
2291.32371,0.00131
2289.39499,0.00140
2287.46627,0.00145
2285.53754,0.00147
2283.60882,0.00155
2281.68010,0.00162
2279.75137,0.00161
2277.82265,0.00158
2275.89392,0.00162
2273.96520,0.00168
2272.03648,0.00171
2270.10775,0.00170
2268.17903,0.00171
2266.25031,0.00177
2264.32158,0.00186
2262.39286,0.00190
2260.46414,0.00190
2258.53541,0.00189
2256.60669,0.00184
2254.67796,0.00178
2252.74924,0.00171
2250.82052,0.00162
2248.89179,0.00159
2246.96307,0.00162
2245.03435,0.00163
2243.10562,0.00164
2241.17690,0.00171
2239.24818,0.00183
2237.31945,0.00190
2235.39073,0.00183
2233.46200,0.00169
2231.53328,0.00163
2229.60456,0.00163
2227.67583,0.00161
2225.74711,0.00156
2223.81839,0.00148
2221.88966,0.00140
2219.96094,0.00135
2218.03221,0.00135
2216.10349,0.00138
2214.17477,0.00141
2212.24604,0.00140
2210.31732,0.00133
2208.38860,0.00130
2206.45987,0.00129
2204.53115,0.00121
2202.60243,0.00110
2200.67370,0.00103
2198.74498,0.00096
2196.81625,0.00086
2194.88753,0.00084
2192.95881,0.00095
2191.03008,0.00107
2189.10136,0.00110
2187.17264,0.00103
2185.24391,0.00095
2183.31519,0.00095
2181.38647,0.00099
2179.45774,0.00099
2177.52902,0.00100
2175.60029,0.00103
2173.67157,0.00103
2171.74285,0.00096
2169.81412,0.00087
2167.88540,0.00086
2165.95668,0.00091
2164.02795,0.00094
2162.09923,0.00093
2160.17050,0.00096
2158.24178,0.00103
2156.31306,0.00105
2154.38433,0.00100
2152.45561,0.00096
2150.52689,0.00093
2148.59816,0.00093
2146.66944,0.00097
2144.74072,0.00096
2142.81199,0.00090
2140.88327,0.00087
2138.95454,0.00082
2137.02582,0.00078
2135.09710,0.00084
2133.16837,0.00088
2131.23965,0.00081
2129.31093,0.00071
2127.38220,0.00064
2125.45348,0.00059
2123.52476,0.00054
2121.59603,0.00049
2119.66731,0.00046
2117.73858,0.00041
2115.80986,0.00033
2113.88114,0.00025
2111.95241,0.00024
2110.02369,0.00023
2108.09497,0.00021
2106.16624,0.00018
2104.23752,0.00021
2102.30880,0.00030
2100.38007,0.00031
2098.45135,0.00018
2096.52262,0.00005
2094.59390,0.00000
2092.66518,-0.00004
2090.73645,-0.00006
2088.80773,-0.00006
2086.87901,-0.00007
2084.95028,-0.00010
2083.02156,-0.00012
2081.09283,-0.00011
2079.16411,-0.00010
2077.23539,-0.00009
2075.30666,-0.00010
2073.37794,-0.00009
2071.44922,-0.00003
2069.52049,0.00010
2067.59177,0.00020
2065.66305,0.00026
2063.73432,0.00044
2061.80560,0.00063
2059.87687,0.00074
2057.94815,0.00091
2056.01943,0.00113
2054.09070,0.00137
2052.16198,0.00163
2050.23326,0.00191
2048.30453,0.00221
2046.37581,0.00257
2044.44709,0.00290
2042.51836,0.00318
2040.58964,0.00352
2038.66091,0.00394
2036.73219,0.00431
2034.80347,0.00464
2032.87474,0.00499
2030.94602,0.00533
2029.01730,0.00565
2027.08857,0.00593
2025.15985,0.00619
2023.23112,0.00648
2021.30240,0.00685
2019.37368,0.00714
2017.44495,0.00738
2015.51623,0.00777
2013.58751,0.00809
2011.65878,0.00820
2009.73006,0.00831
2007.80134,0.00843
2005.87261,0.00845
2003.94389,0.00849
2002.01516,0.00867
2000.08644,0.00885
1998.15772,0.00892
1996.22899,0.00895
1994.30027,0.00879
1992.37155,0.00853
1990.44282,0.00859
1988.51410,0.00864
1986.58538,0.00854
1984.65665,0.00843
1982.72793,0.00825
1980.79920,0.00807
1978.87048,0.00789
1976.94176,0.00770
1975.01303,0.00751
1973.08431,0.00735
1971.15559,0.00721
1969.22686,0.00688
1967.29814,0.00644
1965.36941,0.00625
1963.44069,0.00600
1961.51197,0.00559
1959.58324,0.00531
1957.65452,0.00505
1955.72580,0.00472
1953.79707,0.00442
1951.86835,0.00417
1949.93963,0.00396
1948.01090,0.00382
1946.08218,0.00368
1944.15345,0.00328
1942.22473,0.00294
1940.29601,0.00305
1938.36728,0.00300
1936.43856,0.00275
1934.50984,0.00263
1932.58111,0.00259
1930.65239,0.00258
1928.72367,0.00266
1926.79494,0.00284
1924.86622,0.00287
1922.93749,0.00305
1921.00877,0.00354
1919.08005,0.00364
1917.15132,0.00399
1915.22260,0.00492
1913.29388,0.00558
1911.36515,0.00597
1909.43643,0.00653
1907.50770,0.00738
1905.57898,0.00823
1903.65026,0.00893
1901.72153,0.00967
1899.79281,0.01052
1897.86409,0.01133
1895.93536,0.01211
1894.00664,0.01309
1892.07792,0.01391
1890.14919,0.01433
1888.22047,0.01502
1886.29174,0.01573
1884.36302,0.01605
1882.43430,0.01634
1880.50557,0.01667
1878.57685,0.01691
1876.64813,0.01709
1874.71940,0.01732
1872.79068,0.01748
1870.86196,0.01707
1868.93323,0.01647
1867.00451,0.01653
1865.07578,0.01655
1863.14706,0.01583
1861.21834,0.01480
1859.28961,0.01383
1857.36089,0.01294
1855.43217,0.01209
1853.50344,0.01127
1851.57472,0.01048
1849.64599,0.00968
1847.71727,0.00883
1845.78855,0.00754
1843.85982,0.00639
1841.93110,0.00616
1840.00238,0.00571
1838.07365,0.00474
1836.14493,0.00415
1834.21621,0.00392
1832.28748,0.00326
1830.35876,0.00241
1828.43003,0.00238
1826.50131,0.00227
1824.57259,0.00169
1822.64386,0.00149
1820.71514,0.00119
1818.78642,0.00063
1816.85769,0.00037
1814.92897,0.00043
1813.00025,0.00028
1811.07152,0.00000
1809.14280,-0.00000
1807.21407,0.00011
1805.28535,0.00002
1803.35663,-0.00035
1801.42790,-0.00071
1799.49918,-0.00050
1797.57046,0.00005
1795.64173,0.00009
1793.71301,-0.00067
1791.78428,-0.00105
1789.85556,-0.00033
1787.92684,-0.00000
1785.99811,-0.00037
1784.06939,-0.00044
1782.14067,-0.00036
1780.21194,-0.00026
1778.28322,0.00024
1776.35450,0.00055
1774.42577,0.00009
1772.49705,-0.00033
1770.56832,0.00032
1768.63960,0.00085
1766.71088,0.00101
1764.78215,0.00095
1762.85343,0.00049
1760.92471,0.00074
1758.99598,0.00129
1757.06726,0.00141
1755.13854,0.00204
1753.20981,0.00240
1751.28109,0.00207
1749.35236,0.00243
1747.42364,0.00339
1745.49492,0.00398
1743.56619,0.00414
1741.63747,0.00426
1739.70875,0.00497
1737.78002,0.00622
1735.85130,0.00604
1733.92257,0.00584
1731.99385,0.00795
1730.06513,0.00963
1728.13640,0.01044
1726.20768,0.01118
1724.27896,0.01216
1722.35023,0.01377
1720.42151,0.01490
1718.49279,0.01536
1716.56406,0.01746
1714.63534,0.02064
1712.70661,0.02288
1710.77789,0.02428
1708.84917,0.02548
1706.92044,0.02698
1704.99172,0.02963
1703.06300,0.03233
1701.13427,0.03396
1699.20555,0.03689
1697.27683,0.04003
1695.34810,0.04256
1693.41938,0.04573
1691.49065,0.04806
1689.56193,0.05028
1687.63321,0.05296
1685.70448,0.05474
1683.77576,0.05771
1681.84704,0.06258
1679.91831,0.06580
1677.98959,0.06738
1676.06087,0.06912
1674.13214,0.07244
1672.20342,0.07558
1670.27469,0.07734
1668.34597,0.08026
1666.41725,0.08344
1664.48852,0.08479
1662.55980,0.08617
1660.63108,0.08917
1658.70235,0.09213
1656.77363,0.09343
1654.84490,0.09297
1652.91618,0.09483
1650.98746,0.10016
1649.05873,0.10172
1647.13001,0.10073
1645.20129,0.10219
1643.27256,0.10433
1641.34384,0.10531
1639.41512,0.10564
1637.48639,0.10495
1635.55767,0.10467
1633.62894,0.10634
1631.70022,0.10712
1629.77150,0.10596
1627.84277,0.10469
1625.91405,0.10364
1623.98533,0.10185
1622.05660,0.10054
1620.12788,0.09923
1618.19916,0.09576
1616.27043,0.09214
1614.34171,0.09034
1612.41298,0.08808
1610.48426,0.08452
1608.55554,0.08088
1606.62681,0.07769
1604.69809,0.07459
1602.76937,0.07137
1600.84064,0.06839
1598.91192,0.06576
1596.98319,0.06316
1595.05447,0.06059
1593.12575,0.05823
1591.19702,0.05603
1589.26830,0.05387
1587.33958,0.05176
1585.41085,0.04967
1583.48213,0.04783
1581.55341,0.04658
1579.62468,0.04530
1577.69596,0.04287
1575.76723,0.04103
1573.83851,0.04117
1571.90979,0.04008
1569.98106,0.03760
1568.05234,0.03674
1566.12362,0.03672
1564.19489,0.03663
1562.26617,0.03584
1560.33745,0.03272
1558.40872,0.03087
1556.48000,0.03257
1554.55127,0.03264
1552.62255,0.03122
1550.69383,0.02981
1548.76510,0.02923
1546.83638,0.02896
1544.90766,0.02811
1542.97893,0.02677
1541.05021,0.02454
1539.12148,0.02382
1537.19276,0.02486
1535.26404,0.02357
1533.33531,0.02134
1531.40659,0.02108
1529.47787,0.02069
1527.54914,0.01931
1525.62042,0.01851
1523.69170,0.01762
1521.76297,0.01617
1519.83425,0.01583
1517.90552,0.01514
1515.97680,0.01399
1514.04808,0.01354
1512.11935,0.01305
1510.19063,0.01171
1508.26191,0.00874
1506.33318,0.00677
1504.40446,0.00765
1502.47574,0.00753
1500.54701,0.00557
1498.61829,0.00347
1496.68956,0.00257
1494.76084,0.00309
1492.83212,0.00289
1490.90339,0.00117
1488.97467,0.00011
1487.04595,0.00039
1485.11722,0.00058
1483.18850,0.00008
1481.25977,-0.00030
1479.33105,0.00000
1477.40233,0.00028
1475.47360,0.00017
1473.54488,0.00014
1471.61616,0.00163
1469.68743,0.00388
1467.75871,0.00436
1465.82999,0.00373
1463.90126,0.00446
1461.97254,0.00601
1460.04381,0.00567
1458.11509,0.00403
1456.18637,0.00464
1454.25764,0.00666
1452.32892,0.00721
1450.40020,0.00665
1448.47147,0.00613
1446.54275,0.00638
1444.61403,0.00697
1442.68530,0.00734
1440.75658,0.00769
1438.82785,0.00733
1436.89913,0.00678
1434.97041,0.00777
1433.04168,0.00863
1431.11296,0.00834
1429.18424,0.00847
1427.25551,0.00919
1425.32679,0.00946
1423.39806,0.00979
1421.46934,0.00992
1419.54062,0.00941
1417.61189,0.00987
1415.68317,0.01081
1413.75445,0.01086
1411.82572,0.01064
1409.89700,0.01085
1407.96828,0.01113
1406.03955,0.01109
1404.11083,0.01145
1402.18210,0.01195
1400.25338,0.01145
1398.32466,0.01054
1396.39593,0.00953
1394.46721,0.00844
1392.53849,0.00787
1390.60976,0.00702
1388.68104,0.00522
1386.75232,0.00371
1384.82359,0.00330
1382.89487,0.00331
1380.96614,0.00341
1379.03742,0.00357
1377.10870,0.00341
1375.17997,0.00272
1373.25125,0.00229
1371.32253,0.00219
1369.39380,0.00178
1367.46508,0.00148
1365.53635,0.00115
1363.60763,0.00037
1361.67891,0.00000
1359.75018,0.00004
1357.82146,-0.00022
1355.89274,-0.00070
1353.96401,-0.00096
1352.03529,-0.00101
1350.10657,-0.00105
1348.17784,-0.00104
1346.24912,-0.00093
1344.32039,-0.00077
1342.39167,-0.00079
1340.46295,-0.00105
1338.53422,-0.00096
1336.60550,-0.00054
1334.67678,-0.00034
1332.74805,-0.00040
1330.81933,-0.00042
1328.89061,-0.00025
1326.96188,0.00004
1325.03316,0.00041
1323.10443,0.00080
1321.17571,0.00112
1319.24699,0.00144
1317.31826,0.00197
1315.38954,0.00254
1313.46082,0.00302
1311.53209,0.00360
1309.60337,0.00426
1307.67464,0.00501
1305.74592,0.00590
1303.81720,0.00678
1301.88847,0.00771
1299.95975,0.00881
1298.03103,0.00999
1296.10230,0.01120
1294.17358,0.01248
1292.24486,0.01382
1290.31613,0.01526
1288.38741,0.01693
1286.45868,0.01886
1284.52996,0.02093
1282.60124,0.02307
1280.67251,0.02542
1278.74379,0.02802
1276.81507,0.03090
1274.88634,0.03399
1272.95762,0.03725
1271.02890,0.04090
1269.10017,0.04507
1267.17145,0.04972
1265.24272,0.05491
1263.31400,0.06068
1261.38528,0.06700
1259.45655,0.07394
1257.52783,0.08142
1255.59911,0.08914
1253.67038,0.09689
1251.74166,0.10452
1249.81294,0.11200
1247.88421,0.11914
1245.95549,0.12557
1244.02676,0.13136
1242.09804,0.13687
1240.16932,0.14216
1238.24059,0.14708
1236.31187,0.15146
1234.38315,0.15532
1232.45442,0.15886
1230.52570,0.16217
1228.59697,0.16516
1226.66825,0.16792
1224.73953,0.17072
1222.81080,0.17347
1220.88208,0.17601
1218.95336,0.17849
1217.02463,0.18096
1215.09591,0.18328
1213.16719,0.18546
1211.23846,0.18756
1209.30974,0.18961
1207.38101,0.19171
1205.45229,0.19388
1203.52357,0.19590
1201.59484,0.19775
1199.66612,0.19965
1197.73740,0.20153
1195.80867,0.20330
1193.87995,0.20494
1191.95123,0.20657
1190.02250,0.20836
1188.09378,0.21017
1186.16505,0.21181
1184.23633,0.21343
1182.30761,0.21510
1180.37888,0.21670
1178.45016,0.21840
1176.52144,0.22020
1174.59271,0.22188
1172.66399,0.22350
1170.73526,0.22521
1168.80654,0.22685
1166.87782,0.22846
1164.94909,0.23003
1163.02037,0.23130
1161.09165,0.23248
1159.16292,0.23377
1157.23420,0.23510
1155.30548,0.23641
1153.37675,0.23756
1151.44803,0.23848
1149.51930,0.23937
1147.59058,0.24032
1145.66186,0.24138
1143.73313,0.24260
1141.80441,0.24397
1139.87569,0.24541
1137.94696,0.24670
1136.01824,0.24780
1134.08952,0.24881
1132.16079,0.24961
1130.23207,0.25026
1128.30334,0.25118
1126.37462,0.25273
1124.44590,0.25477
1122.51717,0.25669
1120.58845,0.25829
1118.65973,0.26022
1116.73100,0.26269
1114.80228,0.26506
1112.87355,0.26738
1110.94483,0.27039
1109.01611,0.27383
1107.08738,0.27693
1105.15866,0.27968
1103.22994,0.28239
1101.30121,0.28495
1099.37249,0.28730
1097.44377,0.28947
1095.51504,0.29127
1093.58632,0.29283
1091.65759,0.29440
1089.72887,0.29574
1087.80015,0.29653
1085.87142,0.29684
1083.94270,0.29679
1082.01398,0.29649
1080.08525,0.29651
1078.15653,0.29678
1076.22781,0.29651
1074.29908,0.29593
1072.37036,0.29578
1070.44163,0.29587
1068.51291,0.29570
1066.58419,0.29514
1064.65546,0.29435
1062.72674,0.29386
1060.79802,0.29364
1058.86929,0.29337
1056.94057,0.29304
1055.01184,0.29237
1053.08312,0.29116
1051.15440,0.28984
1049.22567,0.28860
1047.29695,0.28740
1045.36823,0.28649
1043.43950,0.28582
1041.51078,0.28505
1039.58206,0.28382
1037.65333,0.28200
1035.72461,0.27975
1033.79588,0.27723
1031.86716,0.27489
1029.93844,0.27286
1028.00971,0.27064
1026.08099,0.26804
1024.15227,0.26531
1022.22354,0.26236
1020.29482,0.25906
1018.36610,0.25582
1016.43737,0.25278
1014.50865,0.24973
1012.57992,0.24665
1010.65120,0.24336
1008.72248,0.23970
1006.79375,0.23589
1004.86503,0.23211
1002.93631,0.22816
1001.00758,0.22387
999.07886,0.21950
997.15013,0.21523
995.22141,0.21089
993.29269,0.20640
991.36396,0.20202
989.43524,0.19786
987.50652,0.19407
985.57779,0.19072
983.64907,0.18745
981.72035,0.18413
979.79162,0.18090
977.86290,0.17765
975.93417,0.17460
974.00545,0.17219
972.07673,0.17003
970.14800,0.16755
968.21928,0.16532
966.29056,0.16376
964.36183,0.16224
962.43311,0.16041
960.50439,0.15855
958.57566,0.15683
956.64694,0.15516
954.71821,0.15334
952.78949,0.15139
950.86077,0.14938
948.93204,0.14721
947.00332,0.14504
945.07460,0.14290
943.14587,0.14048
941.21715,0.13777
939.28842,0.13494
937.35970,0.13207
935.43098,0.12933
933.50225,0.12676
931.57353,0.12411
929.64481,0.12137
927.71608,0.11878
925.78736,0.11641
923.85864,0.11419
921.92991,0.11191
920.00119,0.10942
918.07246,0.10669
916.14374,0.10370
914.21502,0.10083
912.28629,0.09840
910.35757,0.09595
908.42885,0.09276
906.50012,0.08896
904.57140,0.08510
902.64268,0.08138
900.71395,0.07796
898.78523,0.07483
896.85650,0.07159
894.92778,0.06815
892.99906,0.06458
891.07033,0.06105
889.14161,0.05804
887.21289,0.05556
885.28416,0.05324
883.35544,0.05080
881.42671,0.04812
879.49799,0.04539
877.56927,0.04296
875.64054,0.04089
873.71182,0.03899
871.78310,0.03698
869.85437,0.03490
867.92565,0.03304
865.99693,0.03152
864.06820,0.03005
862.13948,0.02838
860.21075,0.02661
858.28203,0.02512
856.35331,0.02418
854.42458,0.02374
852.49586,0.02361
850.56714,0.02369
848.63841,0.02398
846.70969,0.02462
844.78097,0.02576
842.85224,0.02743
840.92352,0.02968
838.99479,0.03241
837.06607,0.03538
835.13735,0.03841
833.20862,0.04145
831.27990,0.04441
829.35118,0.04739
827.42245,0.05070
825.49373,0.05391
823.56501,0.05664
821.63628,0.05926
819.70756,0.06182
817.77883,0.06422
815.85011,0.06661
813.92139,0.06907
811.99266,0.07179
810.06394,0.07457
808.13522,0.07694
806.20649,0.07943
804.27777,0.08252
802.34904,0.08526
800.42032,0.08685
798.49160,0.08736
796.56287,0.08694
794.63415,0.08625
792.70543,0.08596
790.77670,0.08566
788.84798,0.08457
786.91926,0.08273
784.99053,0.08059
783.06181,0.07823
781.13308,0.07544
779.20436,0.07235
777.27564,0.06911
775.34691,0.06562
773.41819,0.06208
771.48947,0.05888
769.56074,0.05624
767.63202,0.05414
765.70330,0.05262
763.77457,0.05177
761.84585,0.05122
759.91712,0.05067
757.98840,0.05022
756.05968,0.04973
754.13095,0.04904
752.20223,0.04837
750.27351,0.04788
748.34478,0.04741
746.41606,0.04659
744.48733,0.04542
742.55861,0.04454
740.62989,0.04424
738.70116,0.04406
736.77244,0.04359
734.84372,0.04283
732.91499,0.04202
730.98627,0.04150
729.05755,0.04123
727.12882,0.04077
725.20010,0.03995
723.27137,0.03905
721.34265,0.03819
719.41393,0.03738
717.48520,0.03673
715.55648,0.03645
713.62776,0.03642
711.69903,0.03639
709.77031,0.03626
707.84159,0.03621
705.91286,0.03630
703.98414,0.03639
702.05541,0.03655
700.12669,0.03714
698.19797,0.03802
696.26924,0.03859
694.34052,0.03860
692.41180,0.03830
690.48307,0.03782
688.55435,0.03732
686.62562,0.03712
684.69690,0.03717
682.76818,0.03702
680.83945,0.03656
678.91073,0.03612
676.98201,0.03581
675.05328,0.03577
673.12456,0.03623
671.19584,0.03630
669.26711,0.03551
667.33839,0.03561
665.40966,0.03669
663.48094,0.03672
661.55222,0.03596
659.62349,0.03563
657.69477,0.03593
655.76605,0.03671
653.83732,0.03784
651.90860,0.03897
649.97988,0.03975
648.05115,0.04023
646.12243,0.04064
644.19370,0.04111
642.26498,0.04161
640.33626,0.04198
638.40753,0.04202
636.47881,0.04182
634.55009,0.04169
632.62136,0.04177
630.69264,0.04208
628.76391,0.04257
626.83519,0.04306
624.90647,0.04339
622.97774,0.04380
621.04902,0.04414
619.12030,0.04417
617.19157,0.04454
615.26285,0.04595
613.33413,0.04745
611.40540,0.04819
609.47668,0.04908
607.54795,0.05091
605.61923,0.05314
603.69051,0.05466
601.76178,0.05517
599.83306,0.05603
597.90434,0.05795
595.97561,0.05981
594.04689,0.06097
592.11817,0.06189
590.18944,0.06287
588.26072,0.06390
586.33199,0.06494
584.40327,0.06567
582.47455,0.06622
580.54582,0.06744
578.61710,0.06901
576.68838,0.06967
574.75965,0.06992
572.83093,0.07045
570.90220,0.07079
568.97348,0.07094
567.04476,0.07169
565.11603,0.07323
563.18731,0.07484
561.25859,0.07641
559.32986,0.07806
557.40114,0.07924
555.47242,0.08010
553.54369,0.08170
551.61497,0.08424
549.68624,0.08666
547.75752,0.08806
545.82880,0.08923
543.90007,0.09136
541.97135,0.09401
540.04263,0.09616
538.11390,0.09757
536.18518,0.09825
534.25646,0.09838
532.32773,0.09848
530.39901,0.09856
528.47028,0.09858
526.54156,0.09919
524.61284,0.10008
522.68411,0.09984
520.75539,0.09869
518.82667,0.09759
516.89794,0.09681
514.96922,0.09738
513.04049,0.10014
511.11177,0.10389
509.18305,0.10692
507.25432,0.10933
505.32560,0.11125
503.39688,0.11222
501.46815,0.11481
499.53943,0.12148
497.61071,0.12937
495.68198,0.13468
493.75326,0.13764
491.82453,0.14075
489.89581,0.14534
487.96709,0.15117
486.03836,0.15749
484.10964,0.16438
482.18092,0.17175
480.25219,0.17750
478.32347,0.18065
476.39475,0.18249
474.46602,0.18384
472.53730,0.18644
470.60857,0.19168
468.67985,0.19627
466.75113,0.19707
464.82240,0.19576
462.89368,0.19537
460.96496,0.19476
459.03623,0.19151
457.10751,0.18759
455.17878,0.18505
453.25006,0.18387
451.32134,0.18437
449.39261,0.18459
447.46389,0.18221
445.53517,0.17762
443.60644,0.17283
441.67772,0.16960
439.74900,0.16692
437.82027,0.16301
435.89155,0.15893
433.96282,0.15598
432.03410,0.15250
430.10538,0.14731
428.17665,0.14225
426.24793,0.13927
424.31921,0.13871
422.39048,0.13904
420.46176,0.13547
418.53304,0.12529
416.60431,0.11502
414.67559,0.11150
412.74686,0.11307
410.81814,0.11189
408.88942,0.10306
406.96069,0.09126
405.03197,0.08490
403.10325,0.08845
401.17452,0.10200
399.24580,0.12180
397.31708,0.13350
395.38835,0.12713
393.45963,0.11205
391.53090,0.10050
389.60218,0.09813
387.67346,0.10146
385.74473,0.09796
383.81601,0.09152
381.88729,0.09609
379.95856,0.09158
378.02984,0.05153
376.10111,0.00121
374.17239,0.00000
372.24367,0.03034
370.31494,0.03803
368.38622,0.00000
