3996.31543,0.00006
3994.38671,0.00014
3992.45799,0.00025
3990.52926,0.00024
3988.60054,0.00009
3986.67182,0.00000
3984.74309,0.00008
3982.81437,0.00029
3980.88564,0.00052
3978.95692,0.00075
3977.02820,0.00096
3975.09947,0.00107
3973.17075,0.00110
3971.24203,0.00116
3969.31330,0.00123
3967.38458,0.00128
3965.45586,0.00127
3963.52713,0.00116
3961.59841,0.00107
3959.66968,0.00119
3957.74096,0.00147
3955.81224,0.00174
3953.88351,0.00195
3951.95479,0.00196
3950.02607,0.00157
3948.09734,0.00115
3946.16862,0.00130
3944.23990,0.00169
3942.31117,0.00164
3940.38245,0.00138
3938.45372,0.00143
3936.52500,0.00178
3934.59628,0.00216
3932.66755,0.00217
3930.73883,0.00193
3928.81011,0.00205
3926.88138,0.00257
3924.95266,0.00280
3923.02393,0.00257
3921.09521,0.00238
3919.16649,0.00208
3917.23776,0.00145
3915.30904,0.00111
3913.38032,0.00132
3911.45159,0.00174
3909.52287,0.00234
3907.59415,0.00319
3905.66542,0.00359
3903.73670,0.00281
3901.80797,0.00158
3899.87925,0.00095
3897.95053,0.00094
3896.02180,0.00155
3894.09308,0.00231
3892.16436,0.00222
3890.23563,0.00157
3888.30691,0.00154
3886.37819,0.00175
3884.44946,0.00164
3882.52074,0.00146
3880.59201,0.00111
3878.66329,0.00097
3876.73457,0.00161
3874.80584,0.00235
3872.87712,0.00244
3870.94840,0.00181
3869.01967,0.00105
3867.09095,0.00111
3865.16222,0.00151
3863.23350,0.00120
3861.30478,0.00075
3859.37605,0.00123
3857.44733,0.00249
3855.51861,0.00322
3853.58988,0.00208
3851.66116,0.00022
3849.73244,0.00000
3847.80371,0.00093
3845.87499,0.00199
3843.94626,0.00272
3842.01754,0.00309
3840.08882,0.00297
3838.16009,0.00200
3836.23137,0.00094
3834.30265,0.00073
3832.37392,0.00108
3830.44520,0.00154
3828.51648,0.00200
3826.58775,0.00251
3824.65903,0.00327
3822.73030,0.00376
3820.80158,0.00304
3818.87286,0.00205
3816.94413,0.00155
3815.01541,0.00109
3813.08669,0.00128
3811.15796,0.00238
3809.22924,0.00341
3807.30052,0.00350
3805.37179,0.00328
3803.44307,0.00351
3801.51434,0.00338
3799.58562,0.00288
3797.65690,0.00285
3795.72817,0.00306
3793.79945,0.00344
3791.87073,0.00406
3789.94200,0.00468
3788.01328,0.00517
3786.08455,0.00538
3784.15583,0.00533
3782.22711,0.00541
3780.29838,0.00549
3778.36966,0.00527
3776.44094,0.00537
3774.51221,0.00614
3772.58349,0.00698
3770.65477,0.00710
3768.72604,0.00660
3766.79732,0.00626
3764.86859,0.00637
3762.93987,0.00693
3761.01115,0.00750
3759.08242,0.00740
3757.15370,0.00718
3755.22498,0.00797
3753.29625,0.00922
3751.36753,0.00932
3749.43881,0.00844
3747.51008,0.00850
3745.58136,0.00877
3743.65263,0.00870
3741.72391,0.00978
3739.79519,0.01215
3737.86646,0.01439
3735.93774,0.01531
3734.00902,0.01531
3732.08029,0.01597
3730.15157,0.01770
3728.22284,0.01996
3726.29412,0.02213
3724.36540,0.02395
3722.43667,0.02568
3720.50795,0.02759
3718.57923,0.02980
3716.65050,0.03250
3714.72178,0.03565
3712.79306,0.03856
3710.86433,0.04033
3708.93561,0.04189
3707.00688,0.04451
3705.07816,0.04790
3703.14944,0.05125
3701.22071,0.05425
3699.29199,0.05717
3697.36327,0.06025
3695.43454,0.06344
3693.50582,0.06671
3691.57710,0.06987
3689.64837,0.07243
3687.71965,0.07470
3685.79092,0.07771
3683.86220,0.08137
3681.93348,0.08521
3680.00475,0.08905
3678.07603,0.09278
3676.14731,0.09625
3674.21858,0.09953
3672.28986,0.10320
3670.36113,0.10700
3668.43241,0.11035
3666.50369,0.11357
3664.57496,0.11696
3662.64624,0.12028
3660.71752,0.12349
3658.78879,0.12663
3656.86007,0.12955
3654.93135,0.13241
3653.00262,0.13577
3651.07390,0.13905
3649.14517,0.14071
3647.21645,0.14151
3645.28773,0.14339
3643.35900,0.14609
3641.43028,0.14882
3639.50156,0.15134
3637.57283,0.15369
3635.64411,0.15596
3633.71539,0.15830
3631.78666,0.16065
3629.85794,0.16246
3627.92921,0.16342
3626.00049,0.16467
3624.07177,0.16691
3622.14304,0.16937
3620.21432,0.17091
3618.28560,0.17146
3616.35687,0.17227
3614.42815,0.17368
3612.49942,0.17504
3610.57070,0.17637
3608.64198,0.17778
3606.71325,0.17920
3604.78453,0.18079
3602.85581,0.18249
3600.92708,0.18392
3598.99836,0.18516
3597.06964,0.18651
3595.14091,0.18781
3593.21219,0.18897
3591.28346,0.19029
3589.35474,0.19158
3587.42602,0.19243
3585.49729,0.19329
3583.56857,0.19466
3581.63985,0.19616
3579.71112,0.19749
3577.78240,0.19866
3575.85368,0.19979
3573.92495,0.20103
3571.99623,0.20258
3570.06750,0.20424
3568.13878,0.20516
3566.21006,0.20518
3564.28133,0.20553
3562.35261,0.20664
3560.42389,0.20787
3558.49516,0.20891
3556.56644,0.21001
3554.63771,0.21115
3552.70899,0.21205
3550.78027,0.21273
3548.85154,0.21344
3546.92282,0.21416
3544.99410,0.21488
3543.06537,0.21574
3541.13665,0.21678
3539.20793,0.21788
3537.27920,0.21884
3535.35048,0.21966
3533.42175,0.22053
3531.49303,0.22150
3529.56431,0.22234
3527.63558,0.22293
3525.70686,0.22352
3523.77814,0.22423
3521.84941,0.22493
3519.92069,0.22562
3517.99197,0.22640
3516.06324,0.22725
3514.13452,0.22806
3512.20579,0.22881
3510.27707,0.22944
3508.34835,0.23000
3506.41962,0.23061
3504.49090,0.23119
3502.56218,0.23171
3500.63345,0.23243
3498.70473,0.23335
3496.77600,0.23408
3494.84728,0.23452
3492.91856,0.23494
3490.98983,0.23552
3489.06111,0.23619
3487.13239,0.23684
3485.20366,0.23752
3483.27494,0.23821
3481.34622,0.23865
3479.41749,0.23886
3477.48877,0.23913
3475.56004,0.23962
3473.63132,0.24023
3471.70260,0.24075
3469.77387,0.24101
3467.84515,0.24113
3465.91643,0.24137
3463.98770,0.24182
3462.05898,0.24229
3460.13026,0.24269
3458.20153,0.24306
3456.27281,0.24343
3454.34408,0.24383
3452.41536,0.24427
3450.48664,0.24472
3448.55791,0.24495
3446.62919,0.24495
3444.70047,0.24511
3442.77174,0.24546
3440.84302,0.24580
3438.91429,0.24630
3436.98557,0.24692
3435.05685,0.24736
3433.12812,0.24757
3431.19940,0.24766
3429.27068,0.24766
3427.34195,0.24774
3425.41323,0.24799
3423.48451,0.24818
3421.55578,0.24813
3419.62706,0.24803
3417.69833,0.24815
3415.76961,0.24845
3413.84089,0.24872
3411.91216,0.24892
3409.98344,0.24911
3408.05472,0.24924
3406.12599,0.24922
3404.19727,0.24910
3402.26855,0.24903
3400.33982,0.24898
3398.41110,0.24861
3396.48237,0.24845
3394.55365,0.24844
3392.62493,0.24846
3390.69620,0.24850
3388.76748,0.24862
3386.83876,0.24872
3384.91003,0.24869
3382.98131,0.24862
3381.05259,0.24861
3379.12386,0.24863
3377.19514,0.24863
3375.26641,0.24849
3373.33769,0.24823
3371.40897,0.24797
3369.48024,0.24774
3367.55152,0.24745
3365.62280,0.24715
3363.69407,0.24697
3361.76535,0.24690
3359.83662,0.24686
3357.90790,0.24687
3355.97918,0.24685
3354.05045,0.24672
3352.12173,0.24650
3350.19301,0.24623
3348.26428,0.24592
3346.33556,0.24564
3344.40684,0.24541
3342.47811,0.24515
3340.54939,0.24487
3338.62066,0.24465
3336.69194,0.24442
3334.76322,0.24417
3332.83449,0.24399
3330.90577,0.24379
3328.97705,0.24348
3327.04832,0.24315
3325.11960,0.24291
3323.19088,0.24271
3321.26215,0.24247
3319.33343,0.24211
3317.40470,0.24172
3315.47598,0.24143
3313.54726,0.24119
3311.61853,0.24091
3309.68981,0.24066
3307.76109,0.24049
3305.83236,0.24026
3303.90364,0.23992
3301.97491,0.23965
3300.04619,0.23951
3298.11747,0.23936
3296.18874,0.23913
3294.26002,0.23886
3292.33130,0.23846
3290.40257,0.23793
3288.47385,0.23747
3286.54513,0.23721
3284.61640,0.23708
3282.68768,0.23693
3280.75895,0.23663
3278.83023,0.23619
3276.90151,0.23581
3274.97278,0.23552
3273.04406,0.23523
3271.11534,0.23492
3269.18661,0.23465
3267.25789,0.23437
3265.32917,0.23396
3263.40044,0.23351
3261.47172,0.23316
3259.54299,0.23288
3257.61427,0.23247
3255.68555,0.23196
3253.75682,0.23158
3251.82810,0.23136
3249.89938,0.23114
3247.97065,0.23075
3246.04193,0.23013
3244.11320,0.22943
3242.18448,0.22888
3240.25576,0.22856
3238.32703,0.22831
3236.39831,0.22795
3234.46959,0.22748
3232.54086,0.22700
3230.61214,0.22653
3228.68342,0.22599
3226.75469,0.22551
3224.82597,0.22510
3222.89724,0.22459
3220.96852,0.22392
3219.03980,0.22326
3217.11107,0.22279
3215.18235,0.22238
3213.25363,0.22180
3211.32490,0.22112
3209.39618,0.22053
3207.46746,0.22006
3205.53873,0.21956
3203.61001,0.21896
3201.68128,0.21831
3199.75256,0.21759
3197.82384,0.21681
3195.89511,0.21613
3193.96639,0.21567
3192.03767,0.21521
3190.10894,0.21458
3188.18022,0.21387
3186.25149,0.21317
3184.32277,0.21240
3182.39405,0.21160
3180.46532,0.21082
3178.53660,0.21004
3176.60788,0.20930
3174.67915,0.20875
3172.75043,0.20831
3170.82171,0.20770
3168.89298,0.20688
3166.96426,0.20599
3165.03553,0.20514
3163.10681,0.20436
3161.17809,0.20360
3159.24936,0.20287
3157.32064,0.20224
3155.39192,0.20164
3153.46319,0.20090
3151.53447,0.20002
3149.60575,0.19917
3147.67702,0.19842
3145.74830,0.19773
3143.81957,0.19704
3141.89085,0.19635
3139.96213,0.19567
3138.03340,0.19497
3136.10468,0.19418
3134.17596,0.19331
3132.24723,0.19249
3130.31851,0.19175
3128.38978,0.19099
3126.46106,0.19018
3124.53234,0.18938
3122.60361,0.18860
3120.67489,0.18785
3118.74617,0.18716
3116.81744,0.18646
3114.88872,0.18564
3112.96000,0.18473
3111.03127,0.18390
3109.10255,0.18325
3107.17382,0.18268
3105.24510,0.18194
3103.31638,0.18100
3101.38765,0.18006
3099.45893,0.17919
3097.53021,0.17824
3095.60148,0.17727
3093.67276,0.17652
3091.74404,0.17589
3089.81531,0.17514
3087.88659,0.17427
3085.95786,0.17332
3084.02914,0.17228
3082.10042,0.17124
3080.17169,0.17035
3078.24297,0.16960
3076.31425,0.16881
3074.38552,0.16795
3072.45680,0.16712
3070.52807,0.16634
3068.59935,0.16546
3066.67063,0.16437
3064.74190,0.16326
3062.81318,0.16239
3060.88446,0.16168
3058.95573,0.16092
3057.02701,0.16002
3055.09829,0.15908
3053.16956,0.15823
3051.24084,0.15739
3049.31211,0.15644
3047.38339,0.15551
3045.45467,0.15472
3043.52594,0.15394
3041.59722,0.15303
3039.66850,0.15210
3037.73977,0.15128
3035.81105,0.15050
3033.88233,0.14962
3031.95360,0.14865
3030.02488,0.14775
3028.09615,0.14701
3026.16743,0.14635
3024.23871,0.14564
3022.30998,0.14484
3020.38126,0.14404
3018.45254,0.14331
3016.52381,0.14262
3014.59509,0.14182
3012.66636,0.14097
3010.73764,0.14026
3008.80892,0.13970
3006.88019,0.13907
3004.95147,0.13843
3003.02275,0.13792
3001.09402,0.13746
2999.16530,0.13695
2997.23658,0.13623
2995.30785,0.13551
2993.37913,0.13487
2991.45040,0.13430
2989.52168,0.13376
2987.59296,0.13332
2985.66423,0.13308
2983.73551,0.13291
2981.80679,0.13266
2979.87806,0.13234
2977.94934,0.13194
2976.02062,0.13149
2974.09189,0.13113
2972.16317,0.13090
2970.23444,0.13079
2968.30572,0.13078
2966.37700,0.13079
2964.44827,0.13077
2962.51955,0.13073
2960.59083,0.13067
2958.66210,0.13048
2956.73338,0.13017
2954.80466,0.12986
2952.87593,0.12950
2950.94721,0.12906
2949.01848,0.12868
2947.08976,0.12857
2945.16104,0.12870
2943.23231,0.12896
2941.30359,0.12934
2939.37487,0.12986
2937.44614,0.13049
2935.51742,0.13114
2933.58869,0.13171
2931.65997,0.13216
2929.73125,0.13242
2927.80252,0.13233
2925.87380,0.13179
2923.94508,0.13083
2922.01635,0.12943
2920.08763,0.12754
2918.15891,0.12531
2916.23018,0.12298
2914.30146,0.12072
2912.37273,0.11861
2910.44401,0.11670
2908.51529,0.11498
2906.58656,0.11343
2904.65784,0.11204
2902.72912,0.11077
2900.80039,0.10956
2898.87167,0.10836
2896.94295,0.10721
2895.01422,0.10609
2893.08550,0.10493
2891.15677,0.10372
2889.22805,0.10266
2887.29933,0.10177
2885.37060,0.10092
2883.44188,0.10011
2881.51316,0.09944
2879.58443,0.09887
2877.65571,0.09830
2875.72698,0.09778
2873.79826,0.09728
2871.86954,0.09668
2869.94081,0.09603
2868.01209,0.09551
2866.08337,0.09524
2864.15464,0.09518
2862.22592,0.09527
2860.29720,0.09556
2858.36847,0.09598
2856.43975,0.09631
2854.51102,0.09624
2852.58230,0.09553
2850.65358,0.09398
2848.72485,0.09173
2846.79613,0.08922
2844.86741,0.08681
2842.93868,0.08465
2841.00996,0.08283
2839.08124,0.08133
2837.15251,0.08000
2835.22379,0.07878
2833.29506,0.07767
2831.36634,0.07665
2829.43762,0.07574
2827.50889,0.07495
2825.58017,0.07421
2823.65145,0.07341
2821.72272,0.07255
2819.79400,0.07171
2817.86527,0.07089
2815.93655,0.07012
2814.00783,0.06945
2812.07910,0.06883
2810.15038,0.06826
2808.22166,0.06767
2806.29293,0.06700
2804.36421,0.06627
2802.43549,0.06561
2800.50676,0.06511
2798.57804,0.06466
2796.64931,0.06414
2794.72059,0.06353
2792.79187,0.06290
2790.86314,0.06225
2788.93442,0.06159
2787.00570,0.06096
2785.07697,0.06039
2783.14825,0.05981
2781.21953,0.05921
2779.29080,0.05857
2777.36208,0.05797
2775.43335,0.05740
2773.50463,0.05680
2771.57591,0.05625
2769.64718,0.05579
2767.71846,0.05530
2765.78974,0.05470
2763.86101,0.05410
2761.93229,0.05357
2760.00356,0.05310
2758.07484,0.05266
2756.14612,0.05220
2754.21739,0.05170
2752.28867,0.05119
2750.35995,0.05068
2748.43122,0.05016
2746.50250,0.04961
2744.57378,0.04906
2742.64505,0.04857
2740.71633,0.04814
2738.78760,0.04769
2736.85888,0.04717
2734.93016,0.04665
2733.00143,0.04616
2731.07271,0.04573
2729.14399,0.04534
2727.21526,0.04489
2725.28654,0.04437
2723.35782,0.04383
2721.42909,0.04333
2719.50037,0.04285
2717.57164,0.04234
2715.64292,0.04186
2713.71420,0.04146
2711.78547,0.04111
2709.85675,0.04071
2707.92803,0.04026
2705.99930,0.03976
2704.07058,0.03927
2702.14185,0.03882
2700.21313,0.03838
2698.28441,0.03795
2696.35568,0.03760
2694.42696,0.03732
2692.49824,0.03696
2690.56951,0.03653
2688.64079,0.03612
2686.71207,0.03576
2684.78334,0.03542
2682.85462,0.03509
2680.92589,0.03474
2678.99717,0.03431
2677.06845,0.03385
2675.13972,0.03337
2673.21100,0.03290
2671.28228,0.03245
2669.35355,0.03201
2667.42483,0.03167
2665.49611,0.03140
2663.56738,0.03106
2661.63866,0.03065
2659.70993,0.03025
2657.78121,0.02990
2655.85249,0.02957
2653.92376,0.02923
2651.99504,0.02890
2650.06632,0.02855
2648.13759,0.02818
2646.20887,0.02782
2644.28014,0.02749
2642.35142,0.02719
2640.42270,0.02688
2638.49397,0.02654
2636.56525,0.02617
2634.63653,0.02579
2632.70780,0.02544
2630.77908,0.02518
2628.85036,0.02497
2626.92163,0.02469
2624.99291,0.02430
2623.06418,0.02388
2621.13546,0.02354
2619.20674,0.02325
2617.27801,0.02297
2615.34929,0.02265
2613.42057,0.02233
2611.49184,0.02202
2609.56312,0.02171
2607.63440,0.02141
2605.70567,0.02117
2603.77695,0.02092
2601.84822,0.02062
2599.91950,0.02033
2597.99078,0.02008
2596.06205,0.01981
2594.13333,0.01954
2592.20461,0.01926
2590.27588,0.01896
2588.34716,0.01866
2586.41843,0.01839
2584.48971,0.01816
2582.56099,0.01797
2580.63226,0.01775
2578.70354,0.01747
2576.77482,0.01725
2574.84609,0.01707
2572.91737,0.01682
2570.98865,0.01652
2569.05992,0.01622
2567.13120,0.01598
2565.20247,0.01578
2563.27375,0.01560
2561.34503,0.01541
2559.41630,0.01519
2557.48758,0.01499
2555.55886,0.01481
2553.63013,0.01462
2551.70141,0.01443
2549.77269,0.01423
2547.84396,0.01400
2545.91524,0.01377
2543.98651,0.01360
2542.05779,0.01341
2540.12907,0.01314
2538.20034,0.01287
2536.27162,0.01269
2534.34290,0.01257
2532.41417,0.01246
2530.48545,0.01236
2528.55673,0.01222
2526.62800,0.01203
2524.69928,0.01183
2522.77055,0.01166
2520.84183,0.01145
2518.91311,0.01122
2516.98438,0.01104
2515.05566,0.01087
2513.12694,0.01068
2511.19821,0.01051
2509.26949,0.01037
2507.34076,0.01025
2505.41204,0.01016
2503.48332,0.01006
2501.55459,0.00995
2499.62587,0.00978
2497.69715,0.00957
2495.76842,0.00936
2493.83970,0.00915
2491.91098,0.00895
2489.98225,0.00877
2488.05353,0.00860
2486.12480,0.00849
2484.19608,0.00838
2482.26736,0.00821
2480.33863,0.00802
2478.40991,0.00790
2476.48119,0.00783
2474.55246,0.00776
2472.62374,0.00765
2470.69502,0.00749
2468.76629,0.00729
2466.83757,0.00710
2464.90884,0.00694
2462.98012,0.00677
2461.05140,0.00658
2459.12267,0.00645
2457.19395,0.00639
2455.26523,0.00632
2453.33650,0.00615
2451.40778,0.00591
2449.47905,0.00571
2447.55033,0.00558
2445.62161,0.00545
2443.69288,0.00532
2441.76416,0.00521
2439.83544,0.00515
2437.90671,0.00508
2435.97799,0.00500
2434.04927,0.00486
2432.12054,0.00470
2430.19182,0.00459
2428.26309,0.00454
2426.33437,0.00446
2424.40565,0.00434
2422.47692,0.00423
2420.54820,0.00411
2418.61948,0.00398
2416.69075,0.00389
2414.76203,0.00380
2412.83331,0.00368
2410.90458,0.00357
2408.97586,0.00352
2407.04713,0.00348
2405.11841,0.00339
2403.18969,0.00326
2401.26096,0.00309
2399.33224,0.00295
2397.40352,0.00288
2395.47479,0.00285
2393.54607,0.00280
2391.61734,0.00273
2389.68862,0.00268
2387.75990,0.00267
2385.83117,0.00271
2383.90245,0.00278
2381.97373,0.00283
2380.04500,0.00287
2378.11628,0.00290
2376.18756,0.00293
2374.25883,0.00299
2372.33011,0.00308
2370.40138,0.00315
2368.47266,0.00321
2366.54394,0.00332
2364.61521,0.00335
2362.68649,0.00319
2360.75777,0.00283
2358.82904,0.00226
2356.90032,0.00152
2354.97160,0.00088
2353.04287,0.00081
2351.11415,0.00153
2349.18542,0.00236
2347.25670,0.00249
2345.32798,0.00212
2343.39925,0.00193
2341.47053,0.00201
2339.54181,0.00209
2337.61308,0.00206
2335.68436,0.00192
2333.75563,0.00174
2331.82691,0.00149
2329.89819,0.00119
2327.96946,0.00097
2326.04074,0.00088
2324.11202,0.00081
2322.18329,0.00066
2320.25457,0.00050
2318.32585,0.00044
2316.39712,0.00042
2314.46840,0.00035
2312.53967,0.00029
2310.61095,0.00030
2308.68223,0.00034
2306.75350,0.00039
2304.82478,0.00042
2302.89606,0.00038
2300.96733,0.00032
2299.03861,0.00030
2297.10989,0.00030
2295.18116,0.00030
2293.25244,0.00027
2291.32371,0.00021
2289.39499,0.00016
2287.46627,0.00018
2285.53754,0.00027
2283.60882,0.00033
2281.68010,0.00031
2279.75137,0.00023
2277.82265,0.00015
2275.89392,0.00012
2273.96520,0.00014
2272.03648,0.00017
2270.10775,0.00018
2268.17903,0.00013
2266.25031,0.00007
2264.32158,0.00003
2262.39286,0.00000
2260.46414,-0.00002
2258.53541,-0.00005
2256.60669,-0.00009
2254.67796,-0.00012
2252.74924,-0.00010
2250.82052,-0.00011
2248.89179,-0.00029
2246.96307,-0.00028
2245.03435,-0.00026
2243.10562,-0.00027
2241.17690,-0.00031
2239.24818,-0.00032
2237.31945,-0.00028
2235.39073,-0.00025
2233.46200,-0.00022
2231.53328,-0.00014
2229.60456,-0.00006
2227.67583,-0.00005
2225.74711,-0.00009
2223.81839,-0.00013
2221.88966,-0.00019
2219.96094,-0.00022
2218.03221,-0.00018
2216.10349,-0.00010
2214.17477,-0.00003
2212.24604,-0.00000
2210.31732,0.00003
2208.38860,0.00008
2206.45987,0.00007
2204.53115,0.00000
2202.60243,-0.00004
2200.67370,0.00001
2198.74498,0.00012
2196.81625,0.00017
2194.88753,0.00014
2192.95881,0.00010
2191.03008,0.00011
2189.10136,0.00013
2187.17264,0.00015
2185.24391,0.00017
2183.31519,0.00014
2181.38647,0.00010
2179.45774,0.00011
2177.52902,0.00014
2175.60029,0.00016
2173.67157,0.00019
2171.74285,0.00021
2169.81412,0.00025
2167.88540,0.00031
2165.95668,0.00032
2164.02795,0.00027
2162.09923,0.00023
2160.17050,0.00023
2158.24178,0.00026
2156.31306,0.00030
2154.38433,0.00032
2152.45561,0.00031
2150.52689,0.00031
2148.59816,0.00036
2146.66944,0.00040
2144.74072,0.00040
2142.81199,0.00039
2140.88327,0.00038
2138.95454,0.00036
2137.02582,0.00033
2135.09710,0.00036
2133.16837,0.00042
2131.23965,0.00045
2129.31093,0.00042
2127.38220,0.00036
2125.45348,0.00032
2123.52476,0.00027
2121.59603,0.00023
2119.66731,0.00021
2117.73858,0.00017
2115.80986,0.00011
2113.88114,0.00009
2111.95241,0.00010
2110.02369,0.00012
2108.09497,0.00017
2106.16624,0.00020
2104.23752,0.00015
2102.30880,0.00007
2100.38007,0.00002
2098.45135,-0.00002
2096.52262,-0.00002
2094.59390,0.00000
2092.66518,-0.00005
2090.73645,-0.00013
2088.80773,-0.00017
2086.87901,-0.00021
2084.95028,-0.00028
2083.02156,-0.00037
2081.09283,-0.00043
2079.16411,-0.00045
2077.23539,-0.00044
2075.30666,-0.00045
2073.37794,-0.00048
2071.44922,-0.00051
2069.52049,-0.00052
2067.59177,-0.00053
2065.66305,-0.00054
2063.73432,-0.00055
2061.80560,-0.00053
2059.87687,-0.00047
2057.94815,-0.00037
2056.01943,-0.00030
2054.09070,-0.00028
2052.16198,-0.00028
2050.23326,-0.00019
2048.30453,-0.00007
2046.37581,0.00002
2044.44709,0.00013
2042.51836,0.00031
2040.58964,0.00045
2038.66091,0.00056
2036.73219,0.00068
2034.80347,0.00081
2032.87474,0.00093
2030.94602,0.00109
2029.01730,0.00127
2027.08857,0.00144
2025.15985,0.00160
2023.23112,0.00173
2021.30240,0.00187
2019.37368,0.00205
2017.44495,0.00217
2015.51623,0.00223
2013.58751,0.00231
2011.65878,0.00245
2009.73006,0.00256
2007.80134,0.00263
2005.87261,0.00270
2003.94389,0.00275
2002.01516,0.00276
2000.08644,0.00274
1998.15772,0.00275
1996.22899,0.00282
1994.30027,0.00287
1992.37155,0.00280
1990.44282,0.00269
1988.51410,0.00269
1986.58538,0.00272
1984.65665,0.00274
1982.72793,0.00274
1980.79920,0.00269
1978.87048,0.00261
1976.94176,0.00256
1975.01303,0.00249
1973.08431,0.00239
1971.15559,0.00231
1969.22686,0.00228
1967.29814,0.00216
1965.36941,0.00191
1963.44069,0.00173
1961.51197,0.00164
1959.58324,0.00156
1957.65452,0.00149
1955.72580,0.00142
1953.79707,0.00130
1951.86835,0.00118
1949.93963,0.00113
1948.01090,0.00113
1946.08218,0.00114
1944.15345,0.00101
1942.22473,0.00070
1940.29601,0.00046
1938.36728,0.00044
1936.43856,0.00051
1934.50984,0.00054
1932.58111,0.00053
1930.65239,0.00050
1928.72367,0.00052
1926.79494,0.00067
1924.86622,0.00088
1922.93749,0.00098
1921.00877,0.00100
1919.08005,0.00107
1917.15132,0.00112
1915.22260,0.00127
1913.29388,0.00168
1911.36515,0.00220
1909.43643,0.00264
1907.50770,0.00295
1905.57898,0.00327
1903.65026,0.00366
1901.72153,0.00410
1899.79281,0.00457
1897.86409,0.00506
1895.93536,0.00549
1894.00664,0.00586
1892.07792,0.00624
1890.14919,0.00660
1888.22047,0.00683
1886.29174,0.00704
1884.36302,0.00729
1882.43430,0.00754
1880.50557,0.00773
1878.57685,0.00782
1876.64813,0.00781
1874.71940,0.00782
1872.79068,0.00804
1870.86196,0.00829
1868.93323,0.00812
1867.00451,0.00751
1865.07578,0.00700
1863.14706,0.00674
1861.21834,0.00646
1859.28961,0.00603
1857.36089,0.00552
1855.43217,0.00503
1853.50344,0.00460
1851.57472,0.00424
1849.64599,0.00398
1847.71727,0.00376
1845.78855,0.00327
1843.85982,0.00234
1841.93110,0.00152
1840.00238,0.00127
1838.07365,0.00127
1836.14493,0.00110
1834.21621,0.00093
1832.28748,0.00101
1830.35876,0.00102
1828.43003,0.00074
1826.50131,0.00046
1824.57259,0.00022
1822.64386,0.00000
1820.71514,-0.00014
1818.78642,-0.00020
1816.85769,-0.00019
1814.92897,0.00000
1813.00025,0.00019
1811.07152,0.00022
1809.14280,0.00007
1807.21407,0.00000
1805.28535,0.00008
1803.35663,0.00019
1801.42790,0.00023
1799.49918,0.00027
1797.57046,0.00050
1795.64173,0.00100
1793.71301,0.00154
1791.78428,0.00172
1789.85556,0.00167
1787.92684,0.00185
1785.99811,0.00228
1784.06939,0.00288
1782.14067,0.00363
1780.21194,0.00433
1778.28322,0.00495
1776.35450,0.00578
1774.42577,0.00680
1772.49705,0.00744
1770.56832,0.00748
1768.63960,0.00756
1766.71088,0.00810
1764.78215,0.00897
1762.85343,0.00982
1760.92471,0.01044
1758.99598,0.01102
1757.06726,0.01169
1755.13854,0.01249
1753.20981,0.01355
1751.28109,0.01472
1749.35236,0.01570
1747.42364,0.01660
1745.49492,0.01766
1743.56619,0.01887
1741.63747,0.02008
1739.70875,0.02123
1737.78002,0.02256
1735.85130,0.02421
1733.92257,0.02582
1731.99385,0.02704
1730.06513,0.02819
1728.13640,0.02949
1726.20768,0.03092
1724.27896,0.03242
1722.35023,0.03404
1720.42151,0.03594
1718.49279,0.03786
1716.56406,0.03907
1714.63534,0.03981
1712.70661,0.04077
1710.77789,0.04227
1708.84917,0.04424
1706.92044,0.04630
1704.99172,0.04810
1703.06300,0.04981
1701.13427,0.05192
1699.20555,0.05451
1697.27683,0.05739
1695.34810,0.06027
1693.41938,0.06300
1691.49065,0.06590
1689.56193,0.06911
1687.63321,0.07248
1685.70448,0.07603
1683.77576,0.07947
1681.84704,0.08223
1679.91831,0.08469
1677.98959,0.08732
1676.06087,0.09022
1674.13214,0.09323
1672.20342,0.09619
1670.27469,0.09908
1668.34597,0.10157
1666.41725,0.10367
1664.48852,0.10582
1662.55980,0.10790
1660.63108,0.10949
1658.70235,0.11098
1656.77363,0.11288
1654.84490,0.11480
1652.91618,0.11573
1650.98746,0.11610
1649.05873,0.11707
1647.13001,0.11829
1645.20129,0.11888
1643.27256,0.11924
1641.34384,0.12005
1639.41512,0.12127
1637.48639,0.12207
1635.55767,0.12166
1633.62894,0.12082
1631.70022,0.12065
1629.77150,0.12074
1627.84277,0.12038
1625.91405,0.11948
1623.98533,0.11804
1622.05660,0.11633
1620.12788,0.11509
1618.19916,0.11373
1616.27043,0.11110
1614.34171,0.10819
1612.41298,0.10617
1610.48426,0.10454
1608.55554,0.10266
1606.62681,0.10061
1604.69809,0.09860
1602.76937,0.09662
1600.84064,0.09466
1598.91192,0.09287
1596.98319,0.09119
1595.05447,0.08942
1593.12575,0.08754
1591.19702,0.08565
1589.26830,0.08375
1587.33958,0.08179
1585.41085,0.07978
1583.48213,0.07779
1581.55341,0.07617
1579.62468,0.07515
1577.69596,0.07401
1575.76723,0.07198
1573.83851,0.07014
1571.90979,0.06934
1569.98106,0.06861
1568.05234,0.06743
1566.12362,0.06647
1564.19489,0.06615
1562.26617,0.06645
1560.33745,0.06615
1558.40872,0.06377
1556.48000,0.06137
1554.55127,0.06037
1552.62255,0.05978
1550.69383,0.05898
1548.76510,0.05814
1546.83638,0.05773
1544.90766,0.05771
1542.97893,0.05718
1541.05021,0.05502
1539.12148,0.05160
1537.19276,0.04947
1535.26404,0.04880
1533.33531,0.04807
1531.40659,0.04693
1529.47787,0.04593
1527.54914,0.04480
1525.62042,0.04333
1523.69170,0.04174
1521.76297,0.03964
1519.83425,0.03720
1517.90552,0.03520
1515.97680,0.03335
1514.04808,0.03165
1512.11935,0.03068
1510.19063,0.03018
1508.26191,0.02850
1506.33318,0.02465
1504.40446,0.02145
1502.47574,0.02022
1500.54701,0.01962
1498.61829,0.01847
1496.68956,0.01660
1494.76084,0.01518
1492.83212,0.01482
1490.90339,0.01466
1488.97467,0.01370
1487.04595,0.01245
1485.11722,0.01180
1483.18850,0.01180
1481.25977,0.01215
1479.33105,0.01277
1477.40233,0.01381
1475.47360,0.01529
1473.54488,0.01697
1471.61616,0.01854
1469.68743,0.01992
1467.75871,0.02137
1465.82999,0.02269
1463.90126,0.02355
1461.97254,0.02451
1460.04381,0.02601
1458.11509,0.02718
1456.18637,0.02705
1454.25764,0.02666
1452.32892,0.02688
1450.40020,0.02753
1448.47147,0.02806
1446.54275,0.02827
1444.61403,0.02848
1442.68530,0.02887
1440.75658,0.02939
1438.82785,0.02982
1436.89913,0.02992
1434.97041,0.02996
1433.04168,0.03037
1431.11296,0.03102
1429.18424,0.03158
1427.25551,0.03212
1425.32679,0.03281
1423.39806,0.03360
1421.46934,0.03437
1419.54062,0.03510
1417.61189,0.03584
1415.68317,0.03672
1413.75445,0.03771
1411.82572,0.03871
1409.89700,0.03969
1407.96828,0.04071
1406.03955,0.04164
1404.11083,0.04224
1402.18210,0.04246
1400.25338,0.04215
1398.32466,0.04110
1396.39593,0.03940
1394.46721,0.03734
1392.53849,0.03545
1390.60976,0.03413
1388.68104,0.03303
1386.75232,0.03171
1384.82359,0.03042
1382.89487,0.02932
1380.96614,0.02824
1379.03742,0.02716
1377.10870,0.02619
1375.17997,0.02505
1373.25125,0.02355
1371.32253,0.02221
1369.39380,0.02125
1367.46508,0.02049
1365.53635,0.01982
1363.60763,0.01899
1361.67891,0.01786
1359.75018,0.01684
1357.82146,0.01618
1355.89274,0.01571
1353.96401,0.01521
1352.03529,0.01473
1350.10657,0.01431
1348.17784,0.01388
1346.24912,0.01347
1344.32039,0.01318
1342.39167,0.01299
1340.46295,0.01263
1338.53422,0.01204
1336.60550,0.01158
1334.67678,0.01140
1332.74805,0.01136
1330.81933,0.01129
1328.89061,0.01120
1326.96188,0.01113
1325.03316,0.01110
1323.10443,0.01114
1321.17571,0.01126
1319.24699,0.01135
1317.31826,0.01139
1315.38954,0.01154
1313.46082,0.01182
1311.53209,0.01216
1309.60337,0.01258
1307.67464,0.01314
1305.74592,0.01379
1303.81720,0.01451
1301.88847,0.01535
1299.95975,0.01625
1298.03103,0.01717
1296.10230,0.01818
1294.17358,0.01938
1292.24486,0.02074
1290.31613,0.02225
1288.38741,0.02393
1286.45868,0.02572
1284.52996,0.02763
1282.60124,0.02978
1280.67251,0.03227
1278.74379,0.03506
1276.81507,0.03810
1274.88634,0.04140
1272.95762,0.04498
1271.02890,0.04893
1269.10017,0.05335
1267.17145,0.05833
1265.24272,0.06396
1263.31400,0.07024
1261.38528,0.07729
1259.45655,0.08514
1257.52783,0.09362
1255.59911,0.10255
1253.67038,0.11184
1251.74166,0.12131
1249.81294,0.13073
1247.88421,0.13986
1245.95549,0.14844
1244.02676,0.15635
1242.09804,0.16357
1240.16932,0.17008
1238.24059,0.17596
1236.31187,0.18121
1234.38315,0.18591
1232.45442,0.19023
1230.52570,0.19438
1228.59697,0.19831
1226.66825,0.20182
1224.73953,0.20497
1222.81080,0.20793
1220.88208,0.21066
1218.95336,0.21307
1217.02463,0.21520
1215.09591,0.21722
1213.16719,0.21928
1211.23846,0.22143
1209.30974,0.22360
1207.38101,0.22563
1205.45229,0.22751
1203.52357,0.22928
1201.59484,0.23096
1199.66612,0.23287
1197.73740,0.23485
1195.80867,0.23681
1193.87995,0.23869
1191.95123,0.24052
1190.02250,0.24218
1188.09378,0.24373
1186.16505,0.24530
1184.23633,0.24696
1182.30761,0.24866
1180.37888,0.25033
1178.45016,0.25185
1176.52144,0.25314
1174.59271,0.25438
1172.66399,0.25584
1170.73526,0.25760
1168.80654,0.25954
1166.87782,0.26141
1164.94909,0.26297
1163.02037,0.26443
1161.09165,0.26623
1159.16292,0.26828
1157.23420,0.27004
1155.30548,0.27144
1153.37675,0.27290
1151.44803,0.27457
1149.51930,0.27630
1147.59058,0.27799
1145.66186,0.27965
1143.73313,0.28152
1141.80441,0.28358
1139.87569,0.28555
1137.94696,0.28747
1136.01824,0.28956
1134.08952,0.29188
1132.16079,0.29432
1130.23207,0.29700
1128.30334,0.29996
1126.37462,0.30297
1124.44590,0.30596
1122.51717,0.30929
1120.58845,0.31327
1118.65973,0.31776
1116.73100,0.32269
1114.80228,0.32801
1112.87355,0.33360
1110.94483,0.33955
1109.01611,0.34582
1107.08738,0.35203
1105.15866,0.35785
1103.22994,0.36338
1101.30121,0.36835
1099.37249,0.37215
1097.44377,0.37473
1095.51504,0.37643
1093.58632,0.37736
1091.65759,0.37757
1089.72887,0.37752
1087.80015,0.37732
1085.87142,0.37673
1083.94270,0.37553
1082.01398,0.37359
1080.08525,0.37120
1078.15653,0.36861
1076.22781,0.36571
1074.29908,0.36245
1072.37036,0.35900
1070.44163,0.35533
1068.51291,0.35133
1066.58419,0.34701
1064.65546,0.34244
1062.72674,0.33779
1060.79802,0.33278
1058.86929,0.32719
1056.94057,0.32155
1055.01184,0.31623
1053.08312,0.31093
1051.15440,0.30522
1049.22567,0.29919
1047.29695,0.29308
1045.36823,0.28679
1043.43950,0.28038
1041.51078,0.27401
1039.58206,0.26763
1037.65333,0.26108
1035.72461,0.25442
1033.79588,0.24791
1031.86716,0.24192
1029.93844,0.23640
1028.00971,0.23093
1026.08099,0.22551
1024.15227,0.22025
1022.22354,0.21500
1020.29482,0.20993
1018.36610,0.20546
1016.43737,0.20142
1014.50865,0.19752
1012.57992,0.19391
1010.65120,0.19058
1008.72248,0.18724
1006.79375,0.18374
1004.86503,0.18024
1002.93631,0.17714
1001.00758,0.17451
999.07886,0.17201
997.15013,0.16939
995.22141,0.16672
993.29269,0.16426
991.36396,0.16214
989.43524,0.16024
987.50652,0.15851
985.57779,0.15700
983.64907,0.15561
981.72035,0.15433
979.79162,0.15334
977.86290,0.15262
975.93417,0.15201
974.00545,0.15161
972.07673,0.15154
970.14800,0.15152
968.21928,0.15138
966.29056,0.15118
964.36183,0.15092
962.43311,0.15058
960.50439,0.15031
958.57566,0.15004
956.64694,0.14971
954.71821,0.14936
952.78949,0.14881
950.86077,0.14794
948.93204,0.14686
947.00332,0.14559
945.07460,0.14413
943.14587,0.14261
941.21715,0.14098
939.28842,0.13908
937.35970,0.13697
935.43098,0.13471
933.50225,0.13227
931.57353,0.12982
929.64481,0.12748
927.71608,0.12498
925.78736,0.12231
923.85864,0.11972
921.92991,0.11709
920.00119,0.11406
918.07246,0.11068
916.14374,0.10732
914.21502,0.10415
912.28629,0.10090
910.35757,0.09744
908.42885,0.09394
906.50012,0.09045
904.57140,0.08708
902.64268,0.08392
900.71395,0.08079
898.78523,0.07763
896.85650,0.07468
894.92778,0.07207
892.99906,0.06970
891.07033,0.06728
889.14161,0.06477
887.21289,0.06251
885.28416,0.06054
883.35544,0.05856
881.42671,0.05658
879.49799,0.05471
877.56927,0.05290
875.64054,0.05106
873.71182,0.04922
871.78310,0.04773
869.85437,0.04670
867.92565,0.04567
865.99693,0.04431
864.06820,0.04275
862.13948,0.04126
860.21075,0.03993
858.28203,0.03873
856.35331,0.03767
854.42458,0.03688
852.49586,0.03652
850.56714,0.03659
848.63841,0.03687
846.70969,0.03726
844.78097,0.03786
842.85224,0.03878
840.92352,0.03996
838.99479,0.04145
837.06607,0.04353
835.13735,0.04613
833.20862,0.04881
831.27990,0.05141
829.35118,0.05401
827.42245,0.05670
825.49373,0.05937
823.56501,0.06180
821.63628,0.06425
819.70756,0.06706
817.77883,0.06999
815.85011,0.07258
813.92139,0.07474
811.99266,0.07656
810.06394,0.07851
808.13522,0.08103
806.20649,0.08359
804.27777,0.08546
802.34904,0.08674
800.42032,0.08764
798.49160,0.08787
796.56287,0.08753
794.63415,0.08712
792.70543,0.08665
790.77670,0.08573
788.84798,0.08415
786.91926,0.08218
784.99053,0.08000
783.06181,0.07750
781.13308,0.07480
779.20436,0.07191
777.27564,0.06863
775.34691,0.06520
773.41819,0.06217
771.48947,0.05974
769.56074,0.05780
767.63202,0.05631
765.70330,0.05520
763.77457,0.05445
761.84585,0.05399
759.91712,0.05339
757.98840,0.05262
756.05968,0.05224
754.13095,0.05224
752.20223,0.05216
750.27351,0.05193
748.34478,0.05177
746.41606,0.05153
744.48733,0.05105
742.55861,0.05063
740.62989,0.05057
738.70116,0.05054
736.77244,0.05037
734.84372,0.05038
732.91499,0.05047
730.98627,0.05026
729.05755,0.05006
727.12882,0.05031
725.20010,0.05074
723.27137,0.05077
721.34265,0.05093
719.41393,0.05118
717.48520,0.05154
715.55648,0.05205
713.62776,0.05259
711.69903,0.05315
709.77031,0.05372
707.84159,0.05429
705.91286,0.05485
703.98414,0.05540
702.05541,0.05595
700.12669,0.05663
698.19797,0.05752
696.26924,0.05845
694.34052,0.05905
692.41180,0.05912
690.48307,0.05886
688.55435,0.05868
686.62562,0.05886
684.69690,0.05929
682.76818,0.05974
680.83945,0.06016
678.91073,0.06069
676.98201,0.06124
675.05328,0.06165
673.12456,0.06186
671.19584,0.06144
669.26711,0.06060
667.33839,0.06076
665.40966,0.06177
663.48094,0.06225
661.55222,0.06237
659.62349,0.06297
657.69477,0.06411
655.76605,0.06547
653.83732,0.06666
651.90860,0.06756
649.97988,0.06849
648.05115,0.06960
646.12243,0.07068
644.19370,0.07166
642.26498,0.07281
640.33626,0.07415
638.40753,0.07533
636.47881,0.07613
634.55009,0.07670
632.62136,0.07743
630.69264,0.07841
628.76391,0.07928
626.83519,0.08004
624.90647,0.08089
622.97774,0.08190
621.04902,0.08287
619.12030,0.08381
617.19157,0.08482
615.26285,0.08572
613.33413,0.08660
611.40540,0.08791
609.47668,0.08950
607.54795,0.09099
605.61923,0.09257
603.69051,0.09394
601.76178,0.09452
599.83306,0.09508
597.90434,0.09674
595.97561,0.09900
594.04689,0.10083
592.11817,0.10218
590.18944,0.10349
588.26072,0.10463
586.33199,0.10484
584.40327,0.10436
582.47455,0.10480
580.54582,0.10648
578.61710,0.10811
576.68838,0.10880
574.75965,0.10864
572.83093,0.10819
570.90220,0.10807
568.97348,0.10860
567.04476,0.10944
565.11603,0.11017
563.18731,0.11082
561.25859,0.11150
559.32986,0.11188
557.40114,0.11169
555.47242,0.11131
553.54369,0.11140
551.61497,0.11216
549.68624,0.11318
547.75752,0.11427
545.82880,0.11531
543.90007,0.11585
541.97135,0.11587
540.04263,0.11599
538.11390,0.11626
536.18518,0.11586
534.25646,0.11479
532.32773,0.11428
530.39901,0.11478
528.47028,0.11555
526.54156,0.11596
524.61284,0.11591
522.68411,0.11568
520.75539,0.11582
518.82667,0.11643
516.89794,0.11679
514.96922,0.11678
513.04049,0.11737
511.11177,0.11920
509.18305,0.12233
507.25432,0.12670
505.32560,0.13162
503.39688,0.13654
501.46815,0.14156
499.53943,0.14605
497.61071,0.15013
495.68198,0.15577
493.75326,0.16389
491.82453,0.17257
489.89581,0.17976
487.96709,0.18581
486.03836,0.19158
484.10964,0.19726
482.18092,0.20298
480.25219,0.20881
478.32347,0.21454
476.39475,0.21959
474.46602,0.22422
472.53730,0.22973
470.60857,0.23560
468.67985,0.23917
466.75113,0.23937
464.82240,0.23741
462.89368,0.23486
460.96496,0.23249
459.03623,0.23006
457.10751,0.22640
455.17878,0.22058
453.25006,0.21342
451.32134,0.20680
449.39261,0.20153
447.46389,0.19720
445.53517,0.19351
443.60644,0.19006
441.67772,0.18602
439.74900,0.18050
437.82027,0.17305
435.89155,0.16481
433.96282,0.15837
432.03410,0.15516
430.10538,0.15367
428.17665,0.14996
426.24793,0.14195
424.31921,0.13353
422.39048,0.12999
420.46176,0.12882
418.53304,0.12291
416.60431,0.11455
414.67559,0.10981
412.74686,0.10797
410.81814,0.10665
408.88942,0.10428
406.96069,0.09992
405.03197,0.09458
403.10325,0.09136
401.17452,0.09216
399.24580,0.09375
397.31708,0.09072
395.38835,0.08441
393.45963,0.07946
391.53090,0.07549
389.60218,0.06978
387.67346,0.06098
385.74473,0.05683
383.81601,0.06485
381.88729,0.07406
379.95856,0.06748
378.02984,0.04434
376.10111,0.01624
374.17239,0.00000
372.24367,-0.00856
370.31494,-0.00523
368.38622,0.00000
