3996.31543,0.00000
3994.38671,0.00001
3992.45799,0.00005
3990.52926,0.00021
3988.60054,0.00035
3986.67182,0.00026
3984.74309,0.00006
3982.81437,0.00003
3980.88564,0.00019
3978.95692,0.00039
3977.02820,0.00055
3975.09947,0.00062
3973.17075,0.00057
3971.24203,0.00042
3969.31330,0.00024
3967.38458,0.00012
3965.45586,0.00013
3963.52713,0.00021
3961.59841,0.00024
3959.66968,0.00026
3957.74096,0.00040
3955.81224,0.00058
3953.88351,0.00060
3951.95479,0.00053
3950.02607,0.00061
3948.09734,0.00080
3946.16862,0.00085
3944.23990,0.00074
3942.31117,0.00067
3940.38245,0.00069
3938.45372,0.00072
3936.52500,0.00065
3934.59628,0.00050
3932.66755,0.00050
3930.73883,0.00058
3928.81011,0.00049
3926.88138,0.00034
3924.95266,0.00039
3923.02393,0.00050
3921.09521,0.00051
3919.16649,0.00056
3917.23776,0.00073
3915.30904,0.00091
3913.38032,0.00093
3911.45159,0.00078
3909.52287,0.00049
3907.59415,0.00020
3905.66542,0.00021
3903.73670,0.00060
3901.80797,0.00107
3899.87925,0.00133
3897.95053,0.00125
3896.02180,0.00083
3894.09308,0.00051
3892.16436,0.00073
3890.23563,0.00106
3888.30691,0.00087
3886.37819,0.00060
3884.44946,0.00067
3882.52074,0.00081
3880.59201,0.00101
3878.66329,0.00116
3876.73457,0.00097
3874.80584,0.00076
3872.87712,0.00085
3870.94840,0.00117
3869.01967,0.00146
3867.09095,0.00143
3865.16222,0.00140
3863.23350,0.00161
3861.30478,0.00154
3859.37605,0.00090
3857.44733,0.00015
3855.51861,0.00020
3853.58988,0.00163
3851.66116,0.00289
3849.73244,0.00257
3847.80371,0.00159
3845.87499,0.00105
3843.94626,0.00099
3842.01754,0.00109
3840.08882,0.00132
3838.16009,0.00187
3836.23137,0.00237
3834.30265,0.00235
3832.37392,0.00209
3830.44520,0.00192
3828.51648,0.00186
3826.58775,0.00186
3824.65903,0.00180
3822.73030,0.00194
3820.80158,0.00247
3818.87286,0.00273
3816.94413,0.00272
3815.01541,0.00298
3813.08669,0.00300
3811.15796,0.00253
3809.22924,0.00217
3807.30052,0.00231
3805.37179,0.00243
3803.44307,0.00241
3801.51434,0.00297
3799.58562,0.00376
3797.65690,0.00392
3795.72817,0.00371
3793.79945,0.00354
3791.87073,0.00352
3789.94200,0.00368
3788.01328,0.00390
3786.08455,0.00418
3784.15583,0.00446
3782.22711,0.00460
3780.29838,0.00480
3778.36966,0.00525
3776.44094,0.00560
3774.51221,0.00565
3772.58349,0.00565
3770.65477,0.00599
3768.72604,0.00660
3766.79732,0.00709
3764.86859,0.00740
3762.93987,0.00759
3761.01115,0.00784
3759.08242,0.00840
3757.15370,0.00884
3755.22498,0.00869
3753.29625,0.00871
3751.36753,0.00986
3749.43881,0.01134
3747.51008,0.01176
3745.58136,0.01195
3743.65263,0.01294
3741.72391,0.01378
3739.79519,0.01385
3737.86646,0.01412
3735.93774,0.01554
3734.00902,0.01753
3732.08029,0.01891
3730.15157,0.01952
3728.22284,0.02010
3726.29412,0.02131
3724.36540,0.02310
3722.43667,0.02510
3720.50795,0.02729
3718.57923,0.02957
3716.65050,0.03164
3714.72178,0.03368
3712.79306,0.03666
3710.86433,0.04081
3708.93561,0.04462
3707.00688,0.04723
3705.07816,0.04936
3703.14944,0.05211
3701.22071,0.05580
3699.29199,0.05955
3697.36327,0.06272
3695.43454,0.06534
3693.50582,0.06768
3691.57710,0.07063
3689.64837,0.07502
3687.71965,0.07986
3685.79092,0.08348
3683.86220,0.08612
3681.93348,0.08878
3680.00475,0.09178
3678.07603,0.09548
3676.14731,0.10077
3674.21858,0.10631
3672.28986,0.10993
3670.36113,0.11317
3668.43241,0.11696
3666.50369,0.11978
3664.57496,0.12169
3662.64624,0.12373
3660.71752,0.12598
3658.78879,0.12829
3656.86007,0.13096
3654.93135,0.13349
3653.00262,0.13506
3651.07390,0.13699
3649.14517,0.14085
3647.21645,0.14480
3645.28773,0.14669
3643.35900,0.14742
3641.43028,0.14835
3639.50156,0.14974
3637.57283,0.15134
3635.64411,0.15296
3633.71539,0.15436
3631.78666,0.15559
3629.85794,0.15760
3627.92921,0.16038
3626.00049,0.16188
3624.07177,0.16189
3622.14304,0.16198
3620.21432,0.16296
3618.28560,0.16423
3616.35687,0.16484
3614.42815,0.16493
3612.49942,0.16504
3610.57070,0.16532
3608.64198,0.16583
3606.71325,0.16645
3604.78453,0.16678
3602.85581,0.16694
3600.92708,0.16738
3598.99836,0.16804
3597.06964,0.16859
3595.14091,0.16911
3593.21219,0.16965
3591.28346,0.17001
3589.35474,0.17056
3587.42602,0.17175
3585.49729,0.17302
3583.56857,0.17367
3581.63985,0.17390
3579.71112,0.17412
3577.78240,0.17448
3575.85368,0.17491
3573.92495,0.17526
3571.99623,0.17539
3570.06750,0.17552
3568.13878,0.17638
3566.21006,0.17799
3564.28133,0.17922
3562.35261,0.17966
3560.42389,0.17986
3558.49516,0.18011
3556.56644,0.18036
3554.63771,0.18073
3552.70899,0.18143
3550.78027,0.18219
3548.85154,0.18272
3546.92282,0.18340
3544.99410,0.18433
3543.06537,0.18490
3541.13665,0.18488
3539.20793,0.18475
3537.27920,0.18501
3535.35048,0.18563
3533.42175,0.18623
3531.49303,0.18667
3529.56431,0.18719
3527.63558,0.18785
3525.70686,0.18838
3523.77814,0.18871
3521.84941,0.18902
3519.92069,0.18934
3517.99197,0.18963
3516.06324,0.18998
3514.13452,0.19040
3512.20579,0.19076
3510.27707,0.19112
3508.34835,0.19156
3506.41962,0.19194
3504.49090,0.19232
3502.56218,0.19284
3500.63345,0.19330
3498.70473,0.19359
3496.77600,0.19398
3494.84728,0.19464
3492.91856,0.19525
3490.98983,0.19562
3489.06111,0.19593
3487.13239,0.19625
3485.20366,0.19649
3483.27494,0.19686
3481.34622,0.19758
3479.41749,0.19827
3477.48877,0.19856
3475.56004,0.19866
3473.63132,0.19878
3471.70260,0.19904
3469.77387,0.19960
3467.84515,0.20025
3465.91643,0.20059
3463.98770,0.20072
3462.05898,0.20100
3460.13026,0.20144
3458.20153,0.20186
3456.27281,0.20217
3454.34408,0.20247
3452.41536,0.20284
3450.48664,0.20311
3448.55791,0.20325
3446.62919,0.20352
3444.70047,0.20388
3442.77174,0.20414
3440.84302,0.20436
3438.91429,0.20454
3436.98557,0.20465
3435.05685,0.20476
3433.12812,0.20486
3431.19940,0.20503
3429.27068,0.20521
3427.34195,0.20519
3425.41323,0.20507
3423.48451,0.20520
3421.55578,0.20559
3419.62706,0.20589
3417.69833,0.20597
3415.76961,0.20596
3413.84089,0.20589
3411.91216,0.20585
3409.98344,0.20597
3408.05472,0.20601
3406.12599,0.20577
3404.19727,0.20549
3402.26855,0.20543
3400.33982,0.20547
3398.41110,0.20532
3396.48237,0.20504
3394.55365,0.20485
3392.62493,0.20481
3390.69620,0.20484
3388.76748,0.20491
3386.83876,0.20495
3384.91003,0.20481
3382.98131,0.20461
3381.05259,0.20462
3379.12386,0.20468
3377.19514,0.20448
3375.26641,0.20407
3373.33769,0.20363
3371.40897,0.20323
3369.48024,0.20290
3367.55152,0.20264
3365.62280,0.20241
3363.69407,0.20216
3361.76535,0.20190
3359.83662,0.20156
3357.90790,0.20114
3355.97918,0.20073
3354.05045,0.20030
3352.12173,0.19983
3350.19301,0.19949
3348.26428,0.19935
3346.33556,0.19916
3344.40684,0.19879
3342.47811,0.19837
3340.54939,0.19809
3338.62066,0.19788
3336.69194,0.19757
3334.76322,0.19724
3332.83449,0.19691
3330.90577,0.19638
3328.97705,0.19568
3327.04832,0.19511
3325.11960,0.19478
3323.19088,0.19454
3321.26215,0.19420
3319.33343,0.19368
3317.40470,0.19313
3315.47598,0.19278
3313.54726,0.19268
3311.61853,0.19261
3309.68981,0.19232
3307.76109,0.19187
3305.83236,0.19149
3303.90364,0.19116
3301.97491,0.19077
3300.04619,0.19027
3298.11747,0.18974
3296.18874,0.18936
3294.26002,0.18912
3292.33130,0.18893
3290.40257,0.18878
3288.47385,0.18853
3286.54513,0.18804
3284.61640,0.18745
3282.68768,0.18703
3280.75895,0.18672
3278.83023,0.18643
3276.90151,0.18613
3274.97278,0.18577
3273.04406,0.18530
3271.11534,0.18486
3269.18661,0.18462
3267.25789,0.18458
3265.32917,0.18456
3263.40044,0.18436
3261.47172,0.18388
3259.54299,0.18321
3257.61427,0.18265
3255.68555,0.18236
3253.75682,0.18221
3251.82810,0.18198
3249.89938,0.18159
3247.97065,0.18115
3246.04193,0.18074
3244.11320,0.18037
3242.18448,0.17997
3240.25576,0.17947
3238.32703,0.17894
3236.39831,0.17858
3234.46959,0.17832
3232.54086,0.17786
3230.61214,0.17726
3228.68342,0.17682
3226.75469,0.17641
3224.82597,0.17576
3222.89724,0.17506
3220.96852,0.17445
3219.03980,0.17388
3217.11107,0.17341
3215.18235,0.17308
3213.25363,0.17281
3211.32490,0.17244
3209.39618,0.17193
3207.46746,0.17135
3205.53873,0.17065
3203.61001,0.16986
3201.68128,0.16907
3199.75256,0.16829
3197.82384,0.16750
3195.89511,0.16689
3193.96639,0.16658
3192.03767,0.16633
3190.10894,0.16574
3188.18022,0.16490
3186.25149,0.16420
3184.32277,0.16376
3182.39405,0.16334
3180.46532,0.16276
3178.53660,0.16196
3176.60788,0.16098
3174.67915,0.16000
3172.75043,0.15925
3170.82171,0.15873
3168.89298,0.15825
3166.96426,0.15768
3165.03553,0.15705
3163.10681,0.15646
3161.17809,0.15581
3159.24936,0.15512
3157.32064,0.15456
3155.39192,0.15407
3153.46319,0.15340
3151.53447,0.15257
3149.60575,0.15190
3147.67702,0.15139
3145.74830,0.15073
3143.81957,0.14992
3141.89085,0.14919
3139.96213,0.14858
3138.03340,0.14795
3136.10468,0.14727
3134.17596,0.14655
3132.24723,0.14578
3130.31851,0.14499
3128.38978,0.14431
3126.46106,0.14375
3124.53234,0.14319
3122.60361,0.14254
3120.67489,0.14178
3118.74617,0.14103
3116.81744,0.14035
3114.88872,0.13969
3112.96000,0.13913
3111.03127,0.13869
3109.10255,0.13818
3107.17382,0.13750
3105.24510,0.13665
3103.31638,0.13578
3101.38765,0.13510
3099.45893,0.13458
3097.53021,0.13407
3095.60148,0.13346
3093.67276,0.13271
3091.74404,0.13193
3089.81531,0.13123
3087.88659,0.13052
3085.95786,0.12977
3084.02914,0.12905
3082.10042,0.12834
3080.17169,0.12760
3078.24297,0.12689
3076.31425,0.12622
3074.38552,0.12549
3072.45680,0.12473
3070.52807,0.12405
3068.59935,0.12344
3066.67063,0.12282
3064.74190,0.12219
3062.81318,0.12154
3060.88446,0.12084
3058.95573,0.12016
3057.02701,0.11950
3055.09829,0.11879
3053.16956,0.11808
3051.24084,0.11751
3049.31211,0.11697
3047.38339,0.11629
3045.45467,0.11555
3043.52594,0.11494
3041.59722,0.11441
3039.66850,0.11380
3037.73977,0.11304
3035.81105,0.11222
3033.88233,0.11147
3031.95360,0.11087
3030.02488,0.11031
3028.09615,0.10965
3026.16743,0.10897
3024.23871,0.10838
3022.30998,0.10778
3020.38126,0.10704
3018.45254,0.10623
3016.52381,0.10557
3014.59509,0.10514
3012.66636,0.10473
3010.73764,0.10414
3008.80892,0.10345
3006.88019,0.10283
3004.95147,0.10228
3003.02275,0.10164
3001.09402,0.10095
2999.16530,0.10039
2997.23658,0.09988
2995.30785,0.09929
2993.37913,0.09872
2991.45040,0.09823
2989.52168,0.09771
2987.59296,0.09718
2985.66423,0.09668
2983.73551,0.09622
2981.80679,0.09575
2979.87806,0.09519
2977.94934,0.09464
2976.02062,0.09426
2974.09189,0.09383
2972.16317,0.09325
2970.23444,0.09270
2968.30572,0.09225
2966.37700,0.09173
2964.44827,0.09113
2962.51955,0.09065
2960.59083,0.09025
2958.66210,0.08990
2956.73338,0.08961
2954.80466,0.08934
2952.87593,0.08903
2950.94721,0.08857
2949.01848,0.08800
2947.08976,0.08737
2945.16104,0.08672
2943.23231,0.08610
2941.30359,0.08558
2939.37487,0.08505
2937.44614,0.08444
2935.51742,0.08383
2933.58869,0.08321
2931.65997,0.08254
2929.73125,0.08182
2927.80252,0.08108
2925.87380,0.08033
2923.94508,0.07948
2922.01635,0.07849
2920.08763,0.07750
2918.15891,0.07670
2916.23018,0.07616
2914.30146,0.07581
2912.37273,0.07546
2910.44401,0.07505
2908.51529,0.07460
2906.58656,0.07405
2904.65784,0.07337
2902.72912,0.07257
2900.80039,0.07181
2898.87167,0.07122
2896.94295,0.07077
2895.01422,0.07031
2893.08550,0.06968
2891.15677,0.06899
2889.22805,0.06832
2887.29933,0.06765
2885.37060,0.06707
2883.44188,0.06661
2881.51316,0.06608
2879.58443,0.06544
2877.65571,0.06486
2875.72698,0.06446
2873.79826,0.06411
2871.86954,0.06354
2869.94081,0.06274
2868.01209,0.06194
2866.08337,0.06128
2864.15464,0.06061
2862.22592,0.05991
2860.29720,0.05930
2858.36847,0.05880
2856.43975,0.05838
2854.51102,0.05806
2852.58230,0.05765
2850.65358,0.05701
2848.72485,0.05637
2846.79613,0.05588
2844.86741,0.05545
2842.93868,0.05490
2841.00996,0.05419
2839.08124,0.05349
2837.15251,0.05282
2835.22379,0.05207
2833.29506,0.05133
2831.36634,0.05069
2829.43762,0.05012
2827.50889,0.04954
2825.58017,0.04900
2823.65145,0.04854
2821.72272,0.04804
2819.79400,0.04743
2817.86527,0.04681
2815.93655,0.04634
2814.00783,0.04596
2812.07910,0.04554
2810.15038,0.04509
2808.22166,0.04463
2806.29293,0.04415
2804.36421,0.04366
2802.43549,0.04315
2800.50676,0.04266
2798.57804,0.04225
2796.64931,0.04188
2794.72059,0.04148
2792.79187,0.04106
2790.86314,0.04056
2788.93442,0.04000
2787.00570,0.03946
2785.07697,0.03900
2783.14825,0.03858
2781.21953,0.03810
2779.29080,0.03764
2777.36208,0.03730
2775.43335,0.03696
2773.50463,0.03650
2771.57591,0.03600
2769.64718,0.03550
2767.71846,0.03502
2765.78974,0.03459
2763.86101,0.03420
2761.93229,0.03379
2760.00356,0.03339
2758.07484,0.03305
2756.14612,0.03275
2754.21739,0.03242
2752.28867,0.03203
2750.35995,0.03160
2748.43122,0.03114
2746.50250,0.03067
2744.57378,0.03022
2742.64505,0.02983
2740.71633,0.02946
2738.78760,0.02906
2736.85888,0.02867
2734.93016,0.02825
2733.00143,0.02780
2731.07271,0.02743
2729.14399,0.02714
2727.21526,0.02684
2725.28654,0.02651
2723.35782,0.02615
2721.42909,0.02577
2719.50037,0.02541
2717.57164,0.02506
2715.64292,0.02468
2713.71420,0.02427
2711.78547,0.02386
2709.85675,0.02344
2707.92803,0.02305
2705.99930,0.02273
2704.07058,0.02244
2702.14185,0.02215
2700.21313,0.02186
2698.28441,0.02160
2696.35568,0.02126
2694.42696,0.02079
2692.49824,0.02034
2690.56951,0.02004
2688.64079,0.01989
2686.71207,0.01972
2684.78334,0.01942
2682.85462,0.01898
2680.92589,0.01852
2678.99717,0.01814
2677.06845,0.01780
2675.13972,0.01751
2673.21100,0.01729
2671.28228,0.01705
2669.35355,0.01674
2667.42483,0.01642
2665.49611,0.01609
2663.56738,0.01577
2661.63866,0.01553
2659.70993,0.01529
2657.78121,0.01492
2655.85249,0.01455
2653.92376,0.01429
2651.99504,0.01408
2650.06632,0.01378
2648.13759,0.01346
2646.20887,0.01322
2644.28014,0.01298
2642.35142,0.01267
2640.42270,0.01236
2638.49397,0.01209
2636.56525,0.01185
2634.63653,0.01168
2632.70780,0.01151
2630.77908,0.01118
2628.85036,0.01076
2626.92163,0.01053
2624.99291,0.01044
2623.06418,0.01032
2621.13546,0.01011
2619.20674,0.00989
2617.27801,0.00963
2615.34929,0.00930
2613.42057,0.00898
2611.49184,0.00873
2609.56312,0.00854
2607.63440,0.00832
2605.70567,0.00810
2603.77695,0.00789
2601.84822,0.00762
2599.91950,0.00736
2597.99078,0.00722
2596.06205,0.00713
2594.13333,0.00696
2592.20461,0.00675
2590.27588,0.00657
2588.34716,0.00637
2586.41843,0.00612
2584.48971,0.00597
2582.56099,0.00589
2580.63226,0.00572
2578.70354,0.00547
2576.77482,0.00525
2574.84609,0.00510
2572.91737,0.00495
2570.98865,0.00482
2569.05992,0.00473
2567.13120,0.00458
2565.20247,0.00432
2563.27375,0.00405
2561.34503,0.00390
2559.41630,0.00387
2557.48758,0.00384
2555.55886,0.00372
2553.63013,0.00357
2551.70141,0.00348
2549.77269,0.00338
2547.84396,0.00320
2545.91524,0.00305
2543.98651,0.00296
2542.05779,0.00285
2540.12907,0.00270
2538.20034,0.00257
2536.27162,0.00247
2534.34290,0.00238
2532.41417,0.00228
2530.48545,0.00218
2528.55673,0.00211
2526.62800,0.00204
2524.69928,0.00191
2522.77055,0.00171
2520.84183,0.00155
2518.91311,0.00143
2516.98438,0.00134
2515.05566,0.00123
2513.12694,0.00110
2511.19821,0.00102
2509.26949,0.00096
2507.34076,0.00094
2505.41204,0.00092
2503.48332,0.00088
2501.55459,0.00085
2499.62587,0.00084
2497.69715,0.00081
2495.76842,0.00078
2493.83970,0.00074
2491.91098,0.00067
2489.98225,0.00056
2488.05353,0.00051
2486.12480,0.00051
2484.19608,0.00048
2482.26736,0.00042
2480.33863,0.00039
2478.40991,0.00037
2476.48119,0.00033
2474.55246,0.00030
2472.62374,0.00025
2470.69502,0.00023
2468.76629,0.00025
2466.83757,0.00021
2464.90884,0.00012
2462.98012,0.00004
2461.05140,0.00000
2459.12267,0.00001
2457.19395,0.00004
2455.26523,0.00008
2453.33650,0.00013
2451.40778,0.00019
2449.47905,0.00023
2447.55033,0.00022
2445.62161,0.00015
2443.69288,0.00005
2441.76416,-0.00007
2439.83544,-0.00013
2437.90671,-0.00009
2435.97799,-0.00004
2434.04927,-0.00002
2432.12054,-0.00001
2430.19182,0.00000
2428.26309,-0.00003
2426.33437,-0.00004
2424.40565,-0.00000
2422.47692,-0.00000
2420.54820,-0.00006
2418.61948,-0.00011
2416.69075,-0.00015
2414.76203,-0.00016
2412.83331,-0.00014
2410.90458,-0.00008
2408.97586,-0.00004
2407.04713,-0.00006
2405.11841,-0.00011
2403.18969,-0.00014
2401.26096,-0.00017
2399.33224,-0.00022
2397.40352,-0.00021
2395.47479,-0.00015
2393.54607,-0.00012
2391.61734,-0.00011
2389.68862,-0.00007
2387.75990,0.00000
2385.83117,0.00004
2383.90245,0.00002
2381.97373,-0.00001
2380.04500,-0.00005
2378.11628,-0.00010
2376.18756,-0.00010
2374.25883,0.00000
2372.33011,0.00018
2370.40138,0.00033
2368.47266,0.00039
2366.54394,0.00038
2364.61521,0.00028
2362.68649,0.00016
2360.75777,0.00013
2358.82904,0.00017
2356.90032,0.00020
2354.97160,0.00023
2353.04287,0.00049
2351.11415,0.00100
2349.18542,0.00114
2347.25670,0.00059
2345.32798,-0.00001
2343.39925,-0.00008
2341.47053,0.00014
2339.54181,0.00037
2337.61308,0.00053
2335.68436,0.00058
2333.75563,0.00056
2331.82691,0.00049
2329.89819,0.00035
2327.96946,0.00028
2326.04074,0.00036
2324.11202,0.00049
2322.18329,0.00056
2320.25457,0.00060
2318.32585,0.00064
2316.39712,0.00063
2314.46840,0.00055
2312.53967,0.00048
2310.61095,0.00052
2308.68223,0.00065
2306.75350,0.00078
2304.82478,0.00084
2302.89606,0.00083
2300.96733,0.00078
2299.03861,0.00074
2297.10989,0.00072
2295.18116,0.00077
2293.25244,0.00089
2291.32371,0.00100
2289.39499,0.00103
2287.46627,0.00099
2285.53754,0.00098
2283.60882,0.00101
2281.68010,0.00101
2279.75137,0.00100
2277.82265,0.00107
2275.89392,0.00121
2273.96520,0.00133
2272.03648,0.00138
2270.10775,0.00139
2268.17903,0.00137
2266.25031,0.00133
2264.32158,0.00128
2262.39286,0.00120
2260.46414,0.00110
2258.53541,0.00108
2256.60669,0.00115
2254.67796,0.00117
2252.74924,0.00113
2250.82052,0.00109
2248.89179,0.00103
2246.96307,0.00109
2245.03435,0.00116
2243.10562,0.00114
2241.17690,0.00112
2239.24818,0.00119
2237.31945,0.00131
2235.39073,0.00134
2233.46200,0.00128
2231.53328,0.00118
2229.60456,0.00111
2227.67583,0.00112
2225.74711,0.00111
2223.81839,0.00102
2221.88966,0.00093
2219.96094,0.00091
2218.03221,0.00092
2216.10349,0.00092
2214.17477,0.00090
2212.24604,0.00088
2210.31732,0.00084
2208.38860,0.00080
2206.45987,0.00076
2204.53115,0.00073
2202.60243,0.00070
2200.67370,0.00062
2198.74498,0.00057
2196.81625,0.00059
2194.88753,0.00062
2192.95881,0.00055
2191.03008,0.00042
2189.10136,0.00033
2187.17264,0.00031
2185.24391,0.00031
2183.31519,0.00034
2181.38647,0.00043
2179.45774,0.00049
2177.52902,0.00041
2175.60029,0.00032
2173.67157,0.00030
2171.74285,0.00031
2169.81412,0.00031
2167.88540,0.00035
2165.95668,0.00038
2164.02795,0.00037
2162.09923,0.00038
2160.17050,0.00045
2158.24178,0.00054
2156.31306,0.00059
2154.38433,0.00056
2152.45561,0.00052
2150.52689,0.00050
2148.59816,0.00049
2146.66944,0.00050
2144.74072,0.00054
2142.81199,0.00056
2140.88327,0.00054
2138.95454,0.00053
2137.02582,0.00053
2135.09710,0.00051
2133.16837,0.00042
2131.23965,0.00036
2129.31093,0.00035
2127.38220,0.00035
2125.45348,0.00031
2123.52476,0.00026
2121.59603,0.00020
2119.66731,0.00014
2117.73858,0.00010
2115.80986,0.00005
2113.88114,0.00002
2111.95241,0.00002
2110.02369,0.00003
2108.09497,0.00003
2106.16624,0.00000
2104.23752,-0.00006
2102.30880,-0.00007
2100.38007,-0.00006
2098.45135,-0.00002
2096.52262,0.00002
2094.59390,0.00000
2092.66518,-0.00015
2090.73645,-0.00021
2088.80773,-0.00020
2086.87901,-0.00021
2084.95028,-0.00029
2083.02156,-0.00039
2081.09283,-0.00044
2079.16411,-0.00038
2077.23539,-0.00027
2075.30666,-0.00020
2073.37794,-0.00018
2071.44922,-0.00016
2069.52049,-0.00008
2067.59177,0.00005
2065.66305,0.00017
2063.73432,0.00028
2061.80560,0.00042
2059.87687,0.00058
2057.94815,0.00071
2056.01943,0.00088
2054.09070,0.00110
2052.16198,0.00134
2050.23326,0.00155
2048.30453,0.00177
2046.37581,0.00207
2044.44709,0.00246
2042.51836,0.00288
2040.58964,0.00327
2038.66091,0.00364
2036.73219,0.00404
2034.80347,0.00443
2032.87474,0.00476
2030.94602,0.00508
2029.01730,0.00546
2027.08857,0.00581
2025.15985,0.00604
2023.23112,0.00626
2021.30240,0.00654
2019.37368,0.00682
2017.44495,0.00711
2015.51623,0.00743
2013.58751,0.00775
2011.65878,0.00803
2009.73006,0.00826
2007.80134,0.00847
2005.87261,0.00867
2003.94389,0.00884
2002.01516,0.00894
2000.08644,0.00897
1998.15772,0.00892
1996.22899,0.00885
1994.30027,0.00886
1992.37155,0.00894
1990.44282,0.00896
1988.51410,0.00880
1986.58538,0.00857
1984.65665,0.00840
1982.72793,0.00831
1980.79920,0.00820
1978.87048,0.00805
1976.94176,0.00788
1975.01303,0.00766
1973.08431,0.00740
1971.15559,0.00714
1969.22686,0.00688
1967.29814,0.00663
1965.36941,0.00636
1963.44069,0.00604
1961.51197,0.00576
1959.58324,0.00557
1957.65452,0.00540
1955.72580,0.00521
1953.79707,0.00502
1951.86835,0.00481
1949.93963,0.00456
1948.01090,0.00427
1946.08218,0.00397
1944.15345,0.00376
1942.22473,0.00369
1940.29601,0.00359
1938.36728,0.00337
1936.43856,0.00316
1934.50984,0.00305
1932.58111,0.00304
1930.65239,0.00309
1928.72367,0.00313
1926.79494,0.00316
1924.86622,0.00325
1922.93749,0.00346
1921.00877,0.00373
1919.08005,0.00411
1917.15132,0.00461
1915.22260,0.00506
1913.29388,0.00548
1911.36515,0.00610
1909.43643,0.00689
1907.50770,0.00770
1905.57898,0.00841
1903.65026,0.00909
1901.72153,0.00982
1899.79281,0.01054
1897.86409,0.01122
1895.93536,0.01192
1894.00664,0.01264
1892.07792,0.01331
1890.14919,0.01398
1888.22047,0.01458
1886.29174,0.01499
1884.36302,0.01533
1882.43430,0.01567
1880.50557,0.01598
1878.57685,0.01621
1876.64813,0.01630
1874.71940,0.01626
1872.79068,0.01611
1870.86196,0.01599
1868.93323,0.01596
1867.00451,0.01581
1865.07578,0.01530
1863.14706,0.01460
1861.21834,0.01388
1859.28961,0.01310
1857.36089,0.01222
1855.43217,0.01131
1853.50344,0.01043
1851.57472,0.00955
1849.64599,0.00863
1847.71727,0.00771
1845.78855,0.00692
1843.85982,0.00633
1841.93110,0.00577
1840.00238,0.00509
1838.07365,0.00439
1836.14493,0.00375
1834.21621,0.00314
1832.28748,0.00267
1830.35876,0.00245
1828.43003,0.00233
1826.50131,0.00211
1824.57259,0.00181
1822.64386,0.00145
1820.71514,0.00106
1818.78642,0.00080
1816.85769,0.00071
1814.92897,0.00065
1813.00025,0.00055
1811.07152,0.00054
1809.14280,0.00060
1807.21407,0.00062
1805.28535,0.00055
1803.35663,0.00051
1801.42790,0.00063
1799.49918,0.00080
1797.57046,0.00079
1795.64173,0.00063
1793.71301,0.00067
1791.78428,0.00101
1789.85556,0.00122
1787.92684,0.00114
1785.99811,0.00104
1784.06939,0.00107
1782.14067,0.00115
1780.21194,0.00119
1778.28322,0.00116
1776.35450,0.00104
1774.42577,0.00101
1772.49705,0.00124
1770.56832,0.00152
1768.63960,0.00158
1766.71088,0.00144
1764.78215,0.00129
1762.85343,0.00131
1760.92471,0.00150
1758.99598,0.00156
1757.06726,0.00146
1755.13854,0.00126
1753.20981,0.00107
1751.28109,0.00124
1749.35236,0.00177
1747.42364,0.00214
1745.49492,0.00217
1743.56619,0.00210
1741.63747,0.00218
1739.70875,0.00249
1737.78002,0.00281
1735.85130,0.00338
1733.92257,0.00469
1731.99385,0.00613
1730.06513,0.00697
1728.13640,0.00759
1726.20768,0.00838
1724.27896,0.00937
1722.35023,0.01030
1720.42151,0.01114
1718.49279,0.01262
1716.56406,0.01494
1714.63534,0.01692
1712.70661,0.01817
1710.77789,0.01924
1708.84917,0.02054
1706.92044,0.02219
1704.99172,0.02394
1703.06300,0.02549
1701.13427,0.02747
1699.20555,0.03024
1697.27683,0.03286
1695.34810,0.03505
1693.41938,0.03682
1691.49065,0.03833
1689.56193,0.03989
1687.63321,0.04144
1685.70448,0.04355
1683.77576,0.04691
1681.84704,0.04998
1679.91831,0.05171
1677.98959,0.05294
1676.06087,0.05460
1674.13214,0.05664
1672.20342,0.05856
1670.27469,0.06068
1668.34597,0.06298
1666.41725,0.06466
1664.48852,0.06610
1662.55980,0.06805
1660.63108,0.06997
1658.70235,0.07106
1656.77363,0.07160
1654.84490,0.07281
1652.91618,0.07537
1650.98746,0.07742
1649.05873,0.07829
1647.13001,0.07945
1645.20129,0.08094
1643.27256,0.08169
1641.34384,0.08180
1639.41512,0.08185
1637.48639,0.08231
1635.55767,0.08318
1633.62894,0.08354
1631.70022,0.08310
1629.77150,0.08238
1627.84277,0.08167
1625.91405,0.08086
1623.98533,0.07985
1622.05660,0.07858
1620.12788,0.07701
1618.19916,0.07519
1616.27043,0.07322
1614.34171,0.07118
1612.41298,0.06906
1610.48426,0.06674
1608.55554,0.06418
1606.62681,0.06147
1604.69809,0.05876
1602.76937,0.05619
1600.84064,0.05379
1598.91192,0.05155
1596.98319,0.04944
1595.05447,0.04744
1593.12575,0.04555
1591.19702,0.04376
1589.26830,0.04208
1587.33958,0.04051
1585.41085,0.03904
1583.48213,0.03763
1581.55341,0.03617
1579.62468,0.03466
1577.69596,0.03325
1575.76723,0.03218
1573.83851,0.03130
1571.90979,0.03039
1569.98106,0.02960
1568.05234,0.02897
1566.12362,0.02823
1564.19489,0.02727
1562.26617,0.02618
1560.33745,0.02544
1558.40872,0.02540
1556.48000,0.02528
1554.55127,0.02471
1552.62255,0.02407
1550.69383,0.02346
1548.76510,0.02271
1546.83638,0.02177
1544.90766,0.02083
1542.97893,0.02004
1541.05021,0.01950
1539.12148,0.01908
1537.19276,0.01847
1535.26404,0.01779
1533.33531,0.01726
1531.40659,0.01673
1529.47787,0.01604
1527.54914,0.01537
1525.62042,0.01476
1523.69170,0.01410
1521.76297,0.01343
1519.83425,0.01283
1517.90552,0.01218
1515.97680,0.01138
1514.04808,0.01041
1512.11935,0.00931
1510.19063,0.00823
1508.26191,0.00744
1506.33318,0.00691
1504.40446,0.00620
1502.47574,0.00521
1500.54701,0.00421
1498.61829,0.00346
1496.68956,0.00292
1494.76084,0.00235
1492.83212,0.00175
1490.90339,0.00149
1488.97467,0.00158
1487.04595,0.00144
1485.11722,0.00091
1483.18850,0.00039
1481.25977,0.00012
1479.33105,0.00000
1477.40233,-0.00013
1475.47360,-0.00006
1473.54488,0.00045
1471.61616,0.00113
1469.68743,0.00140
1467.75871,0.00144
1465.82999,0.00179
1463.90126,0.00233
1461.97254,0.00246
1460.04381,0.00235
1458.11509,0.00283
1456.18637,0.00390
1454.25764,0.00437
1452.32892,0.00412
1450.40020,0.00384
1448.47147,0.00394
1446.54275,0.00430
1444.61403,0.00459
1442.68530,0.00473
1440.75658,0.00478
1438.82785,0.00487
1436.89913,0.00528
1434.97041,0.00580
1433.04168,0.00602
1431.11296,0.00612
1429.18424,0.00635
1427.25551,0.00658
1425.32679,0.00669
1423.39806,0.00675
1421.46934,0.00693
1419.54062,0.00745
1417.61189,0.00806
1415.68317,0.00827
1413.75445,0.00830
1411.82572,0.00843
1409.89700,0.00857
1407.96828,0.00863
1406.03955,0.00881
1404.11083,0.00908
1402.18210,0.00915
1400.25338,0.00895
1398.32466,0.00859
1396.39593,0.00799
1394.46721,0.00714
1392.53849,0.00616
1390.60976,0.00530
1388.68104,0.00475
1386.75232,0.00445
1384.82359,0.00409
1382.89487,0.00352
1380.96614,0.00289
1379.03742,0.00234
1377.10870,0.00193
1375.17997,0.00166
1373.25125,0.00143
1371.32253,0.00116
1369.39380,0.00081
1367.46508,0.00039
1365.53635,0.00000
1363.60763,-0.00029
1361.67891,-0.00039
1359.75018,-0.00059
1357.82146,-0.00096
1355.89274,-0.00128
1353.96401,-0.00144
1352.03529,-0.00153
1350.10657,-0.00162
1348.17784,-0.00167
1346.24912,-0.00169
1344.32039,-0.00174
1342.39167,-0.00179
1340.46295,-0.00166
1338.53422,-0.00137
1336.60550,-0.00116
1334.67678,-0.00117
1332.74805,-0.00129
1330.81933,-0.00129
1328.89061,-0.00102
1326.96188,-0.00065
1325.03316,-0.00037
1323.10443,-0.00015
1321.17571,0.00014
1319.24699,0.00050
1317.31826,0.00081
1315.38954,0.00104
1313.46082,0.00132
1311.53209,0.00171
1309.60337,0.00218
1307.67464,0.00268
1305.74592,0.00321
1303.81720,0.00380
1301.88847,0.00457
1299.95975,0.00556
1298.03103,0.00663
1296.10230,0.00767
1294.17358,0.00872
1292.24486,0.00992
1290.31613,0.01138
1288.38741,0.01308
1286.45868,0.01487
1284.52996,0.01667
1282.60124,0.01861
1280.67251,0.02083
1278.74379,0.02328
1276.81507,0.02586
1274.88634,0.02860
1272.95762,0.03162
1271.02890,0.03506
1269.10017,0.03892
1267.17145,0.04308
1265.24272,0.04759
1263.31400,0.05265
1261.38528,0.05843
1259.45655,0.06489
1257.52783,0.07175
1255.59911,0.07869
1253.67038,0.08561
1251.74166,0.09249
1249.81294,0.09914
1247.88421,0.10526
1245.95549,0.11070
1244.02676,0.11563
1242.09804,0.12034
1240.16932,0.12488
1238.24059,0.12924
1236.31187,0.13330
1234.38315,0.13689
1232.45442,0.14005
1230.52570,0.14294
1228.59697,0.14564
1226.66825,0.14821
1224.73953,0.15072
1222.81080,0.15318
1220.88208,0.15548
1218.95336,0.15755
1217.02463,0.15960
1215.09591,0.16181
1213.16719,0.16412
1211.23846,0.16642
1209.30974,0.16845
1207.38101,0.17007
1205.45229,0.17155
1203.52357,0.17314
1201.59484,0.17494
1199.66612,0.17684
1197.73740,0.17856
1195.80867,0.17998
1193.87995,0.18140
1191.95123,0.18309
1190.02250,0.18493
1188.09378,0.18661
1186.16505,0.18811
1184.23633,0.18975
1182.30761,0.19149
1180.37888,0.19305
1178.45016,0.19466
1176.52144,0.19670
1174.59271,0.19873
1172.66399,0.20033
1170.73526,0.20202
1168.80654,0.20391
1166.87782,0.20545
1164.94909,0.20663
1163.02037,0.20778
1161.09165,0.20901
1159.16292,0.21037
1157.23420,0.21185
1155.30548,0.21336
1153.37675,0.21478
1151.44803,0.21598
1149.51930,0.21694
1147.59058,0.21786
1145.66186,0.21883
1143.73313,0.21983
1141.80441,0.22099
1139.87569,0.22223
1137.94696,0.22334
1136.01824,0.22442
1134.08952,0.22566
1132.16079,0.22709
1130.23207,0.22853
1128.30334,0.22981
1126.37462,0.23116
1124.44590,0.23286
1122.51717,0.23485
1120.58845,0.23693
1118.65973,0.23907
1116.73100,0.24129
1114.80228,0.24338
1112.87355,0.24555
1110.94483,0.24836
1109.01611,0.25156
1107.08738,0.25457
1105.15866,0.25740
1103.22994,0.26009
1101.30121,0.26232
1099.37249,0.26431
1097.44377,0.26638
1095.51504,0.26820
1093.58632,0.26942
1091.65759,0.27032
1089.72887,0.27133
1087.80015,0.27213
1085.87142,0.27228
1083.94270,0.27223
1082.01398,0.27246
1080.08525,0.27268
1078.15653,0.27229
1076.22781,0.27140
1074.29908,0.27085
1072.37036,0.27109
1070.44163,0.27154
1068.51291,0.27137
1066.58419,0.27056
1064.65546,0.26961
1062.72674,0.26905
1060.79802,0.26893
1058.86929,0.26882
1056.94057,0.26827
1055.01184,0.26726
1053.08312,0.26610
1051.15440,0.26517
1049.22567,0.26440
1047.29695,0.26335
1045.36823,0.26211
1043.43950,0.26115
1041.51078,0.26039
1039.58206,0.25940
1037.65333,0.25787
1035.72461,0.25601
1033.79588,0.25407
1031.86716,0.25192
1029.93844,0.24944
1028.00971,0.24681
1026.08099,0.24431
1024.15227,0.24206
1022.22354,0.23994
1020.29482,0.23767
1018.36610,0.23500
1016.43737,0.23202
1014.50865,0.22907
1012.57992,0.22598
1010.65120,0.22265
1008.72248,0.21946
1006.79375,0.21638
1004.86503,0.21304
1002.93631,0.20919
1001.00758,0.20497
999.07886,0.20071
997.15013,0.19661
995.22141,0.19273
993.29269,0.18896
991.36396,0.18504
989.43524,0.18084
987.50652,0.17678
985.57779,0.17331
983.64907,0.17009
981.72035,0.16676
979.79162,0.16370
977.86290,0.16108
975.93417,0.15850
974.00545,0.15588
972.07673,0.15335
970.14800,0.15079
968.21928,0.14833
966.29056,0.14604
964.36183,0.14385
962.43311,0.14198
960.50439,0.14050
958.57566,0.13889
956.64694,0.13685
954.71821,0.13472
952.78949,0.13267
950.86077,0.13057
948.93204,0.12844
947.00332,0.12626
945.07460,0.12384
943.14587,0.12118
941.21715,0.11840
939.28842,0.11558
937.35970,0.11299
935.43098,0.11063
933.50225,0.10802
931.57353,0.10499
929.64481,0.10199
927.71608,0.09944
925.78736,0.09731
923.85864,0.09528
921.92991,0.09298
920.00119,0.09043
918.07246,0.08796
916.14374,0.08557
914.21502,0.08300
912.28629,0.08017
910.35757,0.07718
908.42885,0.07394
906.50012,0.07036
904.57140,0.06664
902.64268,0.06314
900.71395,0.05988
898.78523,0.05671
896.85650,0.05341
894.92778,0.04986
892.99906,0.04652
891.07033,0.04402
889.14161,0.04189
887.21289,0.03963
885.28416,0.03733
883.35544,0.03495
881.42671,0.03251
879.49799,0.02998
877.56927,0.02742
875.64054,0.02531
873.71182,0.02373
871.78310,0.02229
869.85437,0.02073
867.92565,0.01906
865.99693,0.01751
864.06820,0.01625
862.13948,0.01508
860.21075,0.01414
858.28203,0.01357
856.35331,0.01292
854.42458,0.01195
852.49586,0.01112
850.56714,0.01094
848.63841,0.01152
846.70969,0.01243
844.78097,0.01355
842.85224,0.01528
840.92352,0.01754
838.99479,0.01995
837.06607,0.02258
835.13735,0.02538
833.20862,0.02789
831.27990,0.02999
829.35118,0.03195
827.42245,0.03411
825.49373,0.03687
823.56501,0.04018
821.63628,0.04321
819.70756,0.04551
817.77883,0.04756
815.85011,0.04991
813.92139,0.05252
811.99266,0.05491
810.06394,0.05718
808.13522,0.05979
806.20649,0.06265
804.27777,0.06523
802.34904,0.06710
800.42032,0.06836
798.49160,0.06926
796.56287,0.06957
794.63415,0.06914
792.70543,0.06812
790.77670,0.06662
788.84798,0.06488
786.91926,0.06324
784.99053,0.06187
783.06181,0.06043
781.13308,0.05828
779.20436,0.05532
777.27564,0.05194
775.34691,0.04839
773.41819,0.04500
771.48947,0.04210
769.56074,0.03976
767.63202,0.03804
765.70330,0.03704
763.77457,0.03650
761.84585,0.03587
759.91712,0.03500
757.98840,0.03437
756.05968,0.03404
754.13095,0.03343
752.20223,0.03250
750.27351,0.03169
748.34478,0.03099
746.41606,0.03007
744.48733,0.02915
742.55861,0.02869
740.62989,0.02841
738.70116,0.02793
736.77244,0.02768
734.84372,0.02764
732.91499,0.02708
730.98627,0.02610
729.05755,0.02521
727.12882,0.02449
725.20010,0.02386
723.27137,0.02313
721.34265,0.02255
719.41393,0.02230
717.48520,0.02240
715.55648,0.02239
713.62776,0.02182
711.69903,0.02090
709.77031,0.02012
707.84159,0.01985
705.91286,0.02000
703.98414,0.02018
702.05541,0.02035
700.12669,0.02080
698.19797,0.02154
696.26924,0.02208
694.34052,0.02220
692.41180,0.02194
690.48307,0.02116
688.55435,0.02016
686.62562,0.01979
684.69690,0.01998
682.76818,0.01985
680.83945,0.01917
678.91073,0.01837
676.98201,0.01786
675.05328,0.01800
673.12456,0.01858
671.19584,0.01839
669.26711,0.01729
667.33839,0.01714
665.40966,0.01792
663.48094,0.01770
661.55222,0.01660
659.62349,0.01611
657.69477,0.01683
655.76605,0.01833
653.83732,0.01978
651.90860,0.02057
649.97988,0.02063
648.05115,0.02060
646.12243,0.02104
644.19370,0.02187
642.26498,0.02274
640.33626,0.02345
638.40753,0.02396
636.47881,0.02412
634.55009,0.02396
632.62136,0.02370
630.69264,0.02326
628.76391,0.02255
626.83519,0.02203
624.90647,0.02197
622.97774,0.02196
621.04902,0.02218
619.12030,0.02278
617.19157,0.02334
615.26285,0.02390
613.33413,0.02509
611.40540,0.02704
609.47668,0.02874
607.54795,0.02939
605.61923,0.02987
603.69051,0.03120
601.76178,0.03285
599.83306,0.03406
597.90434,0.03526
595.97561,0.03701
594.04689,0.03858
592.11817,0.03914
590.18944,0.03942
588.26072,0.04035
586.33199,0.04115
584.40327,0.04115
582.47455,0.04163
580.54582,0.04313
578.61710,0.04383
576.68838,0.04311
574.75965,0.04284
572.83093,0.04400
570.90220,0.04599
568.97348,0.04793
567.04476,0.04886
565.11603,0.04880
563.18731,0.04914
561.25859,0.05035
559.32986,0.05133
557.40114,0.05157
555.47242,0.05196
553.54369,0.05350
551.61497,0.05601
549.68624,0.05848
547.75752,0.06099
545.82880,0.06444
543.90007,0.06816
541.97135,0.07040
540.04263,0.07087
538.11390,0.07052
536.18518,0.07022
534.25646,0.07074
532.32773,0.07218
530.39901,0.07341
528.47028,0.07334
526.54156,0.07185
524.61284,0.07043
522.68411,0.07044
520.75539,0.07118
518.82667,0.07205
516.89794,0.07359
514.96922,0.07523
513.04049,0.07546
511.11177,0.07446
509.18305,0.07466
507.25432,0.07757
505.32560,0.08119
503.39688,0.08365
501.46815,0.08634
499.53943,0.09099
497.61071,0.09749
495.68198,0.10451
493.75326,0.11054
491.82453,0.11554
489.89581,0.12043
487.96709,0.12525
486.03836,0.13023
484.10964,0.13703
482.18092,0.14544
480.25219,0.15252
478.32347,0.15695
476.39475,0.15939
474.46602,0.16102
472.53730,0.16370
470.60857,0.16704
468.67985,0.16827
466.75113,0.16760
464.82240,0.16739
462.89368,0.16736
460.96496,0.16546
459.03623,0.16124
457.10751,0.15684
455.17878,0.15549
453.25006,0.15680
451.32134,0.15629
449.39261,0.15178
447.46389,0.14576
445.53517,0.14108
443.60644,0.13777
441.67772,0.13315
439.74900,0.12749
437.82027,0.12452
435.89155,0.12354
433.96282,0.12154
432.03410,0.11910
430.10538,0.11642
428.17665,0.11207
426.24793,0.10688
424.31921,0.10296
422.39048,0.09939
420.46176,0.09086
418.53304,0.07594
416.60431,0.06547
414.67559,0.06644
412.74686,0.07246
410.81814,0.07325
408.88942,0.06411
406.96069,0.05170
405.03197,0.04659
403.10325,0.04741
401.17452,0.04456
399.24580,0.03406
397.31708,0.01800
395.38835,0.00401
393.45963,0.00000
391.53090,0.00459
389.60218,0.01649
387.67346,0.03613
385.74473,0.05602
383.81601,0.05797
381.88729,0.03579
379.95856,0.01079
378.02984,0.00571
376.10111,0.01553
374.17239,0.01363
372.24367,0.00421
370.31494,0.00349
368.38622,0.00000
