3996.31543,0.00000
3994.38671,0.00010
3992.45799,0.00022
3990.52926,0.00028
3988.60054,0.00025
3986.67182,0.00017
3984.74309,0.00021
3982.81437,0.00033
3980.88564,0.00034
3978.95692,0.00029
3977.02820,0.00033
3975.09947,0.00045
3973.17075,0.00059
3971.24203,0.00071
3969.31330,0.00078
3967.38458,0.00084
3965.45586,0.00092
3963.52713,0.00098
3961.59841,0.00098
3959.66968,0.00099
3957.74096,0.00104
3955.81224,0.00110
3953.88351,0.00110
3951.95479,0.00103
3950.02607,0.00091
3948.09734,0.00085
3946.16862,0.00091
3944.23990,0.00095
3942.31117,0.00083
3940.38245,0.00062
3938.45372,0.00045
3936.52500,0.00041
3934.59628,0.00050
3932.66755,0.00064
3930.73883,0.00077
3928.81011,0.00091
3926.88138,0.00104
3924.95266,0.00105
3923.02393,0.00089
3921.09521,0.00071
3919.16649,0.00067
3917.23776,0.00074
3915.30904,0.00081
3913.38032,0.00077
3911.45159,0.00066
3909.52287,0.00061
3907.59415,0.00067
3905.66542,0.00072
3903.73670,0.00067
3901.80797,0.00069
3899.87925,0.00067
3897.95053,0.00047
3896.02180,0.00035
3894.09308,0.00052
3892.16436,0.00075
3890.23563,0.00069
3888.30691,0.00049
3886.37819,0.00041
3884.44946,0.00048
3882.52074,0.00059
3880.59201,0.00051
3878.66329,0.00028
3876.73457,0.00021
3874.80584,0.00034
3872.87712,0.00052
3870.94840,0.00067
3869.01967,0.00067
3867.09095,0.00060
3865.16222,0.00051
3863.23350,0.00027
3861.30478,0.00000
3859.37605,0.00001
3857.44733,0.00048
3855.51861,0.00107
3853.58988,0.00104
3851.66116,0.00035
3849.73244,-0.00005
3847.80371,-0.00007
3845.87499,-0.00004
3843.94626,0.00005
3842.01754,0.00031
3840.08882,0.00052
3838.16009,0.00039
3836.23137,0.00014
3834.30265,0.00014
3832.37392,0.00027
3830.44520,0.00031
3828.51648,0.00022
3826.58775,0.00015
3824.65903,0.00029
3822.73030,0.00056
3820.80158,0.00061
3818.87286,0.00045
3816.94413,0.00039
3815.01541,0.00034
3813.08669,0.00030
3811.15796,0.00046
3809.22924,0.00073
3807.30052,0.00092
3805.37179,0.00116
3803.44307,0.00160
3801.51434,0.00195
3799.58562,0.00193
3797.65690,0.00182
3795.72817,0.00171
3793.79945,0.00157
3791.87073,0.00154
3789.94200,0.00180
3788.01328,0.00227
3786.08455,0.00272
3784.15583,0.00293
3782.22711,0.00297
3780.29838,0.00310
3778.36966,0.00347
3776.44094,0.00399
3774.51221,0.00450
3772.58349,0.00502
3770.65477,0.00555
3768.72604,0.00599
3766.79732,0.00627
3764.86859,0.00645
3762.93987,0.00672
3761.01115,0.00722
3759.08242,0.00790
3757.15370,0.00866
3755.22498,0.00961
3753.29625,0.01090
3751.36753,0.01225
3749.43881,0.01307
3747.51008,0.01345
3745.58136,0.01398
3743.65263,0.01477
3741.72391,0.01567
3739.79519,0.01674
3737.86646,0.01816
3735.93774,0.01994
3734.00902,0.02178
3732.08029,0.02360
3730.15157,0.02534
3728.22284,0.02705
3726.29412,0.02902
3724.36540,0.03141
3722.43667,0.03407
3720.50795,0.03679
3718.57923,0.03949
3716.65050,0.04220
3714.72178,0.04512
3712.79306,0.04868
3710.86433,0.05282
3708.93561,0.05668
3707.00688,0.05992
3705.07816,0.06315
3703.14944,0.06714
3701.22071,0.07186
3699.29199,0.07642
3697.36327,0.08043
3695.43454,0.08423
3693.50582,0.08809
3691.57710,0.09234
3689.64837,0.09718
3687.71965,0.10195
3685.79092,0.10613
3683.86220,0.11001
3681.93348,0.11409
3680.00475,0.11849
3678.07603,0.12332
3676.14731,0.12894
3674.21858,0.13467
3672.28986,0.13958
3670.36113,0.14465
3668.43241,0.15000
3666.50369,0.15442
3664.57496,0.15818
3662.64624,0.16209
3660.71752,0.16621
3658.78879,0.17030
3656.86007,0.17437
3654.93135,0.17827
3653.00262,0.18178
3651.07390,0.18552
3649.14517,0.18994
3647.21645,0.19398
3645.28773,0.19690
3643.35900,0.19940
3641.43028,0.20221
3639.50156,0.20523
3637.57283,0.20812
3635.64411,0.21086
3633.71539,0.21347
3631.78666,0.21610
3629.85794,0.21915
3627.92921,0.22252
3626.00049,0.22528
3624.07177,0.22746
3622.14304,0.22968
3620.21432,0.23204
3618.28560,0.23406
3616.35687,0.23556
3614.42815,0.23709
3612.49942,0.23893
3610.57070,0.24079
3608.64198,0.24261
3606.71325,0.24453
3604.78453,0.24625
3602.85581,0.24770
3600.92708,0.24928
3598.99836,0.25108
3597.06964,0.25283
3595.14091,0.25456
3593.21219,0.25636
3591.28346,0.25797
3589.35474,0.25936
3587.42602,0.26088
3585.49729,0.26251
3583.56857,0.26401
3581.63985,0.26540
3579.71112,0.26684
3577.78240,0.26838
3575.85368,0.26988
3573.92495,0.27114
3571.99623,0.27214
3570.06750,0.27316
3568.13878,0.27454
3566.21006,0.27633
3564.28133,0.27809
3562.35261,0.27950
3560.42389,0.28059
3558.49516,0.28158
3556.56644,0.28258
3554.63771,0.28365
3552.70899,0.28496
3550.78027,0.28640
3548.85154,0.28763
3546.92282,0.28863
3544.99410,0.28978
3543.06537,0.29113
3541.13665,0.29230
3539.20793,0.29314
3537.27920,0.29383
3535.35048,0.29465
3533.42175,0.29567
3531.49303,0.29682
3529.56431,0.29790
3527.63558,0.29888
3525.70686,0.29997
3523.77814,0.30113
3521.84941,0.30199
3519.92069,0.30258
3517.99197,0.30330
3516.06324,0.30423
3514.13452,0.30505
3512.20579,0.30567
3510.27707,0.30630
3508.34835,0.30705
3506.41962,0.30789
3504.49090,0.30888
3502.56218,0.31005
3500.63345,0.31117
3498.70473,0.31210
3496.77600,0.31294
3494.84728,0.31367
3492.91856,0.31420
3490.98983,0.31469
3489.06111,0.31536
3487.13239,0.31612
3485.20366,0.31679
3483.27494,0.31740
3481.34622,0.31804
3479.41749,0.31869
3477.48877,0.31936
3475.56004,0.31999
3473.63132,0.32045
3471.70260,0.32078
3469.77387,0.32123
3467.84515,0.32190
3465.91643,0.32257
3463.98770,0.32311
3462.05898,0.32373
3460.13026,0.32461
3458.20153,0.32539
3456.27281,0.32568
3454.34408,0.32562
3452.41536,0.32565
3450.48664,0.32606
3448.55791,0.32672
3446.62919,0.32722
3444.70047,0.32739
3442.77174,0.32753
3440.84302,0.32792
3438.91429,0.32847
3436.98557,0.32906
3435.05685,0.32960
3433.12812,0.33000
3431.19940,0.33019
3429.27068,0.33025
3427.34195,0.33030
3425.41323,0.33047
3423.48451,0.33072
3421.55578,0.33083
3419.62706,0.33087
3417.69833,0.33101
3415.76961,0.33120
3413.84089,0.33148
3411.91216,0.33179
3409.98344,0.33188
3408.05472,0.33183
3406.12599,0.33190
3404.19727,0.33204
3402.26855,0.33207
3400.33982,0.33192
3398.41110,0.33161
3396.48237,0.33146
3394.55365,0.33153
3392.62493,0.33166
3390.69620,0.33181
3388.76748,0.33200
3386.83876,0.33219
3384.91003,0.33226
3382.98131,0.33210
3381.05259,0.33183
3379.12386,0.33160
3377.19514,0.33133
3375.26641,0.33095
3373.33769,0.33068
3371.40897,0.33051
3369.48024,0.33020
3367.55152,0.32979
3365.62280,0.32948
3363.69407,0.32928
3361.76535,0.32911
3359.83662,0.32907
3357.90790,0.32916
3355.97918,0.32911
3354.05045,0.32884
3352.12173,0.32853
3350.19301,0.32830
3348.26428,0.32803
3346.33556,0.32756
3344.40684,0.32708
3342.47811,0.32677
3340.54939,0.32642
3338.62066,0.32594
3336.69194,0.32552
3334.76322,0.32522
3332.83449,0.32479
3330.90577,0.32421
3328.97705,0.32381
3327.04832,0.32376
3325.11960,0.32375
3323.19088,0.32346
3321.26215,0.32287
3319.33343,0.32228
3317.40470,0.32192
3315.47598,0.32167
3313.54726,0.32132
3311.61853,0.32103
3309.68981,0.32086
3307.76109,0.32061
3305.83236,0.32023
3303.90364,0.31983
3301.97491,0.31937
3300.04619,0.31883
3298.11747,0.31849
3296.18874,0.31836
3294.26002,0.31805
3292.33130,0.31749
3290.40257,0.31710
3288.47385,0.31698
3286.54513,0.31676
3284.61640,0.31625
3282.68768,0.31562
3280.75895,0.31503
3278.83023,0.31454
3276.90151,0.31429
3274.97278,0.31425
3273.04406,0.31395
3271.11534,0.31317
3269.18661,0.31228
3267.25789,0.31163
3265.32917,0.31118
3263.40044,0.31074
3261.47172,0.31017
3259.54299,0.30954
3257.61427,0.30894
3255.68555,0.30840
3253.75682,0.30794
3251.82810,0.30750
3249.89938,0.30698
3247.97065,0.30637
3246.04193,0.30571
3244.11320,0.30516
3242.18448,0.30480
3240.25576,0.30448
3238.32703,0.30393
3236.39831,0.30307
3234.46959,0.30222
3232.54086,0.30159
3230.61214,0.30106
3228.68342,0.30045
3226.75469,0.29974
3224.82597,0.29905
3222.89724,0.29833
3220.96852,0.29757
3219.03980,0.29683
3217.11107,0.29620
3215.18235,0.29566
3213.25363,0.29510
3211.32490,0.29446
3209.39618,0.29366
3207.46746,0.29268
3205.53873,0.29177
3203.61001,0.29108
3201.68128,0.29039
3199.75256,0.28952
3197.82384,0.28859
3195.89511,0.28766
3193.96639,0.28657
3192.03767,0.28545
3190.10894,0.28462
3188.18022,0.28393
3186.25149,0.28315
3184.32277,0.28231
3182.39405,0.28145
3180.46532,0.28058
3178.53660,0.27972
3176.60788,0.27877
3174.67915,0.27775
3172.75043,0.27669
3170.82171,0.27558
3168.89298,0.27458
3166.96426,0.27368
3165.03553,0.27275
3163.10681,0.27181
3161.17809,0.27079
3159.24936,0.26969
3157.32064,0.26866
3155.39192,0.26777
3153.46319,0.26689
3151.53447,0.26595
3149.60575,0.26501
3147.67702,0.26411
3145.74830,0.26321
3143.81957,0.26219
3141.89085,0.26108
3139.96213,0.26013
3138.03340,0.25930
3136.10468,0.25831
3134.17596,0.25714
3132.24723,0.25605
3130.31851,0.25508
3128.38978,0.25410
3126.46106,0.25306
3124.53234,0.25204
3122.60361,0.25106
3120.67489,0.25020
3118.74617,0.24943
3116.81744,0.24862
3114.88872,0.24764
3112.96000,0.24644
3111.03127,0.24512
3109.10255,0.24387
3107.17382,0.24275
3105.24510,0.24174
3103.31638,0.24077
3101.38765,0.23974
3099.45893,0.23863
3097.53021,0.23747
3095.60148,0.23631
3093.67276,0.23518
3091.74404,0.23410
3089.81531,0.23308
3087.88659,0.23204
3085.95786,0.23089
3084.02914,0.22971
3082.10042,0.22854
3080.17169,0.22738
3078.24297,0.22622
3076.31425,0.22508
3074.38552,0.22396
3072.45680,0.22287
3070.52807,0.22182
3068.59935,0.22078
3066.67063,0.21969
3064.74190,0.21851
3062.81318,0.21720
3060.88446,0.21587
3058.95573,0.21472
3057.02701,0.21367
3055.09829,0.21257
3053.16956,0.21148
3051.24084,0.21037
3049.31211,0.20918
3047.38339,0.20788
3045.45467,0.20658
3043.52594,0.20545
3041.59722,0.20443
3039.66850,0.20332
3037.73977,0.20210
3035.81105,0.20091
3033.88233,0.19993
3031.95360,0.19902
3030.02488,0.19793
3028.09615,0.19673
3026.16743,0.19558
3024.23871,0.19448
3022.30998,0.19342
3020.38126,0.19240
3018.45254,0.19131
3016.52381,0.19015
3014.59509,0.18908
3012.66636,0.18817
3010.73764,0.18746
3008.80892,0.18685
3006.88019,0.18618
3004.95147,0.18547
3003.02275,0.18471
3001.09402,0.18388
2999.16530,0.18302
2997.23658,0.18221
2995.30785,0.18154
2993.37913,0.18099
2991.45040,0.18057
2989.52168,0.18023
2987.59296,0.17981
2985.66423,0.17934
2983.73551,0.17903
2981.80679,0.17905
2979.87806,0.17930
2977.94934,0.17960
2976.02062,0.17987
2974.09189,0.18012
2972.16317,0.18047
2970.23444,0.18095
2968.30572,0.18146
2966.37700,0.18200
2964.44827,0.18257
2962.51955,0.18306
2960.59083,0.18332
2958.66210,0.18330
2956.73338,0.18306
2954.80466,0.18269
2952.87593,0.18230
2950.94721,0.18186
2949.01848,0.18149
2947.08976,0.18155
2945.16104,0.18215
2943.23231,0.18305
2941.30359,0.18417
2939.37487,0.18559
2937.44614,0.18706
2935.51742,0.18839
2933.58869,0.18972
2931.65997,0.19110
2929.73125,0.19226
2927.80252,0.19299
2925.87380,0.19325
2923.94508,0.19280
2922.01635,0.19144
2920.08763,0.18931
2918.15891,0.18651
2916.23018,0.18306
2914.30146,0.17920
2912.37273,0.17533
2910.44401,0.17189
2908.51529,0.16898
2906.58656,0.16643
2904.65784,0.16413
2902.72912,0.16218
2900.80039,0.16048
2898.87167,0.15881
2896.94295,0.15703
2895.01422,0.15520
2893.08550,0.15340
2891.15677,0.15160
2889.22805,0.14989
2887.29933,0.14843
2885.37060,0.14725
2883.44188,0.14620
2881.51316,0.14530
2879.58443,0.14452
2877.65571,0.14368
2875.72698,0.14287
2873.79826,0.14224
2871.86954,0.14159
2869.94081,0.14075
2868.01209,0.14001
2866.08337,0.13969
2864.15464,0.13982
2862.22592,0.14040
2860.29720,0.14139
2858.36847,0.14262
2856.43975,0.14389
2854.51102,0.14480
2852.58230,0.14460
2850.65358,0.14268
2848.72485,0.13898
2846.79613,0.13414
2844.86741,0.12914
2842.93868,0.12472
2841.00996,0.12103
2839.08124,0.11792
2837.15251,0.11539
2835.22379,0.11332
2833.29506,0.11149
2831.36634,0.10990
2829.43762,0.10856
2827.50889,0.10728
2825.58017,0.10598
2823.65145,0.10477
2821.72272,0.10365
2819.79400,0.10254
2817.86527,0.10144
2815.93655,0.10039
2814.00783,0.09933
2812.07910,0.09825
2810.15038,0.09724
2808.22166,0.09628
2806.29293,0.09534
2804.36421,0.09440
2802.43549,0.09358
2800.50676,0.09287
2798.57804,0.09209
2796.64931,0.09119
2794.72059,0.09023
2792.79187,0.08926
2790.86314,0.08832
2788.93442,0.08745
2787.00570,0.08661
2785.07697,0.08577
2783.14825,0.08495
2781.21953,0.08420
2779.29080,0.08352
2777.36208,0.08283
2775.43335,0.08210
2773.50463,0.08130
2771.57591,0.08044
2769.64718,0.07966
2767.71846,0.07900
2765.78974,0.07833
2763.86101,0.07757
2761.93229,0.07680
2760.00356,0.07609
2758.07484,0.07541
2756.14612,0.07472
2754.21739,0.07400
2752.28867,0.07331
2750.35995,0.07269
2748.43122,0.07207
2746.50250,0.07142
2744.57378,0.07073
2742.64505,0.06994
2740.71633,0.06918
2738.78760,0.06851
2736.85888,0.06784
2734.93016,0.06719
2733.00143,0.06666
2731.07271,0.06615
2729.14399,0.06556
2727.21526,0.06491
2725.28654,0.06426
2723.35782,0.06363
2721.42909,0.06296
2719.50037,0.06219
2717.57164,0.06138
2715.64292,0.06067
2713.71420,0.06012
2711.78547,0.05960
2709.85675,0.05906
2707.92803,0.05849
2705.99930,0.05787
2704.07058,0.05721
2702.14185,0.05654
2700.21313,0.05589
2698.28441,0.05529
2696.35568,0.05476
2694.42696,0.05424
2692.49824,0.05367
2690.56951,0.05307
2688.64079,0.05253
2686.71207,0.05205
2684.78334,0.05151
2682.85462,0.05088
2680.92589,0.05024
2678.99717,0.04962
2677.06845,0.04902
2675.13972,0.04845
2673.21100,0.04797
2671.28228,0.04755
2669.35355,0.04706
2667.42483,0.04644
2665.49611,0.04584
2663.56738,0.04537
2661.63866,0.04494
2659.70993,0.04443
2657.78121,0.04385
2655.85249,0.04330
2653.92376,0.04281
2651.99504,0.04228
2650.06632,0.04173
2648.13759,0.04120
2646.20887,0.04067
2644.28014,0.04017
2642.35142,0.03972
2640.42270,0.03929
2638.49397,0.03887
2636.56525,0.03844
2634.63653,0.03796
2632.70780,0.03746
2630.77908,0.03695
2628.85036,0.03648
2626.92163,0.03605
2624.99291,0.03563
2623.06418,0.03519
2621.13546,0.03473
2619.20674,0.03425
2617.27801,0.03377
2615.34929,0.03331
2613.42057,0.03292
2611.49184,0.03250
2609.56312,0.03201
2607.63440,0.03156
2605.70567,0.03116
2603.77695,0.03079
2601.84822,0.03042
2599.91950,0.03003
2597.99078,0.02964
2596.06205,0.02919
2594.13333,0.02871
2592.20461,0.02830
2590.27588,0.02800
2588.34716,0.02769
2586.41843,0.02730
2584.48971,0.02691
2582.56099,0.02655
2580.63226,0.02617
2578.70354,0.02577
2576.77482,0.02538
2574.84609,0.02500
2572.91737,0.02467
2570.98865,0.02440
2569.05992,0.02417
2567.13120,0.02386
2565.20247,0.02350
2563.27375,0.02314
2561.34503,0.02287
2559.41630,0.02270
2557.48758,0.02252
2555.55886,0.02225
2553.63013,0.02187
2551.70141,0.02143
2549.77269,0.02107
2547.84396,0.02080
2545.91524,0.02055
2543.98651,0.02030
2542.05779,0.02006
2540.12907,0.01984
2538.20034,0.01958
2536.27162,0.01930
2534.34290,0.01907
2532.41417,0.01885
2530.48545,0.01860
2528.55673,0.01836
2526.62800,0.01817
2524.69928,0.01795
2522.77055,0.01769
2520.84183,0.01746
2518.91311,0.01726
2516.98438,0.01706
2515.05566,0.01679
2513.12694,0.01643
2511.19821,0.01607
2509.26949,0.01580
2507.34076,0.01557
2505.41204,0.01529
2503.48332,0.01500
2501.55459,0.01477
2499.62587,0.01459
2497.69715,0.01436
2495.76842,0.01412
2493.83970,0.01394
2491.91098,0.01374
2489.98225,0.01349
2488.05353,0.01322
2486.12480,0.01300
2484.19608,0.01281
2482.26736,0.01261
2480.33863,0.01237
2478.40991,0.01212
2476.48119,0.01187
2474.55246,0.01166
2472.62374,0.01144
2470.69502,0.01120
2468.76629,0.01097
2466.83757,0.01075
2464.90884,0.01054
2462.98012,0.01036
2461.05140,0.01017
2459.12267,0.00995
2457.19395,0.00972
2455.26523,0.00954
2453.33650,0.00935
2451.40778,0.00916
2449.47905,0.00901
2447.55033,0.00884
2445.62161,0.00864
2443.69288,0.00842
2441.76416,0.00821
2439.83544,0.00804
2437.90671,0.00793
2435.97799,0.00777
2434.04927,0.00753
2432.12054,0.00725
2430.19182,0.00698
2428.26309,0.00680
2426.33437,0.00671
2424.40565,0.00658
2422.47692,0.00641
2420.54820,0.00621
2418.61948,0.00601
2416.69075,0.00586
2414.76203,0.00570
2412.83331,0.00551
2410.90458,0.00533
2408.97586,0.00518
2407.04713,0.00510
2405.11841,0.00501
2403.18969,0.00483
2401.26096,0.00463
2399.33224,0.00453
2397.40352,0.00447
2395.47479,0.00435
2393.54607,0.00415
2391.61734,0.00395
2389.68862,0.00385
2387.75990,0.00381
2385.83117,0.00373
2383.90245,0.00364
2381.97373,0.00365
2380.04500,0.00376
2378.11628,0.00386
2376.18756,0.00385
2374.25883,0.00379
2372.33011,0.00378
2370.40138,0.00377
2368.47266,0.00373
2366.54394,0.00376
2364.61521,0.00393
2362.68649,0.00412
2360.75777,0.00412
2358.82904,0.00382
2356.90032,0.00332
2354.97160,0.00289
2353.04287,0.00284
2351.11415,0.00324
2349.18542,0.00347
2347.25670,0.00310
2345.32798,0.00258
2343.39925,0.00248
2341.47053,0.00265
2339.54181,0.00273
2337.61308,0.00262
2335.68436,0.00246
2333.75563,0.00238
2331.82691,0.00235
2329.89819,0.00229
2327.96946,0.00227
2326.04074,0.00224
2324.11202,0.00211
2322.18329,0.00188
2320.25457,0.00163
2318.32585,0.00148
2316.39712,0.00148
2314.46840,0.00149
2312.53967,0.00143
2310.61095,0.00134
2308.68223,0.00122
2306.75350,0.00111
2304.82478,0.00106
2302.89606,0.00105
2300.96733,0.00097
2299.03861,0.00085
2297.10989,0.00073
2295.18116,0.00064
2293.25244,0.00060
2291.32371,0.00061
2289.39499,0.00061
2287.46627,0.00059
2285.53754,0.00057
2283.60882,0.00053
2281.68010,0.00046
2279.75137,0.00039
2277.82265,0.00038
2275.89392,0.00039
2273.96520,0.00037
2272.03648,0.00031
2270.10775,0.00027
2268.17903,0.00027
2266.25031,0.00020
2264.32158,0.00009
2262.39286,0.00008
2260.46414,0.00016
2258.53541,0.00023
2256.60669,0.00022
2254.67796,0.00019
2252.74924,0.00018
2250.82052,0.00022
2248.89179,0.00026
2246.96307,0.00023
2245.03435,0.00012
2243.10562,0.00005
2241.17690,0.00005
2239.24818,0.00003
2237.31945,0.00005
2235.39073,0.00015
2233.46200,0.00022
2231.53328,0.00015
2229.60456,0.00007
2227.67583,0.00010
2225.74711,0.00020
2223.81839,0.00023
2221.88966,0.00017
2219.96094,0.00009
2218.03221,0.00003
2216.10349,-0.00000
2214.17477,-0.00001
2212.24604,-0.00001
2210.31732,-0.00001
2208.38860,0.00000
2206.45987,0.00000
2204.53115,-0.00006
2202.60243,-0.00011
2200.67370,-0.00010
2198.74498,-0.00005
2196.81625,-0.00006
2194.88753,-0.00007
2192.95881,-0.00001
2191.03008,0.00003
2189.10136,-0.00002
2187.17264,-0.00010
2185.24391,-0.00013
2183.31519,-0.00009
2181.38647,0.00001
2179.45774,0.00006
2177.52902,0.00000
2175.60029,-0.00009
2173.67157,-0.00012
2171.74285,-0.00009
2169.81412,-0.00002
2167.88540,0.00006
2165.95668,0.00014
2164.02795,0.00020
2162.09923,0.00019
2160.17050,0.00014
2158.24178,0.00016
2156.31306,0.00027
2154.38433,0.00037
2152.45561,0.00037
2150.52689,0.00027
2148.59816,0.00020
2146.66944,0.00025
2144.74072,0.00034
2142.81199,0.00032
2140.88327,0.00025
2138.95454,0.00024
2137.02582,0.00025
2135.09710,0.00020
2133.16837,0.00015
2131.23965,0.00013
2129.31093,0.00009
2127.38220,0.00004
2125.45348,0.00002
2123.52476,0.00008
2121.59603,0.00015
2119.66731,0.00017
2117.73858,0.00013
2115.80986,0.00010
2113.88114,0.00015
2111.95241,0.00018
2110.02369,0.00012
2108.09497,0.00006
2106.16624,0.00005
2104.23752,0.00001
2102.30880,-0.00003
2100.38007,-0.00004
2098.45135,-0.00001
2096.52262,0.00001
2094.59390,0.00000
2092.66518,-0.00003
2090.73645,-0.00005
2088.80773,-0.00017
2086.87901,-0.00034
2084.95028,-0.00046
2083.02156,-0.00053
2081.09283,-0.00054
2079.16411,-0.00049
2077.23539,-0.00042
2075.30666,-0.00038
2073.37794,-0.00040
2071.44922,-0.00047
2069.52049,-0.00048
2067.59177,-0.00039
2065.66305,-0.00032
2063.73432,-0.00032
2061.80560,-0.00028
2059.87687,-0.00014
2057.94815,0.00001
2056.01943,0.00012
2054.09070,0.00020
2052.16198,0.00029
2050.23326,0.00040
2048.30453,0.00050
2046.37581,0.00058
2044.44709,0.00075
2042.51836,0.00104
2040.58964,0.00136
2038.66091,0.00163
2036.73219,0.00183
2034.80347,0.00205
2032.87474,0.00231
2030.94602,0.00261
2029.01730,0.00288
2027.08857,0.00309
2025.15985,0.00330
2023.23112,0.00349
2021.30240,0.00360
2019.37368,0.00366
2017.44495,0.00377
2015.51623,0.00399
2013.58751,0.00426
2011.65878,0.00450
2009.73006,0.00467
2007.80134,0.00482
2005.87261,0.00496
2003.94389,0.00507
2002.01516,0.00511
2000.08644,0.00508
1998.15772,0.00502
1996.22899,0.00502
1994.30027,0.00502
1992.37155,0.00497
1990.44282,0.00488
1988.51410,0.00478
1986.58538,0.00466
1984.65665,0.00454
1982.72793,0.00445
1980.79920,0.00436
1978.87048,0.00423
1976.94176,0.00409
1975.01303,0.00397
1973.08431,0.00382
1971.15559,0.00357
1969.22686,0.00329
1967.29814,0.00306
1965.36941,0.00284
1963.44069,0.00259
1961.51197,0.00233
1959.58324,0.00210
1957.65452,0.00194
1955.72580,0.00181
1953.79707,0.00163
1951.86835,0.00140
1949.93963,0.00118
1948.01090,0.00101
1946.08218,0.00090
1944.15345,0.00080
1942.22473,0.00063
1940.29601,0.00044
1938.36728,0.00027
1936.43856,0.00012
1934.50984,0.00000
1932.58111,-0.00005
1930.65239,-0.00003
1928.72367,0.00001
1926.79494,0.00000
1924.86622,-0.00003
1922.93749,0.00007
1921.00877,0.00032
1919.08005,0.00057
1917.15132,0.00076
1915.22260,0.00097
1913.29388,0.00134
1911.36515,0.00189
1909.43643,0.00253
1907.50770,0.00309
1905.57898,0.00355
1903.65026,0.00405
1901.72153,0.00467
1899.79281,0.00536
1897.86409,0.00600
1895.93536,0.00658
1894.00664,0.00713
1892.07792,0.00764
1890.14919,0.00812
1888.22047,0.00859
1886.29174,0.00905
1884.36302,0.00950
1882.43430,0.00988
1880.50557,0.01015
1878.57685,0.01033
1876.64813,0.01042
1874.71940,0.01049
1872.79068,0.01055
1870.86196,0.01051
1868.93323,0.01027
1867.00451,0.00985
1865.07578,0.00938
1863.14706,0.00893
1861.21834,0.00843
1859.28961,0.00784
1857.36089,0.00718
1855.43217,0.00650
1853.50344,0.00585
1851.57472,0.00526
1849.64599,0.00474
1847.71727,0.00419
1845.78855,0.00351
1843.85982,0.00275
1841.93110,0.00213
1840.00238,0.00172
1838.07365,0.00138
1836.14493,0.00103
1834.21621,0.00073
1832.28748,0.00050
1830.35876,0.00028
1828.43003,0.00006
1826.50131,-0.00007
1824.57259,-0.00010
1822.64386,-0.00012
1820.71514,-0.00015
1818.78642,-0.00017
1816.85769,-0.00015
1814.92897,0.00000
1813.00025,0.00013
1811.07152,0.00026
1809.14280,0.00036
1807.21407,0.00052
1805.28535,0.00079
1803.35663,0.00113
1801.42790,0.00151
1799.49918,0.00196
1797.57046,0.00248
1795.64173,0.00302
1793.71301,0.00364
1791.78428,0.00437
1789.85556,0.00512
1787.92684,0.00586
1785.99811,0.00669
1784.06939,0.00763
1782.14067,0.00858
1780.21194,0.00954
1778.28322,0.01048
1776.35450,0.01137
1774.42577,0.01233
1772.49705,0.01348
1770.56832,0.01467
1768.63960,0.01572
1766.71088,0.01667
1764.78215,0.01759
1762.85343,0.01859
1760.92471,0.01970
1758.99598,0.02084
1757.06726,0.02205
1755.13854,0.02325
1753.20981,0.02447
1751.28109,0.02597
1749.35236,0.02782
1747.42364,0.02973
1745.49492,0.03158
1743.56619,0.03349
1741.63747,0.03554
1739.70875,0.03769
1737.78002,0.03974
1735.85130,0.04186
1733.92257,0.04435
1731.99385,0.04669
1730.06513,0.04852
1728.13640,0.05021
1726.20768,0.05201
1724.27896,0.05392
1722.35023,0.05580
1720.42151,0.05762
1718.49279,0.05976
1716.56406,0.06233
1714.63534,0.06478
1712.70661,0.06695
1710.77789,0.06908
1708.84917,0.07138
1706.92044,0.07399
1704.99172,0.07678
1703.06300,0.07953
1701.13427,0.08288
1699.20555,0.08714
1697.27683,0.09148
1695.34810,0.09562
1693.41938,0.09942
1691.49065,0.10299
1689.56193,0.10671
1687.63321,0.11044
1685.70448,0.11461
1683.77576,0.11977
1681.84704,0.12448
1679.91831,0.12798
1677.98959,0.13118
1676.06087,0.13482
1674.13214,0.13867
1672.20342,0.14224
1670.27469,0.14593
1668.34597,0.14969
1666.41725,0.15272
1664.48852,0.15540
1662.55980,0.15841
1660.63108,0.16128
1658.70235,0.16340
1656.77363,0.16493
1654.84490,0.16656
1652.91618,0.16868
1650.98746,0.17047
1649.05873,0.17164
1647.13001,0.17267
1645.20129,0.17358
1643.27256,0.17419
1641.34384,0.17462
1639.41512,0.17500
1637.48639,0.17540
1635.55767,0.17573
1633.62894,0.17579
1631.70022,0.17558
1629.77150,0.17507
1627.84277,0.17417
1625.91405,0.17288
1623.98533,0.17112
1622.05660,0.16901
1620.12788,0.16685
1618.19916,0.16446
1616.27043,0.16156
1614.34171,0.15870
1612.41298,0.15621
1610.48426,0.15373
1608.55554,0.15108
1606.62681,0.14831
1604.69809,0.14554
1602.76937,0.14279
1600.84064,0.14012
1598.91192,0.13762
1596.98319,0.13531
1595.05447,0.13307
1593.12575,0.13081
1591.19702,0.12851
1589.26830,0.12624
1587.33958,0.12412
1585.41085,0.12215
1583.48213,0.12027
1581.55341,0.11853
1579.62468,0.11697
1577.69596,0.11539
1575.76723,0.11365
1573.83851,0.11217
1571.90979,0.11105
1569.98106,0.10986
1568.05234,0.10861
1566.12362,0.10759
1564.19489,0.10683
1562.26617,0.10619
1560.33745,0.10537
1558.40872,0.10412
1556.48000,0.10291
1554.55127,0.10201
1552.62255,0.10113
1550.69383,0.10012
1548.76510,0.09900
1546.83638,0.09794
1544.90766,0.09688
1542.97893,0.09556
1541.05021,0.09370
1539.12148,0.09150
1537.19276,0.08981
1535.26404,0.08840
1533.33531,0.08656
1531.40659,0.08440
1529.47787,0.08231
1527.54914,0.08013
1525.62042,0.07782
1523.69170,0.07559
1521.76297,0.07331
1519.83425,0.07101
1517.90552,0.06884
1515.97680,0.06662
1514.04808,0.06450
1512.11935,0.06266
1510.19063,0.06084
1508.26191,0.05827
1506.33318,0.05457
1504.40446,0.05137
1502.47574,0.04927
1500.54701,0.04735
1498.61829,0.04508
1496.68956,0.04272
1494.76084,0.04087
1492.83212,0.03964
1490.90339,0.03863
1488.97467,0.03769
1487.04595,0.03708
1485.11722,0.03691
1483.18850,0.03705
1481.25977,0.03743
1479.33105,0.03812
1477.40233,0.03924
1475.47360,0.04102
1473.54488,0.04381
1471.61616,0.04739
1469.68743,0.05061
1467.75871,0.05294
1465.82999,0.05459
1463.90126,0.05588
1461.97254,0.05702
1460.04381,0.05811
1458.11509,0.05912
1456.18637,0.05981
1454.25764,0.06015
1452.32892,0.06045
1450.40020,0.06082
1448.47147,0.06119
1446.54275,0.06152
1444.61403,0.06175
1442.68530,0.06186
1440.75658,0.06186
1438.82785,0.06182
1436.89913,0.06194
1434.97041,0.06242
1433.04168,0.06303
1431.11296,0.06343
1429.18424,0.06372
1427.25551,0.06438
1425.32679,0.06554
1423.39806,0.06676
1421.46934,0.06774
1419.54062,0.06871
1417.61189,0.06992
1415.68317,0.07121
1413.75445,0.07250
1411.82572,0.07381
1409.89700,0.07511
1407.96828,0.07631
1406.03955,0.07743
1404.11083,0.07834
1402.18210,0.07871
1400.25338,0.07833
1398.32466,0.07717
1396.39593,0.07541
1394.46721,0.07328
1392.53849,0.07114
1390.60976,0.06929
1388.68104,0.06760
1386.75232,0.06597
1384.82359,0.06459
1382.89487,0.06356
1380.96614,0.06266
1379.03742,0.06166
1377.10870,0.06045
1375.17997,0.05901
1373.25125,0.05746
1371.32253,0.05605
1369.39380,0.05481
1367.46508,0.05363
1365.53635,0.05248
1363.60763,0.05125
1361.67891,0.04996
1359.75018,0.04879
1357.82146,0.04781
1355.89274,0.04691
1353.96401,0.04607
1352.03529,0.04534
1350.10657,0.04479
1348.17784,0.04439
1346.24912,0.04406
1344.32039,0.04370
1342.39167,0.04327
1340.46295,0.04287
1338.53422,0.04255
1336.60550,0.04226
1334.67678,0.04195
1332.74805,0.04160
1330.81933,0.04124
1328.89061,0.04094
1326.96188,0.04068
1325.03316,0.04034
1323.10443,0.03983
1321.17571,0.03914
1319.24699,0.03810
1317.31826,0.03648
1315.38954,0.03424
1313.46082,0.03154
1311.53209,0.02863
1309.60337,0.02569
1307.67464,0.02222
1305.74592,0.01682
1303.81720,0.00912
1301.88847,0.00222
1299.95975,0.00000
1298.03103,0.00137
1296.10230,0.00288
1294.17358,0.00421
1292.24486,0.00717
1290.31613,0.01233
1288.38741,0.01908
1286.45868,0.02673
1284.52996,0.03463
1282.60124,0.04243
1280.67251,0.04994
1278.74379,0.05693
1276.81507,0.06333
1274.88634,0.06937
1272.95762,0.07531
1271.02890,0.08140
1269.10017,0.08773
1267.17145,0.09437
1265.24272,0.10144
1263.31400,0.10910
1261.38528,0.11762
1259.45655,0.12720
1257.52783,0.13765
1255.59911,0.14860
1253.67038,0.15981
1251.74166,0.17107
1249.81294,0.18203
1247.88421,0.19249
1245.95549,0.20243
1244.02676,0.21175
1242.09804,0.22020
1240.16932,0.22766
1238.24059,0.23427
1236.31187,0.24012
1234.38315,0.24520
1232.45442,0.24964
1230.52570,0.25364
1228.59697,0.25729
1226.66825,0.26043
1224.73953,0.26300
1222.81080,0.26521
1220.88208,0.26737
1218.95336,0.26946
1217.02463,0.27124
1215.09591,0.27266
1213.16719,0.27390
1211.23846,0.27518
1209.30974,0.27649
1207.38101,0.27749
1205.45229,0.27798
1203.52357,0.27788
1201.59484,0.27684
1199.66612,0.27374
1197.73740,0.26785
1195.80867,0.25995
1193.87995,0.25247
1191.95123,0.24858
1190.02250,0.24947
1188.09378,0.25201
1186.16505,0.25325
1184.23633,0.25506
1182.30761,0.26016
1180.37888,0.26784
1178.45016,0.27611
1176.52144,0.28396
1174.59271,0.29134
1172.66399,0.29818
1170.73526,0.30441
1168.80654,0.31034
1166.87782,0.31594
1164.94909,0.32075
1163.02037,0.32469
1161.09165,0.32797
1159.16292,0.33087
1157.23420,0.33370
1155.30548,0.33634
1153.37675,0.33847
1151.44803,0.34018
1149.51930,0.34199
1147.59058,0.34409
1145.66186,0.34587
1143.73313,0.34722
1141.80441,0.34883
1139.87569,0.35100
1137.94696,0.35326
1136.01824,0.35547
1134.08952,0.35770
1132.16079,0.35975
1130.23207,0.36170
1128.30334,0.36390
1126.37462,0.36664
1124.44590,0.36992
1122.51717,0.37343
1120.58845,0.37672
1118.65973,0.37968
1116.73100,0.38264
1114.80228,0.38598
1112.87355,0.39057
1110.94483,0.39690
1109.01611,0.40298
1107.08738,0.40710
1105.15866,0.41176
1103.22994,0.41915
1101.30121,0.42626
1099.37249,0.43067
1097.44377,0.43375
1095.51504,0.43697
1093.58632,0.44000
1091.65759,0.44205
1089.72887,0.44367
1087.80015,0.44490
1085.87142,0.44496
1083.94270,0.44413
1082.01398,0.44285
1080.08525,0.44106
1078.15653,0.43872
1076.22781,0.43610
1074.29908,0.43319
1072.37036,0.42964
1070.44163,0.42584
1068.51291,0.42239
1066.58419,0.41895
1064.65546,0.41479
1062.72674,0.40982
1060.79802,0.40414
1058.86929,0.39802
1056.94057,0.39198
1055.01184,0.38592
1053.08312,0.37943
1051.15440,0.37274
1049.22567,0.36624
1047.29695,0.35965
1045.36823,0.35286
1043.43950,0.34603
1041.51078,0.33890
1039.58206,0.33145
1037.65333,0.32391
1035.72461,0.31632
1033.79588,0.30898
1031.86716,0.30217
1029.93844,0.29539
1028.00971,0.28835
1026.08099,0.28164
1024.15227,0.27539
1022.22354,0.26923
1020.29482,0.26304
1018.36610,0.25714
1016.43737,0.25181
1014.50865,0.24700
1012.57992,0.24246
1010.65120,0.23784
1008.72248,0.23326
1006.79375,0.22895
1004.86503,0.22456
1002.93631,0.22013
1001.00758,0.21617
999.07886,0.21266
997.15013,0.20904
995.22141,0.20512
993.29269,0.20112
991.36396,0.19732
989.43524,0.19386
987.50652,0.19065
985.57779,0.18755
983.64907,0.18475
981.72035,0.18228
979.79162,0.18001
977.86290,0.17802
975.93417,0.17630
974.00545,0.17488
972.07673,0.17416
970.14800,0.17436
968.21928,0.17510
966.29056,0.17570
964.36183,0.17585
962.43311,0.17590
960.50439,0.17619
958.57566,0.17644
956.64694,0.17631
954.71821,0.17597
952.78949,0.17570
950.86077,0.17521
948.93204,0.17420
947.00332,0.17280
945.07460,0.17113
943.14587,0.16917
941.21715,0.16692
939.28842,0.16445
937.35970,0.16203
935.43098,0.15976
933.50225,0.15728
931.57353,0.15450
929.64481,0.15167
927.71608,0.14870
925.78736,0.14532
923.85864,0.14184
921.92991,0.13862
920.00119,0.13531
918.07246,0.13144
916.14374,0.12726
914.21502,0.12337
912.28629,0.11959
910.35757,0.11548
908.42885,0.11141
906.50012,0.10763
904.57140,0.10403
902.64268,0.10065
900.71395,0.09729
898.78523,0.09364
896.85650,0.08992
894.92778,0.08654
892.99906,0.08330
891.07033,0.08007
889.14161,0.07702
887.21289,0.07396
885.28416,0.07069
883.35544,0.06751
881.42671,0.06468
879.49799,0.06219
877.56927,0.05980
875.64054,0.05738
873.71182,0.05513
871.78310,0.05325
869.85437,0.05151
867.92565,0.04948
865.99693,0.04705
864.06820,0.04481
862.13948,0.04314
860.21075,0.04165
858.28203,0.04020
856.35331,0.03894
854.42458,0.03784
852.49586,0.03684
850.56714,0.03617
848.63841,0.03586
846.70969,0.03576
844.78097,0.03613
842.85224,0.03731
840.92352,0.03909
838.99479,0.04137
837.06607,0.04436
835.13735,0.04779
833.20862,0.05102
831.27990,0.05406
829.35118,0.05741
827.42245,0.06111
825.49373,0.06481
823.56501,0.06822
821.63628,0.07135
819.70756,0.07453
817.77883,0.07780
815.85011,0.08091
813.92139,0.08389
811.99266,0.08687
810.06394,0.08984
808.13522,0.09261
806.20649,0.09494
804.27777,0.09688
802.34904,0.09861
800.42032,0.09988
798.49160,0.10018
796.56287,0.09963
794.63415,0.09872
792.70543,0.09735
790.77670,0.09549
788.84798,0.09362
786.91926,0.09166
784.99053,0.08908
783.06181,0.08586
781.13308,0.08226
779.20436,0.07835
777.27564,0.07416
775.34691,0.07001
773.41819,0.06635
771.48947,0.06322
769.56074,0.06076
767.63202,0.05903
765.70330,0.05749
763.77457,0.05587
761.84585,0.05447
759.91712,0.05343
757.98840,0.05267
756.05968,0.05210
754.13095,0.05179
752.20223,0.05189
750.27351,0.05241
748.34478,0.05290
746.41606,0.05267
744.48733,0.05187
742.55861,0.05124
740.62989,0.05096
738.70116,0.05071
736.77244,0.05053
734.84372,0.05065
732.91499,0.05052
730.98627,0.04985
729.05755,0.04965
727.12882,0.05029
725.20010,0.05095
723.27137,0.05136
721.34265,0.05151
719.41393,0.05148
717.48520,0.05155
715.55648,0.05187
713.62776,0.05235
711.69903,0.05290
709.77031,0.05360
707.84159,0.05442
705.91286,0.05540
703.98414,0.05662
702.05541,0.05790
700.12669,0.05892
698.19797,0.05945
696.26924,0.05954
694.34052,0.05950
692.41180,0.05940
690.48307,0.05913
688.55435,0.05894
686.62562,0.05889
684.69690,0.05883
682.76818,0.05849
680.83945,0.05722
678.91073,0.05511
676.98201,0.05373
675.05328,0.05429
673.12456,0.05610
671.19584,0.05676
669.26711,0.05498
667.33839,0.05345
665.40966,0.05436
663.48094,0.05589
661.55222,0.05687
659.62349,0.05753
657.69477,0.05801
655.76605,0.05872
653.83732,0.06026
651.90860,0.06258
649.97988,0.06496
648.05115,0.06675
646.12243,0.06800
644.19370,0.06906
642.26498,0.07020
640.33626,0.07139
638.40753,0.07236
636.47881,0.07316
634.55009,0.07422
632.62136,0.07536
630.69264,0.07588
628.76391,0.07568
626.83519,0.07577
624.90647,0.07721
622.97774,0.07944
621.04902,0.08097
619.12030,0.08141
617.19157,0.08176
615.26285,0.08260
613.33413,0.08336
611.40540,0.08375
609.47668,0.08461
607.54795,0.08662
605.61923,0.08907
603.69051,0.09085
601.76178,0.09218
599.83306,0.09375
597.90434,0.09514
595.97561,0.09607
594.04689,0.09713
592.11817,0.09857
590.18944,0.09993
588.26072,0.10109
586.33199,0.10220
584.40327,0.10306
582.47455,0.10385
580.54582,0.10451
578.61710,0.10455
576.68838,0.10458
574.75965,0.10515
572.83093,0.10589
570.90220,0.10663
568.97348,0.10699
567.04476,0.10639
565.11603,0.10540
563.18731,0.10537
561.25859,0.10598
559.32986,0.10600
557.40114,0.10633
555.47242,0.10794
553.54369,0.10924
551.61497,0.10903
549.68624,0.10861
547.75752,0.10925
545.82880,0.11012
543.90007,0.11016
541.97135,0.10970
540.04263,0.10943
538.11390,0.10948
536.18518,0.10971
534.25646,0.10998
532.32773,0.10960
530.39901,0.10824
528.47028,0.10658
526.54156,0.10566
524.61284,0.10641
522.68411,0.10822
520.75539,0.10938
518.82667,0.10995
516.89794,0.11076
514.96922,0.11166
513.04049,0.11304
511.11177,0.11492
509.18305,0.11648
507.25432,0.11867
505.32560,0.12296
503.39688,0.12880
501.46815,0.13467
499.53943,0.14033
497.61071,0.14693
495.68198,0.15429
493.75326,0.16159
491.82453,0.16907
489.89581,0.17618
487.96709,0.18225
486.03836,0.18831
484.10964,0.19498
482.18092,0.20135
480.25219,0.20705
478.32347,0.21273
476.39475,0.21961
474.46602,0.22801
472.53730,0.23550
470.60857,0.24042
468.67985,0.24466
466.75113,0.24765
464.82240,0.24595
462.89368,0.24047
460.96496,0.23592
459.03623,0.23278
457.10751,0.22792
455.17878,0.22158
453.25006,0.21574
451.32134,0.21112
449.39261,0.20786
447.46389,0.20536
445.53517,0.20278
443.60644,0.19940
441.67772,0.19432
439.74900,0.18764
437.82027,0.18093
435.89155,0.17567
433.96282,0.17206
432.03410,0.16802
430.10538,0.16075
428.17665,0.15080
426.24793,0.14093
424.31921,0.13268
422.39048,0.12699
420.46176,0.12385
418.53304,0.12110
416.60431,0.11718
414.67559,0.11197
412.74686,0.10540
410.81814,0.09948
408.88942,0.09547
406.96069,0.09267
405.03197,0.09221
403.10325,0.09316
401.17452,0.08927
399.24580,0.07783
397.31708,0.06930
395.38835,0.07233
393.45963,0.07359
391.53090,0.06093
389.60218,0.04122
387.67346,0.02808
385.74473,0.03354
383.81601,0.05843
381.88729,0.07362
379.95856,0.05527
378.02984,0.02200
376.10111,0.00095
374.17239,0.00000
372.24367,-0.00156
370.31494,0.00359
368.38622,0.00000
