3996.31543,0.00028
3994.38671,0.00021
3992.45799,0.00012
3990.52926,0.00004
3988.60054,0.00000
3986.67182,0.00005
3984.74309,0.00026
3982.81437,0.00052
3980.88564,0.00054
3978.95692,0.00037
3977.02820,0.00027
3975.09947,0.00033
3973.17075,0.00042
3971.24203,0.00051
3969.31330,0.00056
3967.38458,0.00053
3965.45586,0.00040
3963.52713,0.00022
3961.59841,0.00013
3959.66968,0.00026
3957.74096,0.00051
3955.81224,0.00070
3953.88351,0.00083
3951.95479,0.00094
3950.02607,0.00098
3948.09734,0.00090
3946.16862,0.00075
3944.23990,0.00056
3942.31117,0.00038
3940.38245,0.00035
3938.45372,0.00046
3936.52500,0.00067
3934.59628,0.00087
3932.66755,0.00087
3930.73883,0.00068
3928.81011,0.00068
3926.88138,0.00093
3924.95266,0.00113
3923.02393,0.00124
3921.09521,0.00134
3919.16649,0.00125
3917.23776,0.00081
3915.30904,0.00038
3913.38032,0.00030
3911.45159,0.00047
3909.52287,0.00074
3907.59415,0.00115
3905.66542,0.00151
3903.73670,0.00142
3901.80797,0.00087
3899.87925,0.00034
3897.95053,0.00024
3896.02180,0.00063
3894.09308,0.00108
3892.16436,0.00103
3890.23563,0.00071
3888.30691,0.00070
3886.37819,0.00076
3884.44946,0.00068
3882.52074,0.00073
3880.59201,0.00067
3878.66329,0.00051
3876.73457,0.00073
3874.80584,0.00111
3872.87712,0.00123
3870.94840,0.00100
3869.01967,0.00066
3867.09095,0.00072
3865.16222,0.00101
3863.23350,0.00101
3861.30478,0.00085
3859.37605,0.00103
3857.44733,0.00165
3855.51861,0.00203
3853.58988,0.00127
3851.66116,0.00012
3849.73244,0.00000
3847.80371,0.00057
3845.87499,0.00105
3843.94626,0.00127
3842.01754,0.00143
3840.08882,0.00150
3838.16009,0.00122
3836.23137,0.00082
3834.30265,0.00073
3832.37392,0.00084
3830.44520,0.00094
3828.51648,0.00105
3826.58775,0.00120
3824.65903,0.00145
3822.73030,0.00159
3820.80158,0.00137
3818.87286,0.00122
3816.94413,0.00124
3815.01541,0.00105
3813.08669,0.00105
3811.15796,0.00160
3809.22924,0.00223
3807.30052,0.00233
3805.37179,0.00210
3803.44307,0.00203
3801.51434,0.00188
3799.58562,0.00173
3797.65690,0.00187
3795.72817,0.00199
3793.79945,0.00205
3791.87073,0.00230
3789.94200,0.00263
3788.01328,0.00287
3786.08455,0.00295
3784.15583,0.00298
3782.22711,0.00310
3780.29838,0.00312
3778.36966,0.00295
3776.44094,0.00301
3774.51221,0.00345
3772.58349,0.00399
3770.65477,0.00428
3768.72604,0.00434
3766.79732,0.00451
3764.86859,0.00487
3762.93987,0.00532
3761.01115,0.00563
3759.08242,0.00569
3757.15370,0.00594
3755.22498,0.00676
3753.29625,0.00768
3751.36753,0.00798
3749.43881,0.00799
3747.51008,0.00850
3745.58136,0.00907
3743.65263,0.00905
3741.72391,0.00920
3739.79519,0.01013
3737.86646,0.01135
3735.93774,0.01218
3734.00902,0.01256
3732.08029,0.01299
3730.15157,0.01389
3728.22284,0.01515
3726.29412,0.01638
3724.36540,0.01740
3722.43667,0.01840
3720.50795,0.01964
3718.57923,0.02140
3716.65050,0.02365
3714.72178,0.02601
3712.79306,0.02801
3710.86433,0.02971
3708.93561,0.03170
3707.00688,0.03421
3705.07816,0.03701
3703.14944,0.03984
3701.22071,0.04251
3699.29199,0.04505
3697.36327,0.04772
3695.43454,0.05063
3693.50582,0.05359
3691.57710,0.05644
3689.64837,0.05921
3687.71965,0.06211
3685.79092,0.06524
3683.86220,0.06854
3681.93348,0.07202
3680.00475,0.07571
3678.07603,0.07964
3676.14731,0.08375
3674.21858,0.08782
3672.28986,0.09174
3670.36113,0.09577
3668.43241,0.09979
3666.50369,0.10348
3664.57496,0.10699
3662.64624,0.11057
3660.71752,0.11428
3658.78879,0.11789
3656.86007,0.12119
3654.93135,0.12435
3653.00262,0.12764
3651.07390,0.13085
3649.14517,0.13355
3647.21645,0.13599
3645.28773,0.13882
3643.35900,0.14195
3641.43028,0.14494
3639.50156,0.14761
3637.57283,0.15009
3635.64411,0.15259
3633.71539,0.15526
3631.78666,0.15807
3629.85794,0.16067
3627.92921,0.16293
3626.00049,0.16524
3624.07177,0.16778
3622.14304,0.17028
3620.21432,0.17235
3618.28560,0.17385
3616.35687,0.17511
3614.42815,0.17647
3612.49942,0.17782
3610.57070,0.17910
3608.64198,0.18032
3606.71325,0.18160
3604.78453,0.18303
3602.85581,0.18448
3600.92708,0.18575
3598.99836,0.18697
3597.06964,0.18824
3595.14091,0.18946
3593.21219,0.19078
3591.28346,0.19234
3589.35474,0.19380
3587.42602,0.19488
3585.49729,0.19600
3583.56857,0.19742
3581.63985,0.19885
3579.71112,0.20008
3577.78240,0.20124
3575.85368,0.20250
3573.92495,0.20390
3571.99623,0.20537
3570.06750,0.20668
3568.13878,0.20754
3566.21006,0.20809
3564.28133,0.20890
3562.35261,0.21000
3560.42389,0.21107
3558.49516,0.21200
3556.56644,0.21280
3554.63771,0.21344
3552.70899,0.21408
3550.78027,0.21496
3548.85154,0.21601
3546.92282,0.21690
3544.99410,0.21757
3543.06537,0.21833
3541.13665,0.21915
3539.20793,0.21974
3537.27920,0.22018
3535.35048,0.22073
3533.42175,0.22140
3531.49303,0.22210
3529.56431,0.22281
3527.63558,0.22348
3525.70686,0.22401
3523.77814,0.22448
3521.84941,0.22502
3519.92069,0.22563
3517.99197,0.22623
3516.06324,0.22681
3514.13452,0.22749
3512.20579,0.22831
3510.27707,0.22907
3508.34835,0.22964
3506.41962,0.23012
3504.49090,0.23058
3502.56218,0.23108
3500.63345,0.23182
3498.70473,0.23278
3496.77600,0.23361
3494.84728,0.23414
3492.91856,0.23457
3490.98983,0.23514
3489.06111,0.23587
3487.13239,0.23662
3485.20366,0.23724
3483.27494,0.23772
3481.34622,0.23814
3479.41749,0.23862
3477.48877,0.23913
3475.56004,0.23965
3473.63132,0.24016
3471.70260,0.24068
3469.77387,0.24132
3467.84515,0.24195
3465.91643,0.24234
3463.98770,0.24258
3462.05898,0.24282
3460.13026,0.24312
3458.20153,0.24355
3456.27281,0.24406
3454.34408,0.24465
3452.41536,0.24539
3450.48664,0.24606
3448.55791,0.24645
3446.62919,0.24655
3444.70047,0.24657
3442.77174,0.24678
3440.84302,0.24723
3438.91429,0.24765
3436.98557,0.24791
3435.05685,0.24803
3433.12812,0.24806
3431.19940,0.24807
3429.27068,0.24825
3427.34195,0.24871
3425.41323,0.24930
3423.48451,0.24979
3421.55578,0.25014
3419.62706,0.25036
3417.69833,0.25040
3415.76961,0.25036
3413.84089,0.25035
3411.91216,0.25038
3409.98344,0.25044
3408.05472,0.25045
3406.12599,0.25043
3404.19727,0.25041
3402.26855,0.25031
3400.33982,0.25014
3398.41110,0.25003
3396.48237,0.24986
3394.55365,0.24957
3392.62493,0.24938
3390.69620,0.24933
3388.76748,0.24914
3386.83876,0.24876
3384.91003,0.24837
3382.98131,0.24805
3381.05259,0.24775
3379.12386,0.24750
3377.19514,0.24732
3375.26641,0.24711
3373.33769,0.24677
3371.40897,0.24641
3369.48024,0.24617
3367.55152,0.24589
3365.62280,0.24539
3363.69407,0.24488
3361.76535,0.24462
3359.83662,0.24440
3357.90790,0.24391
3355.97918,0.24320
3354.05045,0.24246
3352.12173,0.24186
3350.19301,0.24154
3348.26428,0.24137
3346.33556,0.24101
3344.40684,0.24045
3342.47811,0.23985
3340.54939,0.23912
3338.62066,0.23839
3336.69194,0.23794
3334.76322,0.23769
3332.83449,0.23737
3330.90577,0.23693
3328.97705,0.23643
3327.04832,0.23589
3325.11960,0.23532
3323.19088,0.23484
3321.26215,0.23447
3319.33343,0.23401
3317.40470,0.23343
3315.47598,0.23286
3313.54726,0.23237
3311.61853,0.23198
3309.68981,0.23159
3307.76109,0.23110
3305.83236,0.23059
3303.90364,0.23011
3301.97491,0.22962
3300.04619,0.22911
3298.11747,0.22857
3296.18874,0.22812
3294.26002,0.22784
3292.33130,0.22749
3290.40257,0.22697
3288.47385,0.22648
3286.54513,0.22615
3284.61640,0.22583
3282.68768,0.22544
3280.75895,0.22498
3278.83023,0.22446
3276.90151,0.22389
3274.97278,0.22334
3273.04406,0.22286
3271.11534,0.22240
3269.18661,0.22202
3267.25789,0.22171
3265.32917,0.22140
3263.40044,0.22101
3261.47172,0.22055
3259.54299,0.22004
3257.61427,0.21956
3255.68555,0.21910
3253.75682,0.21863
3251.82810,0.21812
3249.89938,0.21760
3247.97065,0.21711
3246.04193,0.21663
3244.11320,0.21604
3242.18448,0.21542
3240.25576,0.21491
3238.32703,0.21444
3236.39831,0.21390
3234.46959,0.21332
3232.54086,0.21270
3230.61214,0.21205
3228.68342,0.21148
3226.75469,0.21097
3224.82597,0.21044
3222.89724,0.20981
3220.96852,0.20906
3219.03980,0.20828
3217.11107,0.20755
3215.18235,0.20680
3213.25363,0.20609
3211.32490,0.20548
3209.39618,0.20483
3207.46746,0.20409
3205.53873,0.20339
3203.61001,0.20267
3201.68128,0.20187
3199.75256,0.20104
3197.82384,0.20024
3195.89511,0.19943
3193.96639,0.19865
3192.03767,0.19791
3190.10894,0.19717
3188.18022,0.19636
3186.25149,0.19545
3184.32277,0.19444
3182.39405,0.19350
3180.46532,0.19273
3178.53660,0.19196
3176.60788,0.19107
3174.67915,0.19016
3172.75043,0.18929
3170.82171,0.18841
3168.89298,0.18751
3166.96426,0.18660
3165.03553,0.18571
3163.10681,0.18482
3161.17809,0.18388
3159.24936,0.18289
3157.32064,0.18195
3155.39192,0.18116
3153.46319,0.18036
3151.53447,0.17948
3149.60575,0.17866
3147.67702,0.17790
3145.74830,0.17711
3143.81957,0.17629
3141.89085,0.17533
3139.96213,0.17428
3138.03340,0.17339
3136.10468,0.17268
3134.17596,0.17193
3132.24723,0.17108
3130.31851,0.17030
3128.38978,0.16951
3126.46106,0.16860
3124.53234,0.16771
3122.60361,0.16691
3120.67489,0.16606
3118.74617,0.16510
3116.81744,0.16419
3114.88872,0.16330
3112.96000,0.16229
3111.03127,0.16121
3109.10255,0.16013
3107.17382,0.15914
3105.24510,0.15830
3103.31638,0.15748
3101.38765,0.15658
3099.45893,0.15561
3097.53021,0.15460
3095.60148,0.15356
3093.67276,0.15252
3091.74404,0.15147
3089.81531,0.15036
3087.88659,0.14927
3085.95786,0.14826
3084.02914,0.14732
3082.10042,0.14636
3080.17169,0.14541
3078.24297,0.14456
3076.31425,0.14378
3074.38552,0.14291
3072.45680,0.14187
3070.52807,0.14077
3068.59935,0.13970
3066.67063,0.13875
3064.74190,0.13788
3062.81318,0.13696
3060.88446,0.13603
3058.95573,0.13513
3057.02701,0.13408
3055.09829,0.13295
3053.16956,0.13202
3051.24084,0.13128
3049.31211,0.13055
3047.38339,0.12973
3045.45467,0.12873
3043.52594,0.12770
3041.59722,0.12680
3039.66850,0.12601
3037.73977,0.12524
3035.81105,0.12444
3033.88233,0.12360
3031.95360,0.12277
3030.02488,0.12196
3028.09615,0.12117
3026.16743,0.12039
3024.23871,0.11960
3022.30998,0.11875
3020.38126,0.11791
3018.45254,0.11713
3016.52381,0.11635
3014.59509,0.11556
3012.66636,0.11478
3010.73764,0.11406
3008.80892,0.11342
3006.88019,0.11272
3004.95147,0.11192
3003.02275,0.11115
3001.09402,0.11053
2999.16530,0.11004
2997.23658,0.10949
2995.30785,0.10879
2993.37913,0.10812
2991.45040,0.10763
2989.52168,0.10725
2987.59296,0.10682
2985.66423,0.10643
2983.73551,0.10628
2981.80679,0.10640
2979.87806,0.10663
2977.94934,0.10689
2976.02062,0.10719
2974.09189,0.10753
2972.16317,0.10798
2970.23444,0.10851
2968.30572,0.10900
2966.37700,0.10943
2964.44827,0.10977
2962.51955,0.10994
2960.59083,0.10980
2958.66210,0.10926
2956.73338,0.10845
2954.80466,0.10750
2952.87593,0.10649
2950.94721,0.10553
2949.01848,0.10467
2947.08976,0.10401
2945.16104,0.10368
2943.23231,0.10373
2941.30359,0.10415
2939.37487,0.10491
2937.44614,0.10589
2935.51742,0.10687
2933.58869,0.10781
2931.65997,0.10864
2929.73125,0.10926
2927.80252,0.10955
2925.87380,0.10928
2923.94508,0.10834
2922.01635,0.10674
2920.08763,0.10463
2918.15891,0.10217
2916.23018,0.09972
2914.30146,0.09753
2912.37273,0.09551
2910.44401,0.09355
2908.51529,0.09175
2906.58656,0.09011
2904.65784,0.08858
2902.72912,0.08715
2900.80039,0.08585
2898.87167,0.08462
2896.94295,0.08344
2895.01422,0.08226
2893.08550,0.08110
2891.15677,0.08003
2889.22805,0.07905
2887.29933,0.07806
2885.37060,0.07708
2883.44188,0.07636
2881.51316,0.07597
2879.58443,0.07570
2877.65571,0.07544
2875.72698,0.07512
2873.79826,0.07474
2871.86954,0.07427
2869.94081,0.07372
2868.01209,0.07320
2866.08337,0.07290
2864.15464,0.07287
2862.22592,0.07312
2860.29720,0.07363
2858.36847,0.07427
2856.43975,0.07472
2854.51102,0.07467
2852.58230,0.07383
2850.65358,0.07209
2848.72485,0.06959
2846.79613,0.06672
2844.86741,0.06401
2842.93868,0.06174
2841.00996,0.05981
2839.08124,0.05812
2837.15251,0.05660
2835.22379,0.05527
2833.29506,0.05415
2831.36634,0.05316
2829.43762,0.05229
2827.50889,0.05158
2825.58017,0.05094
2823.65145,0.05029
2821.72272,0.04955
2819.79400,0.04878
2817.86527,0.04805
2815.93655,0.04744
2814.00783,0.04691
2812.07910,0.04630
2810.15038,0.04566
2808.22166,0.04513
2806.29293,0.04467
2804.36421,0.04417
2802.43549,0.04364
2800.50676,0.04313
2798.57804,0.04254
2796.64931,0.04191
2794.72059,0.04140
2792.79187,0.04096
2790.86314,0.04045
2788.93442,0.03989
2787.00570,0.03937
2785.07697,0.03885
2783.14825,0.03829
2781.21953,0.03779
2779.29080,0.03733
2777.36208,0.03686
2775.43335,0.03648
2773.50463,0.03611
2771.57591,0.03563
2769.64718,0.03516
2767.71846,0.03479
2765.78974,0.03443
2763.86101,0.03403
2761.93229,0.03363
2760.00356,0.03320
2758.07484,0.03267
2756.14612,0.03213
2754.21739,0.03175
2752.28867,0.03137
2750.35995,0.03088
2748.43122,0.03046
2746.50250,0.03018
2744.57378,0.02986
2742.64505,0.02945
2740.71633,0.02905
2738.78760,0.02863
2736.85888,0.02817
2734.93016,0.02778
2733.00143,0.02745
2731.07271,0.02708
2729.14399,0.02672
2727.21526,0.02644
2725.28654,0.02616
2723.35782,0.02582
2721.42909,0.02546
2719.50037,0.02510
2717.57164,0.02470
2715.64292,0.02422
2713.71420,0.02375
2711.78547,0.02339
2709.85675,0.02309
2707.92803,0.02276
2705.99930,0.02235
2704.07058,0.02191
2702.14185,0.02156
2700.21313,0.02125
2698.28441,0.02091
2696.35568,0.02054
2694.42696,0.02016
2692.49824,0.01983
2690.56951,0.01954
2688.64079,0.01924
2686.71207,0.01898
2684.78334,0.01874
2682.85462,0.01852
2680.92589,0.01826
2678.99717,0.01793
2677.06845,0.01760
2675.13972,0.01733
2673.21100,0.01705
2671.28228,0.01674
2669.35355,0.01642
2667.42483,0.01608
2665.49611,0.01574
2663.56738,0.01544
2661.63866,0.01512
2659.70993,0.01478
2657.78121,0.01445
2655.85249,0.01423
2653.92376,0.01412
2651.99504,0.01396
2650.06632,0.01365
2648.13759,0.01323
2646.20887,0.01288
2644.28014,0.01265
2642.35142,0.01243
2640.42270,0.01216
2638.49397,0.01191
2636.56525,0.01168
2634.63653,0.01147
2632.70780,0.01125
2630.77908,0.01101
2628.85036,0.01077
2626.92163,0.01056
2624.99291,0.01038
2623.06418,0.01020
2621.13546,0.00997
2619.20674,0.00970
2617.27801,0.00944
2615.34929,0.00922
2613.42057,0.00901
2611.49184,0.00875
2609.56312,0.00843
2607.63440,0.00811
2605.70567,0.00786
2603.77695,0.00771
2601.84822,0.00768
2599.91950,0.00762
2597.99078,0.00741
2596.06205,0.00715
2594.13333,0.00699
2592.20461,0.00689
2590.27588,0.00676
2588.34716,0.00658
2586.41843,0.00635
2584.48971,0.00607
2582.56099,0.00588
2580.63226,0.00580
2578.70354,0.00567
2576.77482,0.00547
2574.84609,0.00531
2572.91737,0.00516
2570.98865,0.00499
2569.05992,0.00485
2567.13120,0.00477
2565.20247,0.00463
2563.27375,0.00438
2561.34503,0.00418
2559.41630,0.00405
2557.48758,0.00389
2555.55886,0.00375
2553.63013,0.00364
2551.70141,0.00346
2549.77269,0.00325
2547.84396,0.00313
2545.91524,0.00311
2543.98651,0.00304
2542.05779,0.00289
2540.12907,0.00275
2538.20034,0.00268
2536.27162,0.00263
2534.34290,0.00256
2532.41417,0.00246
2530.48545,0.00233
2528.55673,0.00218
2526.62800,0.00201
2524.69928,0.00186
2522.77055,0.00176
2520.84183,0.00169
2518.91311,0.00166
2516.98438,0.00164
2515.05566,0.00158
2513.12694,0.00149
2511.19821,0.00145
2509.26949,0.00145
2507.34076,0.00134
2505.41204,0.00116
2503.48332,0.00102
2501.55459,0.00096
2499.62587,0.00093
2497.69715,0.00085
2495.76842,0.00077
2493.83970,0.00077
2491.91098,0.00073
2489.98225,0.00062
2488.05353,0.00056
2486.12480,0.00053
2484.19608,0.00044
2482.26736,0.00035
2480.33863,0.00038
2478.40991,0.00044
2476.48119,0.00043
2474.55246,0.00033
2472.62374,0.00024
2470.69502,0.00022
2468.76629,0.00022
2466.83757,0.00016
2464.90884,0.00006
2462.98012,0.00000
2461.05140,0.00001
2459.12267,0.00003
2457.19395,0.00005
2455.26523,0.00011
2453.33650,0.00012
2451.40778,0.00007
2449.47905,-0.00000
2447.55033,-0.00006
2445.62161,-0.00008
2443.69288,-0.00007
2441.76416,-0.00006
2439.83544,-0.00007
2437.90671,-0.00012
2435.97799,-0.00021
2434.04927,-0.00026
2432.12054,-0.00020
2430.19182,0.00000
2428.26309,0.00021
2426.33437,0.00028
2424.40565,0.00018
2422.47692,0.00005
2420.54820,0.00002
2418.61948,0.00003
2416.69075,-0.00001
2414.76203,-0.00011
2412.83331,-0.00016
2410.90458,-0.00015
2408.97586,-0.00016
2407.04713,-0.00020
2405.11841,-0.00024
2403.18969,-0.00030
2401.26096,-0.00040
2399.33224,-0.00043
2397.40352,-0.00036
2395.47479,-0.00028
2393.54607,-0.00022
2391.61734,-0.00013
2389.68862,-0.00004
2387.75990,-0.00000
2385.83117,0.00001
2383.90245,0.00006
2381.97373,0.00012
2380.04500,0.00020
2378.11628,0.00030
2376.18756,0.00043
2374.25883,0.00058
2372.33011,0.00064
2370.40138,0.00057
2368.47266,0.00049
2366.54394,0.00052
2364.61521,0.00056
2362.68649,0.00048
2360.75777,0.00035
2358.82904,0.00030
2356.90032,0.00028
2354.97160,0.00015
2353.04287,0.00000
2351.11415,0.00002
2349.18542,0.00032
2347.25670,0.00064
2345.32798,0.00072
2343.39925,0.00061
2341.47053,0.00058
2339.54181,0.00071
2337.61308,0.00080
2335.68436,0.00070
2333.75563,0.00050
2331.82691,0.00036
2329.89819,0.00034
2327.96946,0.00039
2326.04074,0.00046
2324.11202,0.00047
2322.18329,0.00038
2320.25457,0.00027
2318.32585,0.00024
2316.39712,0.00031
2314.46840,0.00036
2312.53967,0.00033
2310.61095,0.00027
2308.68223,0.00024
2306.75350,0.00028
2304.82478,0.00032
2302.89606,0.00034
2300.96733,0.00038
2299.03861,0.00038
2297.10989,0.00031
2295.18116,0.00024
2293.25244,0.00018
2291.32371,0.00013
2289.39499,0.00014
2287.46627,0.00024
2285.53754,0.00033
2283.60882,0.00032
2281.68010,0.00025
2279.75137,0.00019
2277.82265,0.00018
2275.89392,0.00019
2273.96520,0.00021
2272.03648,0.00020
2270.10775,0.00014
2268.17903,0.00003
2266.25031,-0.00005
2264.32158,-0.00003
2262.39286,0.00004
2260.46414,0.00011
2258.53541,0.00016
2256.60669,0.00018
2254.67796,0.00019
2252.74924,0.00016
2250.82052,0.00011
2248.89179,0.00009
2246.96307,0.00012
2245.03435,0.00012
2243.10562,0.00007
2241.17690,0.00009
2239.24818,0.00020
2237.31945,0.00024
2235.39073,0.00019
2233.46200,0.00014
2231.53328,0.00016
2229.60456,0.00020
2227.67583,0.00017
2225.74711,0.00011
2223.81839,0.00008
2221.88966,0.00007
2219.96094,0.00005
2218.03221,0.00000
2216.10349,-0.00001
2214.17477,0.00004
2212.24604,0.00008
2210.31732,0.00006
2208.38860,0.00002
2206.45987,0.00000
2204.53115,-0.00001
2202.60243,0.00004
2200.67370,0.00010
2198.74498,0.00007
2196.81625,-0.00002
2194.88753,-0.00007
2192.95881,-0.00007
2191.03008,-0.00005
2189.10136,-0.00003
2187.17264,-0.00007
2185.24391,-0.00011
2183.31519,-0.00013
2181.38647,-0.00014
2179.45774,-0.00015
2177.52902,-0.00012
2175.60029,-0.00009
2173.67157,-0.00009
2171.74285,-0.00009
2169.81412,-0.00007
2167.88540,-0.00003
2165.95668,-0.00000
2164.02795,0.00007
2162.09923,0.00017
2160.17050,0.00019
2158.24178,0.00014
2156.31306,0.00011
2154.38433,0.00013
2152.45561,0.00018
2150.52689,0.00022
2148.59816,0.00024
2146.66944,0.00022
2144.74072,0.00016
2142.81199,0.00017
2140.88327,0.00024
2138.95454,0.00029
2137.02582,0.00030
2135.09710,0.00031
2133.16837,0.00029
2131.23965,0.00021
2129.31093,0.00016
2127.38220,0.00013
2125.45348,0.00013
2123.52476,0.00015
2121.59603,0.00018
2119.66731,0.00021
2117.73858,0.00022
2115.80986,0.00021
2113.88114,0.00015
2111.95241,0.00008
2110.02369,0.00005
2108.09497,0.00005
2106.16624,0.00001
2104.23752,-0.00003
2102.30880,-0.00007
2100.38007,-0.00011
2098.45135,-0.00011
2096.52262,-0.00006
2094.59390,0.00000
2092.66518,0.00003
2090.73645,0.00000
2088.80773,-0.00011
2086.87901,-0.00021
2084.95028,-0.00022
2083.02156,-0.00020
2081.09283,-0.00028
2079.16411,-0.00039
2077.23539,-0.00044
2075.30666,-0.00040
2073.37794,-0.00033
2071.44922,-0.00029
2069.52049,-0.00030
2067.59177,-0.00030
2065.66305,-0.00026
2063.73432,-0.00020
2061.80560,-0.00015
2059.87687,-0.00013
2057.94815,-0.00013
2056.01943,-0.00006
2054.09070,0.00007
2052.16198,0.00018
2050.23326,0.00026
2048.30453,0.00042
2046.37581,0.00063
2044.44709,0.00081
2042.51836,0.00091
2040.58964,0.00100
2038.66091,0.00119
2036.73219,0.00149
2034.80347,0.00173
2032.87474,0.00185
2030.94602,0.00194
2029.01730,0.00206
2027.08857,0.00220
2025.15985,0.00231
2023.23112,0.00242
2021.30240,0.00258
2019.37368,0.00278
2017.44495,0.00298
2015.51623,0.00314
2013.58751,0.00327
2011.65878,0.00336
2009.73006,0.00339
2007.80134,0.00344
2005.87261,0.00355
2003.94389,0.00364
2002.01516,0.00365
2000.08644,0.00360
1998.15772,0.00361
1996.22899,0.00369
1994.30027,0.00373
1992.37155,0.00364
1990.44282,0.00352
1988.51410,0.00347
1986.58538,0.00346
1984.65665,0.00343
1982.72793,0.00333
1980.79920,0.00318
1978.87048,0.00303
1976.94176,0.00289
1975.01303,0.00278
1973.08431,0.00273
1971.15559,0.00272
1969.22686,0.00262
1967.29814,0.00240
1965.36941,0.00225
1963.44069,0.00217
1961.51197,0.00201
1959.58324,0.00177
1957.65452,0.00160
1955.72580,0.00148
1953.79707,0.00136
1951.86835,0.00124
1949.93963,0.00118
1948.01090,0.00118
1946.08218,0.00113
1944.15345,0.00097
1942.22473,0.00076
1940.29601,0.00066
1938.36728,0.00070
1936.43856,0.00074
1934.50984,0.00069
1932.58111,0.00059
1930.65239,0.00054
1928.72367,0.00059
1926.79494,0.00074
1924.86622,0.00089
1922.93749,0.00101
1921.00877,0.00115
1919.08005,0.00129
1917.15132,0.00147
1915.22260,0.00177
1913.29388,0.00217
1911.36515,0.00253
1909.43643,0.00282
1907.50770,0.00308
1905.57898,0.00340
1903.65026,0.00380
1901.72153,0.00428
1899.79281,0.00478
1897.86409,0.00525
1895.93536,0.00565
1894.00664,0.00597
1892.07792,0.00628
1890.14919,0.00658
1888.22047,0.00684
1886.29174,0.00713
1884.36302,0.00745
1882.43430,0.00773
1880.50557,0.00792
1878.57685,0.00800
1876.64813,0.00796
1874.71940,0.00790
1872.79068,0.00790
1870.86196,0.00784
1868.93323,0.00758
1867.00451,0.00727
1865.07578,0.00708
1863.14706,0.00686
1861.21834,0.00652
1859.28961,0.00611
1857.36089,0.00572
1855.43217,0.00535
1853.50344,0.00495
1851.57472,0.00450
1849.64599,0.00409
1847.71727,0.00376
1845.78855,0.00329
1843.85982,0.00261
1841.93110,0.00208
1840.00238,0.00190
1838.07365,0.00180
1836.14493,0.00165
1834.21621,0.00156
1832.28748,0.00148
1830.35876,0.00116
1828.43003,0.00066
1826.50131,0.00026
1824.57259,0.00003
1822.64386,-0.00004
1820.71514,-0.00002
1818.78642,-0.00000
1816.85769,-0.00001
1814.92897,0.00000
1813.00025,-0.00001
1811.07152,-0.00007
1809.14280,-0.00016
1807.21407,-0.00018
1805.28535,-0.00015
1803.35663,-0.00016
1801.42790,-0.00020
1799.49918,-0.00014
1797.57046,0.00012
1795.64173,0.00046
1793.71301,0.00060
1791.78428,0.00052
1789.85556,0.00052
1787.92684,0.00077
1785.99811,0.00107
1784.06939,0.00127
1782.14067,0.00144
1780.21194,0.00166
1778.28322,0.00199
1776.35450,0.00238
1774.42577,0.00264
1772.49705,0.00266
1770.56832,0.00269
1768.63960,0.00297
1766.71088,0.00342
1764.78215,0.00382
1762.85343,0.00404
1760.92471,0.00418
1758.99598,0.00438
1757.06726,0.00464
1755.13854,0.00491
1753.20981,0.00517
1751.28109,0.00527
1749.35236,0.00524
1747.42364,0.00540
1745.49492,0.00583
1743.56619,0.00642
1741.63747,0.00706
1739.70875,0.00771
1737.78002,0.00846
1735.85130,0.00933
1733.92257,0.01030
1731.99385,0.01137
1730.06513,0.01263
1728.13640,0.01406
1726.20768,0.01556
1724.27896,0.01704
1722.35023,0.01849
1720.42151,0.01993
1718.49279,0.02149
1716.56406,0.02328
1714.63534,0.02519
1712.70661,0.02710
1710.77789,0.02900
1708.84917,0.03089
1706.92044,0.03288
1704.99172,0.03503
1703.06300,0.03722
1701.13427,0.03952
1699.20555,0.04201
1697.27683,0.04462
1695.34810,0.04734
1693.41938,0.04997
1691.49065,0.05248
1689.56193,0.05504
1687.63321,0.05758
1685.70448,0.06031
1683.77576,0.06345
1681.84704,0.06650
1679.91831,0.06914
1677.98959,0.07156
1676.06087,0.07395
1674.13214,0.07639
1672.20342,0.07883
1670.27469,0.08135
1668.34597,0.08389
1666.41725,0.08621
1664.48852,0.08836
1662.55980,0.09051
1660.63108,0.09265
1658.70235,0.09466
1656.77363,0.09642
1654.84490,0.09799
1652.91618,0.09963
1650.98746,0.10134
1649.05873,0.10285
1647.13001,0.10419
1645.20129,0.10554
1643.27256,0.10689
1641.34384,0.10815
1639.41512,0.10921
1637.48639,0.10982
1635.55767,0.10987
1633.62894,0.10979
1631.70022,0.10985
1629.77150,0.10967
1627.84277,0.10905
1625.91405,0.10805
1623.98533,0.10659
1622.05660,0.10481
1620.12788,0.10308
1618.19916,0.10088
1616.27043,0.09770
1614.34171,0.09458
1612.41298,0.09209
1610.48426,0.08952
1608.55554,0.08652
1606.62681,0.08338
1604.69809,0.08025
1602.76937,0.07707
1600.84064,0.07402
1598.91192,0.07127
1596.98319,0.06873
1595.05447,0.06625
1593.12575,0.06386
1591.19702,0.06164
1589.26830,0.05960
1587.33958,0.05781
1585.41085,0.05619
1583.48213,0.05461
1581.55341,0.05313
1579.62468,0.05183
1577.69596,0.05037
1575.76723,0.04855
1573.83851,0.04712
1571.90979,0.04624
1569.98106,0.04525
1568.05234,0.04413
1566.12362,0.04331
1564.19489,0.04283
1562.26617,0.04245
1560.33745,0.04141
1558.40872,0.03941
1556.48000,0.03803
1554.55127,0.03762
1552.62255,0.03729
1550.69383,0.03667
1548.76510,0.03591
1546.83638,0.03518
1544.90766,0.03444
1542.97893,0.03340
1541.05021,0.03177
1539.12148,0.03001
1537.19276,0.02911
1535.26404,0.02858
1533.33531,0.02763
1531.40659,0.02649
1529.47787,0.02552
1527.54914,0.02442
1525.62042,0.02308
1523.69170,0.02168
1521.76297,0.02022
1519.83425,0.01903
1517.90552,0.01834
1515.97680,0.01787
1514.04808,0.01739
1512.11935,0.01679
1510.19063,0.01579
1508.26191,0.01388
1506.33318,0.01122
1504.40446,0.00946
1502.47574,0.00883
1500.54701,0.00832
1498.61829,0.00736
1496.68956,0.00617
1494.76084,0.00535
1492.83212,0.00498
1490.90339,0.00464
1488.97467,0.00419
1487.04595,0.00402
1485.11722,0.00418
1483.18850,0.00445
1481.25977,0.00476
1479.33105,0.00516
1477.40233,0.00561
1475.47360,0.00618
1473.54488,0.00718
1471.61616,0.00879
1469.68743,0.01062
1467.75871,0.01207
1465.82999,0.01288
1463.90126,0.01329
1461.97254,0.01378
1460.04381,0.01434
1458.11509,0.01456
1456.18637,0.01443
1454.25764,0.01450
1452.32892,0.01481
1450.40020,0.01502
1448.47147,0.01504
1446.54275,0.01507
1444.61403,0.01528
1442.68530,0.01553
1440.75658,0.01572
1438.82785,0.01579
1436.89913,0.01576
1434.97041,0.01579
1433.04168,0.01599
1431.11296,0.01616
1429.18424,0.01631
1427.25551,0.01674
1425.32679,0.01743
1423.39806,0.01816
1421.46934,0.01880
1419.54062,0.01936
1417.61189,0.02006
1415.68317,0.02106
1413.75445,0.02222
1411.82572,0.02339
1409.89700,0.02455
1407.96828,0.02573
1406.03955,0.02684
1404.11083,0.02775
1402.18210,0.02836
1400.25338,0.02851
1398.32466,0.02801
1396.39593,0.02685
1394.46721,0.02527
1392.53849,0.02385
1390.60976,0.02309
1388.68104,0.02331
1386.75232,0.02439
1384.82359,0.02509
1382.89487,0.02399
1380.96614,0.02141
1379.03742,0.01888
1377.10870,0.01711
1375.17997,0.01575
1373.25125,0.01456
1371.32253,0.01365
1369.39380,0.01296
1367.46508,0.01228
1365.53635,0.01150
1363.60763,0.01059
1361.67891,0.00968
1359.75018,0.00906
1357.82146,0.00873
1355.89274,0.00847
1353.96401,0.00814
1352.03529,0.00786
1350.10657,0.00777
1348.17784,0.00775
1346.24912,0.00760
1344.32039,0.00734
1342.39167,0.00715
1340.46295,0.00708
1338.53422,0.00717
1336.60550,0.00737
1334.67678,0.00758
1332.74805,0.00777
1330.81933,0.00797
1328.89061,0.00820
1326.96188,0.00844
1325.03316,0.00869
1323.10443,0.00892
1321.17571,0.00914
1319.24699,0.00933
1317.31826,0.00933
1315.38954,0.00895
1313.46082,0.00819
1311.53209,0.00734
1309.60337,0.00663
1307.67464,0.00579
1305.74592,0.00424
1303.81720,0.00188
1301.88847,0.00000
1299.95975,0.00002
1298.03103,0.00154
1296.10230,0.00305
1294.17358,0.00442
1292.24486,0.00638
1290.31613,0.00920
1288.38741,0.01269
1286.45868,0.01662
1284.52996,0.02085
1282.60124,0.02517
1280.67251,0.02935
1278.74379,0.03343
1276.81507,0.03765
1274.88634,0.04210
1272.95762,0.04676
1271.02890,0.05174
1269.10017,0.05722
1267.17145,0.06328
1265.24272,0.06999
1263.31400,0.07735
1261.38528,0.08540
1259.45655,0.09406
1257.52783,0.10302
1255.59911,0.11219
1253.67038,0.12160
1251.74166,0.13101
1249.81294,0.14011
1247.88421,0.14865
1245.95549,0.15648
1244.02676,0.16359
1242.09804,0.17008
1240.16932,0.17595
1238.24059,0.18117
1236.31187,0.18587
1234.38315,0.19030
1232.45442,0.19449
1230.52570,0.19846
1228.59697,0.20219
1226.66825,0.20559
1224.73953,0.20871
1222.81080,0.21166
1220.88208,0.21446
1218.95336,0.21717
1217.02463,0.21989
1215.09591,0.22260
1213.16719,0.22525
1211.23846,0.22777
1209.30974,0.23006
1207.38101,0.23226
1205.45229,0.23448
1203.52357,0.23651
1201.59484,0.23804
1199.66612,0.23877
1197.73740,0.23839
1195.80867,0.23695
1193.87995,0.23559
1191.95123,0.23595
1190.02250,0.23825
1188.09378,0.24099
1186.16505,0.24323
1184.23633,0.24583
1182.30761,0.24973
1180.37888,0.25432
1178.45016,0.25878
1176.52144,0.26328
1174.59271,0.26788
1172.66399,0.27213
1170.73526,0.27603
1168.80654,0.27983
1166.87782,0.28344
1164.94909,0.28663
1163.02037,0.28933
1161.09165,0.29178
1159.16292,0.29417
1157.23420,0.29657
1155.30548,0.29892
1153.37675,0.30113
1151.44803,0.30319
1149.51930,0.30505
1147.59058,0.30679
1145.66186,0.30870
1143.73313,0.31083
1141.80441,0.31277
1139.87569,0.31432
1137.94696,0.31593
1136.01824,0.31802
1134.08952,0.32049
1132.16079,0.32310
1130.23207,0.32575
1128.30334,0.32842
1126.37462,0.33110
1124.44590,0.33391
1122.51717,0.33692
1120.58845,0.33992
1118.65973,0.34272
1116.73100,0.34576
1114.80228,0.34951
1112.87355,0.35395
1110.94483,0.35866
1109.01611,0.36291
1107.08738,0.36633
1105.15866,0.36995
1103.22994,0.37470
1101.30121,0.37926
1099.37249,0.38247
1097.44377,0.38502
1095.51504,0.38776
1093.58632,0.39088
1091.65759,0.39353
1089.72887,0.39497
1087.80015,0.39560
1085.87142,0.39605
1083.94270,0.39637
1082.01398,0.39659
1080.08525,0.39673
1078.15653,0.39645
1076.22781,0.39556
1074.29908,0.39419
1072.37036,0.39281
1070.44163,0.39171
1068.51291,0.39051
1066.58419,0.38879
1064.65546,0.38664
1062.72674,0.38465
1060.79802,0.38312
1058.86929,0.38149
1056.94057,0.37910
1055.01184,0.37605
1053.08312,0.37299
1051.15440,0.37001
1049.22567,0.36694
1047.29695,0.36394
1045.36823,0.36112
1043.43950,0.35813
1041.51078,0.35466
1039.58206,0.35078
1037.65333,0.34651
1035.72461,0.34210
1033.79588,0.33779
1031.86716,0.33347
1029.93844,0.32891
1028.00971,0.32417
1026.08099,0.31954
1024.15227,0.31522
1022.22354,0.31116
1020.29482,0.30694
1018.36610,0.30240
1016.43737,0.29806
1014.50865,0.29407
1012.57992,0.28980
1010.65120,0.28519
1008.72248,0.28090
1006.79375,0.27687
1004.86503,0.27261
1002.93631,0.26811
1001.00758,0.26336
999.07886,0.25834
997.15013,0.25328
995.22141,0.24844
993.29269,0.24384
991.36396,0.23913
989.43524,0.23423
987.50652,0.22957
985.57779,0.22540
983.64907,0.22169
981.72035,0.21844
979.79162,0.21541
977.86290,0.21232
975.93417,0.20911
974.00545,0.20594
972.07673,0.20331
970.14800,0.20143
968.21928,0.19986
966.29056,0.19823
964.36183,0.19655
962.43311,0.19485
960.50439,0.19322
958.57566,0.19167
956.64694,0.19016
954.71821,0.18886
952.78949,0.18778
950.86077,0.18662
948.93204,0.18506
947.00332,0.18294
945.07460,0.18062
943.14587,0.17852
941.21715,0.17655
939.28842,0.17454
937.35970,0.17254
935.43098,0.17042
933.50225,0.16800
931.57353,0.16521
929.64481,0.16232
927.71608,0.15998
925.78736,0.15806
923.85864,0.15576
921.92991,0.15307
920.00119,0.15054
918.07246,0.14814
916.14374,0.14565
914.21502,0.14311
912.28629,0.14056
910.35757,0.13782
908.42885,0.13478
906.50012,0.13147
904.57140,0.12804
902.64268,0.12461
900.71395,0.12129
898.78523,0.11826
896.85650,0.11552
894.92778,0.11265
892.99906,0.10961
891.07033,0.10684
889.14161,0.10429
887.21289,0.10165
885.28416,0.09899
883.35544,0.09634
881.42671,0.09376
879.49799,0.09152
877.56927,0.08939
875.64054,0.08705
873.71182,0.08457
871.78310,0.08227
869.85437,0.08029
867.92565,0.07845
865.99693,0.07647
864.06820,0.07442
862.13948,0.07256
860.21075,0.07081
858.28203,0.06885
856.35331,0.06671
854.42458,0.06483
852.49586,0.06344
850.56714,0.06253
848.63841,0.06206
846.70969,0.06195
844.78097,0.06217
842.85224,0.06283
840.92352,0.06404
838.99479,0.06572
837.06607,0.06766
835.13735,0.06960
833.20862,0.07157
831.27990,0.07387
829.35118,0.07653
827.42245,0.07937
825.49373,0.08211
823.56501,0.08448
821.63628,0.08670
819.70756,0.08929
817.77883,0.09201
815.85011,0.09450
813.92139,0.09698
811.99266,0.09949
810.06394,0.10181
808.13522,0.10409
806.20649,0.10672
804.27777,0.10967
802.34904,0.11210
800.42032,0.11313
798.49160,0.11305
796.56287,0.11292
794.63415,0.11285
792.70543,0.11233
790.77670,0.11131
788.84798,0.10998
786.91926,0.10839
784.99053,0.10652
783.06181,0.10434
781.13308,0.10215
779.20436,0.10009
777.27564,0.09763
775.34691,0.09440
773.41819,0.09089
771.48947,0.08786
769.56074,0.08566
767.63202,0.08421
765.70330,0.08341
763.77457,0.08298
761.84585,0.08259
759.91712,0.08230
757.98840,0.08203
756.05968,0.08151
754.13095,0.08093
752.20223,0.08065
750.27351,0.08057
748.34478,0.08038
746.41606,0.07998
744.48733,0.07917
742.55861,0.07815
740.62989,0.07769
738.70116,0.07781
736.77244,0.07811
734.84372,0.07841
732.91499,0.07828
730.98627,0.07771
729.05755,0.07745
727.12882,0.07750
725.20010,0.07731
723.27137,0.07701
721.34265,0.07682
719.41393,0.07643
717.48520,0.07567
715.55648,0.07516
713.62776,0.07545
711.69903,0.07598
709.77031,0.07621
707.84159,0.07636
705.91286,0.07661
703.98414,0.07708
702.05541,0.07780
700.12669,0.07846
698.19797,0.07866
696.26924,0.07837
694.34052,0.07814
692.41180,0.07858
690.48307,0.07943
688.55435,0.07994
686.62562,0.07995
684.69690,0.07978
682.76818,0.07951
680.83945,0.07922
678.91073,0.07899
676.98201,0.07851
675.05328,0.07763
673.12456,0.07673
671.19584,0.07599
669.26711,0.07553
667.33839,0.07586
665.40966,0.07693
663.48094,0.07792
661.55222,0.07853
659.62349,0.07909
657.69477,0.07981
655.76605,0.08046
653.83732,0.08080
651.90860,0.08124
649.97988,0.08246
648.05115,0.08436
646.12243,0.08605
644.19370,0.08709
642.26498,0.08796
640.33626,0.08910
638.40753,0.09041
636.47881,0.09177
634.55009,0.09295
632.62136,0.09371
630.69264,0.09437
628.76391,0.09536
626.83519,0.09653
624.90647,0.09726
622.97774,0.09756
621.04902,0.09816
619.12030,0.09935
617.19157,0.10032
615.26285,0.10066
613.33413,0.10127
611.40540,0.10245
609.47668,0.10357
607.54795,0.10472
605.61923,0.10615
603.69051,0.10766
601.76178,0.10925
599.83306,0.11084
597.90434,0.11231
595.97561,0.11376
594.04689,0.11500
592.11817,0.11605
590.18944,0.11723
588.26072,0.11834
586.33199,0.11931
584.40327,0.12073
582.47455,0.12244
580.54582,0.12353
578.61710,0.12393
576.68838,0.12442
574.75965,0.12533
572.83093,0.12621
570.90220,0.12712
568.97348,0.12836
567.04476,0.12909
565.11603,0.12881
563.18731,0.12863
561.25859,0.12936
559.32986,0.13035
557.40114,0.13103
555.47242,0.13197
553.54369,0.13347
551.61497,0.13489
549.68624,0.13632
547.75752,0.13831
545.82880,0.14061
543.90007,0.14287
541.97135,0.14465
540.04263,0.14533
538.11390,0.14530
536.18518,0.14559
534.25646,0.14630
532.32773,0.14673
530.39901,0.14702
528.47028,0.14756
526.54156,0.14799
524.61284,0.14814
522.68411,0.14831
520.75539,0.14877
518.82667,0.14984
516.89794,0.15149
514.96922,0.15319
513.04049,0.15478
511.11177,0.15677
509.18305,0.15927
507.25432,0.16212
505.32560,0.16614
503.39688,0.17156
501.46815,0.17712
499.53943,0.18288
497.61071,0.18995
495.68198,0.19713
493.75326,0.20190
491.82453,0.20441
489.89581,0.20801
487.96709,0.21532
486.03836,0.22477
484.10964,0.23250
482.18092,0.23740
480.25219,0.24184
478.32347,0.24755
476.39475,0.25357
474.46602,0.25923
472.53730,0.26640
470.60857,0.27470
468.67985,0.28010
466.75113,0.28147
464.82240,0.28051
462.89368,0.27787
460.96496,0.27333
459.03623,0.26747
457.10751,0.26186
455.17878,0.25773
453.25006,0.25505
451.32134,0.25292
449.39261,0.24976
447.46389,0.24529
445.53517,0.24073
443.60644,0.23602
441.67772,0.23037
439.74900,0.22407
437.82027,0.21844
435.89155,0.21514
433.96282,0.21252
432.03410,0.20767
430.10538,0.20262
428.17665,0.19916
426.24793,0.19448
424.31921,0.18729
422.39048,0.17966
420.46176,0.17340
418.53304,0.16966
416.60431,0.16818
414.67559,0.16546
412.74686,0.15899
410.81814,0.15051
408.88942,0.14393
406.96069,0.14049
405.03197,0.13756
403.10325,0.13304
401.17452,0.12777
399.24580,0.12322
397.31708,0.11988
395.38835,0.11645
393.45963,0.10987
391.53090,0.10390
389.60218,0.10967
387.67346,0.12688
385.74473,0.13517
383.81601,0.11950
381.88729,0.08983
379.95856,0.05740
378.02984,0.02370
376.10111,0.00000
374.17239,-0.00798
372.24367,0.01433
370.31494,0.02257
368.38622,0.00000
