3996.31543,0.00018
3994.38671,0.00008
3992.45799,0.00000
3990.52926,0.00009
3988.60054,0.00029
3986.67182,0.00047
3984.74309,0.00060
3982.81437,0.00070
3980.88564,0.00075
3978.95692,0.00071
3977.02820,0.00061
3975.09947,0.00063
3973.17075,0.00082
3971.24203,0.00096
3969.31330,0.00098
3967.38458,0.00098
3965.45586,0.00095
3963.52713,0.00089
3961.59841,0.00089
3959.66968,0.00095
3957.74096,0.00102
3955.81224,0.00097
3953.88351,0.00077
3951.95479,0.00056
3950.02607,0.00056
3948.09734,0.00078
3946.16862,0.00100
3944.23990,0.00113
3942.31117,0.00122
3940.38245,0.00122
3938.45372,0.00108
3936.52500,0.00086
3934.59628,0.00072
3932.66755,0.00080
3930.73883,0.00097
3928.81011,0.00106
3926.88138,0.00104
3924.95266,0.00104
3923.02393,0.00102
3921.09521,0.00095
3919.16649,0.00086
3917.23776,0.00078
3915.30904,0.00069
3913.38032,0.00052
3911.45159,0.00032
3909.52287,0.00020
3907.59415,0.00024
3905.66542,0.00043
3903.73670,0.00070
3901.80797,0.00096
3899.87925,0.00113
3897.95053,0.00104
3896.02180,0.00067
3894.09308,0.00033
3892.16436,0.00034
3890.23563,0.00050
3888.30691,0.00045
3886.37819,0.00041
3884.44946,0.00060
3882.52074,0.00078
3880.59201,0.00090
3878.66329,0.00080
3876.73457,0.00037
3874.80584,0.00000
3872.87712,-0.00003
3870.94840,0.00028
3869.01967,0.00068
3867.09095,0.00084
3865.16222,0.00095
3863.23350,0.00120
3861.30478,0.00119
3859.37605,0.00072
3857.44733,0.00019
3855.51861,0.00035
3853.58988,0.00137
3851.66116,0.00202
3849.73244,0.00152
3847.80371,0.00065
3845.87499,0.00017
3843.94626,0.00016
3842.01754,0.00028
3840.08882,0.00042
3838.16009,0.00072
3836.23137,0.00094
3834.30265,0.00090
3832.37392,0.00082
3830.44520,0.00076
3828.51648,0.00063
3826.58775,0.00045
3824.65903,0.00013
3822.73030,0.00000
3820.80158,0.00058
3818.87286,0.00139
3816.94413,0.00181
3815.01541,0.00192
3813.08669,0.00167
3811.15796,0.00116
3809.22924,0.00095
3807.30052,0.00133
3805.37179,0.00175
3803.44307,0.00185
3801.51434,0.00207
3799.58562,0.00236
3797.65690,0.00246
3795.72817,0.00254
3793.79945,0.00258
3791.87073,0.00256
3789.94200,0.00262
3788.01328,0.00285
3786.08455,0.00326
3784.15583,0.00360
3782.22711,0.00369
3780.29838,0.00391
3778.36966,0.00443
3776.44094,0.00473
3774.51221,0.00464
3772.58349,0.00459
3770.65477,0.00498
3768.72604,0.00566
3766.79732,0.00625
3764.86859,0.00673
3762.93987,0.00718
3761.01115,0.00765
3759.08242,0.00825
3757.15370,0.00868
3755.22498,0.00876
3753.29625,0.00910
3751.36753,0.01039
3749.43881,0.01199
3747.51008,0.01274
3745.58136,0.01332
3743.65263,0.01456
3741.72391,0.01571
3739.79519,0.01634
3737.86646,0.01725
3735.93774,0.01916
3734.00902,0.02168
3732.08029,0.02377
3730.15157,0.02500
3728.22284,0.02604
3726.29412,0.02771
3724.36540,0.03012
3722.43667,0.03285
3720.50795,0.03561
3718.57923,0.03819
3716.65050,0.04042
3714.72178,0.04259
3712.79306,0.04567
3710.86433,0.05002
3708.93561,0.05425
3707.00688,0.05734
3705.07816,0.05997
3703.14944,0.06342
3701.22071,0.06788
3699.29199,0.07219
3697.36327,0.07572
3695.43454,0.07871
3693.50582,0.08151
3691.57710,0.08505
3689.64837,0.09030
3687.71965,0.09601
3685.79092,0.10029
3683.86220,0.10351
3681.93348,0.10683
3680.00475,0.11054
3678.07603,0.11492
3676.14731,0.12074
3674.21858,0.12683
3672.28986,0.13130
3670.36113,0.13576
3668.43241,0.14100
3666.50369,0.14533
3664.57496,0.14889
3662.64624,0.15267
3660.71752,0.15649
3658.78879,0.16018
3656.86007,0.16420
3654.93135,0.16807
3653.00262,0.17080
3651.07390,0.17370
3649.14517,0.17870
3647.21645,0.18424
3645.28773,0.18769
3643.35900,0.18964
3641.43028,0.19170
3639.50156,0.19426
3637.57283,0.19699
3635.64411,0.19970
3633.71539,0.20212
3631.78666,0.20417
3629.85794,0.20705
3627.92921,0.21119
3626.00049,0.21444
3624.07177,0.21612
3622.14304,0.21756
3620.21432,0.21978
3618.28560,0.22250
3616.35687,0.22475
3614.42815,0.22657
3612.49942,0.22828
3610.57070,0.22969
3608.64198,0.23117
3606.71325,0.23309
3604.78453,0.23495
3602.85581,0.23648
3600.92708,0.23804
3598.99836,0.23977
3597.06964,0.24155
3595.14091,0.24341
3593.21219,0.24512
3591.28346,0.24632
3589.35474,0.24754
3587.42602,0.24962
3585.49729,0.25203
3583.56857,0.25372
3581.63985,0.25495
3579.71112,0.25626
3577.78240,0.25763
3575.85368,0.25898
3573.92495,0.26044
3571.99623,0.26184
3570.06750,0.26303
3568.13878,0.26442
3566.21006,0.26623
3564.28133,0.26793
3562.35261,0.26940
3560.42389,0.27097
3558.49516,0.27246
3556.56644,0.27357
3554.63771,0.27451
3552.70899,0.27563
3550.78027,0.27682
3548.85154,0.27794
3546.92282,0.27925
3544.99410,0.28089
3543.06537,0.28244
3541.13665,0.28347
3539.20793,0.28406
3537.27920,0.28474
3535.35048,0.28579
3533.42175,0.28708
3531.49303,0.28841
3529.56431,0.28966
3527.63558,0.29082
3525.70686,0.29199
3523.77814,0.29323
3521.84941,0.29438
3519.92069,0.29532
3517.99197,0.29620
3516.06324,0.29714
3514.13452,0.29804
3512.20579,0.29897
3510.27707,0.30007
3508.34835,0.30120
3506.41962,0.30211
3504.49090,0.30290
3502.56218,0.30371
3500.63345,0.30447
3498.70473,0.30522
3496.77600,0.30614
3494.84728,0.30721
3492.91856,0.30824
3490.98983,0.30914
3489.06111,0.30997
3487.13239,0.31066
3485.20366,0.31117
3483.27494,0.31177
3481.34622,0.31267
3479.41749,0.31355
3477.48877,0.31420
3475.56004,0.31473
3473.63132,0.31538
3471.70260,0.31612
3469.77387,0.31673
3467.84515,0.31714
3465.91643,0.31756
3463.98770,0.31820
3462.05898,0.31904
3460.13026,0.31981
3458.20153,0.32045
3456.27281,0.32101
3454.34408,0.32148
3452.41536,0.32184
3450.48664,0.32206
3448.55791,0.32225
3446.62919,0.32276
3444.70047,0.32351
3442.77174,0.32424
3440.84302,0.32493
3438.91429,0.32547
3436.98557,0.32579
3435.05685,0.32613
3433.12812,0.32653
3431.19940,0.32665
3429.27068,0.32635
3427.34195,0.32604
3425.41323,0.32613
3423.48451,0.32650
3421.55578,0.32702
3419.62706,0.32764
3417.69833,0.32818
3415.76961,0.32848
3413.84089,0.32856
3411.91216,0.32851
3409.98344,0.32847
3408.05472,0.32848
3406.12599,0.32851
3404.19727,0.32860
3402.26855,0.32859
3400.33982,0.32827
3398.41110,0.32811
3396.48237,0.32848
3394.55365,0.32895
3392.62493,0.32912
3390.69620,0.32901
3388.76748,0.32867
3386.83876,0.32838
3384.91003,0.32830
3382.98131,0.32825
3381.05259,0.32811
3379.12386,0.32795
3377.19514,0.32778
3375.26641,0.32762
3373.33769,0.32744
3371.40897,0.32714
3369.48024,0.32677
3367.55152,0.32652
3365.62280,0.32640
3363.69407,0.32625
3361.76535,0.32601
3359.83662,0.32569
3357.90790,0.32534
3355.97918,0.32501
3354.05045,0.32471
3352.12173,0.32447
3350.19301,0.32421
3348.26428,0.32385
3346.33556,0.32344
3344.40684,0.32301
3342.47811,0.32256
3340.54939,0.32215
3338.62066,0.32176
3336.69194,0.32127
3334.76322,0.32069
3332.83449,0.32018
3330.90577,0.31988
3328.97705,0.31964
3327.04832,0.31924
3325.11960,0.31894
3323.19088,0.31885
3321.26215,0.31865
3319.33343,0.31822
3317.40470,0.31771
3315.47598,0.31717
3313.54726,0.31664
3311.61853,0.31620
3309.68981,0.31592
3307.76109,0.31579
3305.83236,0.31569
3303.90364,0.31535
3301.97491,0.31460
3300.04619,0.31382
3298.11747,0.31335
3296.18874,0.31305
3294.26002,0.31273
3292.33130,0.31236
3290.40257,0.31199
3288.47385,0.31174
3286.54513,0.31155
3284.61640,0.31125
3282.68768,0.31081
3280.75895,0.31030
3278.83023,0.30975
3276.90151,0.30926
3274.97278,0.30894
3273.04406,0.30864
3271.11534,0.30824
3269.18661,0.30774
3267.25789,0.30713
3265.32917,0.30653
3263.40044,0.30603
3261.47172,0.30552
3259.54299,0.30495
3257.61427,0.30432
3255.68555,0.30374
3253.75682,0.30320
3251.82810,0.30260
3249.89938,0.30192
3247.97065,0.30124
3246.04193,0.30057
3244.11320,0.29989
3242.18448,0.29922
3240.25576,0.29849
3238.32703,0.29780
3236.39831,0.29733
3234.46959,0.29690
3232.54086,0.29620
3230.61214,0.29537
3228.68342,0.29472
3226.75469,0.29411
3224.82597,0.29326
3222.89724,0.29220
3220.96852,0.29132
3219.03980,0.29083
3217.11107,0.29052
3215.18235,0.29006
3213.25363,0.28925
3211.32490,0.28819
3209.39618,0.28712
3207.46746,0.28624
3205.53873,0.28558
3203.61001,0.28501
3201.68128,0.28441
3199.75256,0.28364
3197.82384,0.28264
3195.89511,0.28150
3193.96639,0.28043
3192.03767,0.27956
3190.10894,0.27882
3188.18022,0.27797
3186.25149,0.27696
3184.32277,0.27596
3182.39405,0.27493
3180.46532,0.27381
3178.53660,0.27280
3176.60788,0.27189
3174.67915,0.27084
3172.75043,0.26974
3170.82171,0.26883
3168.89298,0.26807
3166.96426,0.26725
3165.03553,0.26622
3163.10681,0.26506
3161.17809,0.26389
3159.24936,0.26279
3157.32064,0.26186
3155.39192,0.26102
3153.46319,0.25998
3151.53447,0.25874
3149.60575,0.25756
3147.67702,0.25660
3145.74830,0.25576
3143.81957,0.25486
3141.89085,0.25381
3139.96213,0.25275
3138.03340,0.25184
3136.10468,0.25099
3134.17596,0.24993
3132.24723,0.24873
3130.31851,0.24769
3128.38978,0.24677
3126.46106,0.24582
3124.53234,0.24488
3122.60361,0.24398
3120.67489,0.24306
3118.74617,0.24214
3116.81744,0.24124
3114.88872,0.24019
3112.96000,0.23904
3111.03127,0.23804
3109.10255,0.23721
3107.17382,0.23630
3105.24510,0.23517
3103.31638,0.23396
3101.38765,0.23286
3099.45893,0.23181
3097.53021,0.23068
3095.60148,0.22952
3093.67276,0.22843
3091.74404,0.22745
3089.81531,0.22648
3087.88659,0.22535
3085.95786,0.22414
3084.02914,0.22303
3082.10042,0.22204
3080.17169,0.22105
3078.24297,0.21996
3076.31425,0.21873
3074.38552,0.21751
3072.45680,0.21646
3070.52807,0.21551
3068.59935,0.21449
3066.67063,0.21337
3064.74190,0.21219
3062.81318,0.21099
3060.88446,0.20972
3058.95573,0.20848
3057.02701,0.20733
3055.09829,0.20620
3053.16956,0.20508
3051.24084,0.20407
3049.31211,0.20309
3047.38339,0.20198
3045.45467,0.20081
3043.52594,0.19970
3041.59722,0.19856
3039.66850,0.19733
3037.73977,0.19618
3035.81105,0.19517
3033.88233,0.19420
3031.95360,0.19325
3030.02488,0.19221
3028.09615,0.19104
3026.16743,0.18986
3024.23871,0.18880
3022.30998,0.18784
3020.38126,0.18693
3018.45254,0.18603
3016.52381,0.18509
3014.59509,0.18421
3012.66636,0.18337
3010.73764,0.18246
3008.80892,0.18153
3006.88019,0.18070
3004.95147,0.17991
3003.02275,0.17908
3001.09402,0.17826
2999.16530,0.17755
2997.23658,0.17698
2995.30785,0.17643
2993.37913,0.17581
2991.45040,0.17521
2989.52168,0.17476
2987.59296,0.17438
2985.66423,0.17398
2983.73551,0.17360
2981.80679,0.17328
2979.87806,0.17304
2977.94934,0.17287
2976.02062,0.17273
2974.09189,0.17263
2972.16317,0.17260
2970.23444,0.17263
2968.30572,0.17261
2966.37700,0.17258
2964.44827,0.17260
2962.51955,0.17251
2960.59083,0.17229
2958.66210,0.17212
2956.73338,0.17206
2954.80466,0.17194
2952.87593,0.17160
2950.94721,0.17118
2949.01848,0.17096
2947.08976,0.17102
2945.16104,0.17119
2943.23231,0.17147
2941.30359,0.17195
2939.37487,0.17260
2937.44614,0.17330
2935.51742,0.17404
2933.58869,0.17481
2931.65997,0.17549
2929.73125,0.17584
2927.80252,0.17579
2925.87380,0.17537
2923.94508,0.17447
2922.01635,0.17287
2920.08763,0.17074
2918.15891,0.16837
2916.23018,0.16574
2914.30146,0.16291
2912.37273,0.16017
2910.44401,0.15767
2908.51529,0.15553
2906.58656,0.15386
2904.65784,0.15238
2902.72912,0.15079
2900.80039,0.14913
2898.87167,0.14755
2896.94295,0.14603
2895.01422,0.14447
2893.08550,0.14293
2891.15677,0.14154
2889.22805,0.14029
2887.29933,0.13906
2885.37060,0.13781
2883.44188,0.13665
2881.51316,0.13562
2879.58443,0.13472
2877.65571,0.13392
2875.72698,0.13317
2873.79826,0.13245
2871.86954,0.13164
2869.94081,0.13074
2868.01209,0.12993
2866.08337,0.12930
2864.15464,0.12890
2862.22592,0.12882
2860.29720,0.12905
2858.36847,0.12949
2856.43975,0.12999
2854.51102,0.13019
2852.58230,0.12954
2850.65358,0.12774
2848.72485,0.12497
2846.79613,0.12168
2844.86741,0.11835
2842.93868,0.11537
2841.00996,0.11282
2839.08124,0.11061
2837.15251,0.10860
2835.22379,0.10670
2833.29506,0.10500
2831.36634,0.10364
2829.43762,0.10246
2827.50889,0.10130
2825.58017,0.10009
2823.65145,0.09882
2821.72272,0.09765
2819.79400,0.09672
2817.86527,0.09592
2815.93655,0.09502
2814.00783,0.09394
2812.07910,0.09286
2810.15038,0.09191
2808.22166,0.09100
2806.29293,0.09011
2804.36421,0.08931
2802.43549,0.08853
2800.50676,0.08775
2798.57804,0.08696
2796.64931,0.08611
2794.72059,0.08521
2792.79187,0.08443
2790.86314,0.08377
2788.93442,0.08303
2787.00570,0.08211
2785.07697,0.08119
2783.14825,0.08041
2781.21953,0.07970
2779.29080,0.07897
2777.36208,0.07823
2775.43335,0.07748
2773.50463,0.07675
2771.57591,0.07605
2769.64718,0.07534
2767.71846,0.07465
2765.78974,0.07402
2763.86101,0.07343
2761.93229,0.07279
2760.00356,0.07202
2758.07484,0.07120
2756.14612,0.07050
2754.21739,0.06990
2752.28867,0.06927
2750.35995,0.06860
2748.43122,0.06793
2746.50250,0.06729
2744.57378,0.06671
2742.64505,0.06615
2740.71633,0.06552
2738.78760,0.06481
2736.85888,0.06410
2734.93016,0.06342
2733.00143,0.06278
2731.07271,0.06221
2729.14399,0.06171
2727.21526,0.06120
2725.28654,0.06062
2723.35782,0.05998
2721.42909,0.05933
2719.50037,0.05868
2717.57164,0.05801
2715.64292,0.05738
2713.71420,0.05686
2711.78547,0.05632
2709.85675,0.05573
2707.92803,0.05510
2705.99930,0.05441
2704.07058,0.05371
2702.14185,0.05306
2700.21313,0.05248
2698.28441,0.05194
2696.35568,0.05141
2694.42696,0.05092
2692.49824,0.05043
2690.56951,0.04986
2688.64079,0.04920
2686.71207,0.04861
2684.78334,0.04814
2682.85462,0.04767
2680.92589,0.04710
2678.99717,0.04652
2677.06845,0.04601
2675.13972,0.04558
2673.21100,0.04515
2671.28228,0.04464
2669.35355,0.04409
2667.42483,0.04355
2665.49611,0.04295
2663.56738,0.04238
2661.63866,0.04191
2659.70993,0.04150
2657.78121,0.04115
2655.85249,0.04079
2653.92376,0.04034
2651.99504,0.03989
2650.06632,0.03947
2648.13759,0.03896
2646.20887,0.03836
2644.28014,0.03778
2642.35142,0.03736
2640.42270,0.03703
2638.49397,0.03661
2636.56525,0.03612
2634.63653,0.03567
2632.70780,0.03523
2630.77908,0.03475
2628.85036,0.03430
2626.92163,0.03390
2624.99291,0.03346
2623.06418,0.03297
2621.13546,0.03247
2619.20674,0.03205
2617.27801,0.03173
2615.34929,0.03141
2613.42057,0.03099
2611.49184,0.03056
2609.56312,0.03017
2607.63440,0.02980
2605.70567,0.02946
2603.77695,0.02910
2601.84822,0.02866
2599.91950,0.02826
2597.99078,0.02797
2596.06205,0.02768
2594.13333,0.02728
2592.20461,0.02686
2590.27588,0.02652
2588.34716,0.02625
2586.41843,0.02593
2584.48971,0.02555
2582.56099,0.02514
2580.63226,0.02479
2578.70354,0.02453
2576.77482,0.02428
2574.84609,0.02399
2572.91737,0.02371
2570.98865,0.02347
2569.05992,0.02323
2567.13120,0.02298
2565.20247,0.02274
2563.27375,0.02245
2561.34503,0.02213
2559.41630,0.02178
2557.48758,0.02144
2555.55886,0.02115
2553.63013,0.02090
2551.70141,0.02061
2549.77269,0.02032
2547.84396,0.02014
2545.91524,0.02003
2543.98651,0.01985
2542.05779,0.01967
2540.12907,0.01953
2538.20034,0.01933
2536.27162,0.01905
2534.34290,0.01877
2532.41417,0.01850
2530.48545,0.01820
2528.55673,0.01794
2526.62800,0.01781
2524.69928,0.01768
2522.77055,0.01743
2520.84183,0.01713
2518.91311,0.01689
2516.98438,0.01670
2515.05566,0.01652
2513.12694,0.01630
2511.19821,0.01607
2509.26949,0.01588
2507.34076,0.01572
2505.41204,0.01555
2503.48332,0.01531
2501.55459,0.01503
2499.62587,0.01476
2497.69715,0.01456
2495.76842,0.01437
2493.83970,0.01417
2491.91098,0.01395
2489.98225,0.01373
2488.05353,0.01351
2486.12480,0.01326
2484.19608,0.01300
2482.26736,0.01276
2480.33863,0.01261
2478.40991,0.01254
2476.48119,0.01241
2474.55246,0.01215
2472.62374,0.01183
2470.69502,0.01157
2468.76629,0.01138
2466.83757,0.01125
2464.90884,0.01115
2462.98012,0.01099
2461.05140,0.01071
2459.12267,0.01045
2457.19395,0.01025
2455.26523,0.01006
2453.33650,0.00989
2451.40778,0.00977
2449.47905,0.00965
2447.55033,0.00950
2445.62161,0.00930
2443.69288,0.00911
2441.76416,0.00892
2439.83544,0.00871
2437.90671,0.00850
2435.97799,0.00835
2434.04927,0.00824
2432.12054,0.00811
2430.19182,0.00797
2428.26309,0.00783
2426.33437,0.00767
2424.40565,0.00743
2422.47692,0.00713
2420.54820,0.00688
2418.61948,0.00673
2416.69075,0.00660
2414.76203,0.00644
2412.83331,0.00631
2410.90458,0.00620
2408.97586,0.00606
2407.04713,0.00583
2405.11841,0.00557
2403.18969,0.00538
2401.26096,0.00533
2399.33224,0.00531
2397.40352,0.00522
2395.47479,0.00506
2393.54607,0.00489
2391.61734,0.00473
2389.68862,0.00461
2387.75990,0.00454
2385.83117,0.00452
2383.90245,0.00450
2381.97373,0.00442
2380.04500,0.00432
2378.11628,0.00428
2376.18756,0.00431
2374.25883,0.00435
2372.33011,0.00437
2370.40138,0.00437
2368.47266,0.00436
2366.54394,0.00439
2364.61521,0.00443
2362.68649,0.00441
2360.75777,0.00434
2358.82904,0.00428
2356.90032,0.00423
2354.97160,0.00419
2353.04287,0.00431
2351.11415,0.00462
2349.18542,0.00460
2347.25670,0.00400
2345.32798,0.00345
2343.39925,0.00337
2341.47053,0.00344
2339.54181,0.00340
2337.61308,0.00330
2335.68436,0.00315
2333.75563,0.00295
2331.82691,0.00280
2329.89819,0.00280
2327.96946,0.00293
2326.04074,0.00307
2324.11202,0.00309
2322.18329,0.00295
2320.25457,0.00273
2318.32585,0.00261
2316.39712,0.00255
2314.46840,0.00246
2312.53967,0.00233
2310.61095,0.00223
2308.68223,0.00217
2306.75350,0.00210
2304.82478,0.00197
2302.89606,0.00183
2300.96733,0.00174
2299.03861,0.00171
2297.10989,0.00169
2295.18116,0.00168
2293.25244,0.00162
2291.32371,0.00149
2289.39499,0.00135
2287.46627,0.00127
2285.53754,0.00125
2283.60882,0.00127
2281.68010,0.00130
2279.75137,0.00129
2277.82265,0.00124
2275.89392,0.00117
2273.96520,0.00113
2272.03648,0.00111
2270.10775,0.00111
2268.17903,0.00110
2266.25031,0.00111
2264.32158,0.00112
2262.39286,0.00112
2260.46414,0.00107
2258.53541,0.00105
2256.60669,0.00104
2254.67796,0.00098
2252.74924,0.00092
2250.82052,0.00094
2248.89179,0.00094
2246.96307,0.00085
2245.03435,0.00078
2243.10562,0.00079
2241.17690,0.00078
2239.24818,0.00073
2237.31945,0.00070
2235.39073,0.00067
2233.46200,0.00061
2231.53328,0.00052
2229.60456,0.00049
2227.67583,0.00054
2225.74711,0.00057
2223.81839,0.00055
2221.88966,0.00055
2219.96094,0.00056
2218.03221,0.00054
2216.10349,0.00048
2214.17477,0.00045
2212.24604,0.00043
2210.31732,0.00037
2208.38860,0.00027
2206.45987,0.00028
2204.53115,0.00039
2202.60243,0.00041
2200.67370,0.00029
2198.74498,0.00019
2196.81625,0.00020
2194.88753,0.00025
2192.95881,0.00025
2191.03008,0.00021
2189.10136,0.00017
2187.17264,0.00022
2185.24391,0.00034
2183.31519,0.00041
2181.38647,0.00040
2179.45774,0.00038
2177.52902,0.00039
2175.60029,0.00044
2173.67157,0.00047
2171.74285,0.00050
2169.81412,0.00052
2167.88540,0.00050
2165.95668,0.00050
2164.02795,0.00051
2162.09923,0.00055
2160.17050,0.00059
2158.24178,0.00057
2156.31306,0.00053
2154.38433,0.00055
2152.45561,0.00062
2150.52689,0.00064
2148.59816,0.00060
2146.66944,0.00057
2144.74072,0.00057
2142.81199,0.00055
2140.88327,0.00052
2138.95454,0.00052
2137.02582,0.00053
2135.09710,0.00051
2133.16837,0.00047
2131.23965,0.00043
2129.31093,0.00046
2127.38220,0.00052
2125.45348,0.00053
2123.52476,0.00051
2121.59603,0.00050
2119.66731,0.00041
2117.73858,0.00027
2115.80986,0.00016
2113.88114,0.00016
2111.95241,0.00023
2110.02369,0.00022
2108.09497,0.00016
2106.16624,0.00013
2104.23752,0.00012
2102.30880,0.00012
2100.38007,0.00013
2098.45135,0.00016
2096.52262,0.00015
2094.59390,0.00008
2092.66518,0.00000
2090.73645,-0.00003
2088.80773,-0.00003
2086.87901,-0.00005
2084.95028,-0.00008
2083.02156,-0.00011
2081.09283,-0.00013
2079.16411,-0.00014
2077.23539,-0.00012
2075.30666,-0.00008
2073.37794,-0.00003
2071.44922,-0.00003
2069.52049,-0.00007
2067.59177,-0.00010
2065.66305,-0.00005
2063.73432,0.00002
2061.80560,0.00006
2059.87687,0.00013
2057.94815,0.00020
2056.01943,0.00028
2054.09070,0.00040
2052.16198,0.00050
2050.23326,0.00059
2048.30453,0.00070
2046.37581,0.00083
2044.44709,0.00098
2042.51836,0.00116
2040.58964,0.00136
2038.66091,0.00160
2036.73219,0.00186
2034.80347,0.00211
2032.87474,0.00229
2030.94602,0.00240
2029.01730,0.00250
2027.08857,0.00264
2025.15985,0.00284
2023.23112,0.00306
2021.30240,0.00327
2019.37368,0.00344
2017.44495,0.00359
2015.51623,0.00373
2013.58751,0.00384
2011.65878,0.00392
2009.73006,0.00397
2007.80134,0.00399
2005.87261,0.00402
2003.94389,0.00408
2002.01516,0.00416
2000.08644,0.00425
1998.15772,0.00429
1996.22899,0.00423
1994.30027,0.00415
1992.37155,0.00413
1990.44282,0.00416
1988.51410,0.00415
1986.58538,0.00407
1984.65665,0.00395
1982.72793,0.00384
1980.79920,0.00376
1978.87048,0.00361
1976.94176,0.00343
1975.01303,0.00330
1973.08431,0.00320
1971.15559,0.00305
1969.22686,0.00282
1967.29814,0.00261
1965.36941,0.00247
1963.44069,0.00233
1961.51197,0.00214
1959.58324,0.00193
1957.65452,0.00170
1955.72580,0.00150
1953.79707,0.00135
1951.86835,0.00119
1949.93963,0.00099
1948.01090,0.00084
1946.08218,0.00079
1944.15345,0.00074
1942.22473,0.00062
1940.29601,0.00040
1938.36728,0.00020
1936.43856,0.00010
1934.50984,0.00005
1932.58111,0.00000
1930.65239,-0.00004
1928.72367,-0.00004
1926.79494,0.00000
1924.86622,0.00008
1922.93749,0.00021
1921.00877,0.00032
1919.08005,0.00048
1917.15132,0.00080
1915.22260,0.00111
1913.29388,0.00131
1911.36515,0.00155
1909.43643,0.00193
1907.50770,0.00237
1905.57898,0.00281
1903.65026,0.00328
1901.72153,0.00378
1899.79281,0.00429
1897.86409,0.00483
1895.93536,0.00544
1894.00664,0.00600
1892.07792,0.00645
1890.14919,0.00693
1888.22047,0.00745
1886.29174,0.00783
1884.36302,0.00807
1882.43430,0.00828
1880.50557,0.00848
1878.57685,0.00863
1876.64813,0.00869
1874.71940,0.00869
1872.79068,0.00867
1870.86196,0.00869
1868.93323,0.00871
1867.00451,0.00855
1865.07578,0.00815
1863.14706,0.00767
1861.21834,0.00723
1859.28961,0.00678
1857.36089,0.00624
1855.43217,0.00565
1853.50344,0.00509
1851.57472,0.00460
1849.64599,0.00416
1847.71727,0.00370
1845.78855,0.00322
1843.85982,0.00282
1841.93110,0.00244
1840.00238,0.00199
1838.07365,0.00157
1836.14493,0.00120
1834.21621,0.00086
1832.28748,0.00059
1830.35876,0.00049
1828.43003,0.00044
1826.50131,0.00029
1824.57259,0.00012
1822.64386,0.00003
1820.71514,-0.00004
1818.78642,-0.00009
1816.85769,-0.00009
1814.92897,0.00000
1813.00025,-0.00001
1811.07152,0.00007
1809.14280,0.00016
1807.21407,0.00019
1805.28535,0.00022
1803.35663,0.00032
1801.42790,0.00059
1799.49918,0.00098
1797.57046,0.00131
1795.64173,0.00160
1793.71301,0.00213
1791.78428,0.00303
1789.85556,0.00383
1787.92684,0.00432
1785.99811,0.00485
1784.06939,0.00558
1782.14067,0.00639
1780.21194,0.00723
1778.28322,0.00806
1776.35450,0.00883
1774.42577,0.00972
1772.49705,0.01095
1770.56832,0.01221
1768.63960,0.01316
1766.71088,0.01390
1764.78215,0.01457
1762.85343,0.01539
1760.92471,0.01644
1758.99598,0.01753
1757.06726,0.01867
1755.13854,0.01975
1753.20981,0.02073
1751.28109,0.02199
1749.35236,0.02365
1747.42364,0.02531
1745.49492,0.02684
1743.56619,0.02843
1741.63747,0.03025
1739.70875,0.03220
1737.78002,0.03392
1735.85130,0.03573
1733.92257,0.03843
1731.99385,0.04133
1730.06513,0.04344
1728.13640,0.04515
1726.20768,0.04690
1724.27896,0.04882
1722.35023,0.05068
1720.42151,0.05240
1718.49279,0.05470
1716.56406,0.05784
1714.63534,0.06065
1712.70661,0.06258
1710.77789,0.06429
1708.84917,0.06636
1706.92044,0.06908
1704.99172,0.07210
1703.06300,0.07477
1701.13427,0.07792
1699.20555,0.08233
1697.27683,0.08704
1695.34810,0.09142
1693.41938,0.09494
1691.49065,0.09781
1689.56193,0.10083
1687.63321,0.10400
1685.70448,0.10800
1683.77576,0.11361
1681.84704,0.11869
1679.91831,0.12194
1677.98959,0.12461
1676.06087,0.12789
1674.13214,0.13164
1672.20342,0.13521
1670.27469,0.13905
1668.34597,0.14296
1666.41725,0.14568
1664.48852,0.14782
1662.55980,0.15060
1660.63108,0.15351
1658.70235,0.15546
1656.77363,0.15661
1654.84490,0.15838
1652.91618,0.16145
1650.98746,0.16357
1649.05873,0.16419
1647.13001,0.16515
1645.20129,0.16651
1643.27256,0.16714
1641.34384,0.16720
1639.41512,0.16722
1637.48639,0.16750
1635.55767,0.16805
1633.62894,0.16815
1631.70022,0.16745
1629.77150,0.16635
1627.84277,0.16515
1625.91405,0.16372
1623.98533,0.16188
1622.05660,0.15966
1620.12788,0.15733
1618.19916,0.15485
1616.27043,0.15199
1614.34171,0.14891
1612.41298,0.14592
1610.48426,0.14305
1608.55554,0.14023
1606.62681,0.13732
1604.69809,0.13431
1602.76937,0.13130
1600.84064,0.12844
1598.91192,0.12581
1596.98319,0.12336
1595.05447,0.12101
1593.12575,0.11873
1591.19702,0.11647
1589.26830,0.11421
1587.33958,0.11197
1585.41085,0.10976
1583.48213,0.10761
1581.55341,0.10561
1579.62468,0.10384
1577.69596,0.10226
1575.76723,0.10076
1573.83851,0.09928
1571.90979,0.09792
1569.98106,0.09680
1568.05234,0.09579
1566.12362,0.09461
1564.19489,0.09327
1562.26617,0.09195
1560.33745,0.09097
1558.40872,0.09042
1556.48000,0.08967
1554.55127,0.08854
1552.62255,0.08738
1550.69383,0.08629
1548.76510,0.08507
1546.83638,0.08362
1544.90766,0.08199
1542.97893,0.08034
1541.05021,0.07883
1539.12148,0.07729
1537.19276,0.07555
1535.26404,0.07370
1533.33531,0.07178
1531.40659,0.06984
1529.47787,0.06783
1527.54914,0.06560
1525.62042,0.06322
1523.69170,0.06098
1521.76297,0.05896
1519.83425,0.05709
1517.90552,0.05512
1515.97680,0.05273
1514.04808,0.05009
1512.11935,0.04756
1510.19063,0.04522
1508.26191,0.04274
1506.33318,0.03978
1504.40446,0.03677
1502.47574,0.03410
1500.54701,0.03172
1498.61829,0.02951
1496.68956,0.02746
1494.76084,0.02570
1492.83212,0.02429
1490.90339,0.02321
1488.97467,0.02246
1487.04595,0.02199
1485.11722,0.02170
1483.18850,0.02173
1481.25977,0.02221
1479.33105,0.02299
1477.40233,0.02404
1475.47360,0.02586
1473.54488,0.02892
1471.61616,0.03251
1469.68743,0.03507
1467.75871,0.03666
1465.82999,0.03818
1463.90126,0.03960
1461.97254,0.04041
1460.04381,0.04093
1458.11509,0.04205
1456.18637,0.04354
1454.25764,0.04424
1452.32892,0.04424
1450.40020,0.04426
1448.47147,0.04458
1446.54275,0.04502
1444.61403,0.04536
1442.68530,0.04561
1440.75658,0.04584
1438.82785,0.04618
1436.89913,0.04684
1434.97041,0.04754
1433.04168,0.04797
1431.11296,0.04849
1429.18424,0.04926
1427.25551,0.05003
1425.32679,0.05069
1423.39806,0.05126
1421.46934,0.05173
1419.54062,0.05243
1417.61189,0.05344
1415.68317,0.05423
1413.75445,0.05472
1411.82572,0.05524
1409.89700,0.05587
1407.96828,0.05649
1406.03955,0.05703
1404.11083,0.05740
1402.18210,0.05737
1400.25338,0.05679
1398.32466,0.05564
1396.39593,0.05407
1394.46721,0.05223
1392.53849,0.05033
1390.60976,0.04857
1388.68104,0.04691
1386.75232,0.04530
1384.82359,0.04385
1382.89487,0.04279
1380.96614,0.04208
1379.03742,0.04142
1377.10870,0.04056
1375.17997,0.03949
1373.25125,0.03827
1371.32253,0.03694
1369.39380,0.03555
1367.46508,0.03420
1365.53635,0.03298
1363.60763,0.03186
1361.67891,0.03080
1359.75018,0.02977
1357.82146,0.02873
1355.89274,0.02777
1353.96401,0.02705
1352.03529,0.02650
1350.10657,0.02597
1348.17784,0.02544
1346.24912,0.02494
1344.32039,0.02440
1342.39167,0.02382
1340.46295,0.02336
1338.53422,0.02309
1336.60550,0.02290
1334.67678,0.02266
1332.74805,0.02237
1330.81933,0.02212
1328.89061,0.02200
1326.96188,0.02202
1325.03316,0.02209
1323.10443,0.02213
1321.17571,0.02218
1319.24699,0.02236
1317.31826,0.02262
1315.38954,0.02281
1313.46082,0.02298
1311.53209,0.02324
1309.60337,0.02360
1307.67464,0.02405
1305.74592,0.02462
1303.81720,0.02534
1301.88847,0.02614
1299.95975,0.02699
1298.03103,0.02799
1296.10230,0.02927
1294.17358,0.03079
1292.24486,0.03247
1290.31613,0.03429
1288.38741,0.03631
1286.45868,0.03864
1284.52996,0.04131
1282.60124,0.04428
1280.67251,0.04747
1278.74379,0.05083
1276.81507,0.05446
1274.88634,0.05852
1272.95762,0.06311
1271.02890,0.06830
1269.10017,0.07413
1267.17145,0.08057
1265.24272,0.08766
1263.31400,0.09560
1261.38528,0.10459
1259.45655,0.11459
1257.52783,0.12539
1255.59911,0.13694
1253.67038,0.14907
1251.74166,0.16129
1249.81294,0.17324
1247.88421,0.18479
1245.95549,0.19584
1244.02676,0.20620
1242.09804,0.21551
1240.16932,0.22368
1238.24059,0.23103
1236.31187,0.23784
1234.38315,0.24416
1232.45442,0.24994
1230.52570,0.25494
1228.59697,0.25925
1226.66825,0.26335
1224.73953,0.26731
1222.81080,0.27092
1220.88208,0.27429
1218.95336,0.27742
1217.02463,0.28031
1215.09591,0.28304
1213.16719,0.28557
1211.23846,0.28819
1209.30974,0.29109
1207.38101,0.29399
1205.45229,0.29653
1203.52357,0.29864
1201.59484,0.30032
1199.66612,0.30189
1197.73740,0.30385
1195.80867,0.30618
1193.87995,0.30846
1191.95123,0.31065
1190.02250,0.31291
1188.09378,0.31498
1186.16505,0.31683
1184.23633,0.31888
1182.30761,0.32125
1180.37888,0.32369
1178.45016,0.32588
1176.52144,0.32779
1174.59271,0.32979
1172.66399,0.33210
1170.73526,0.33457
1168.80654,0.33718
1166.87782,0.33989
1164.94909,0.34209
1163.02037,0.34356
1161.09165,0.34520
1159.16292,0.34728
1157.23420,0.34933
1155.30548,0.35110
1153.37675,0.35275
1151.44803,0.35460
1149.51930,0.35679
1147.59058,0.35902
1145.66186,0.36100
1143.73313,0.36304
1141.80441,0.36547
1139.87569,0.36793
1137.94696,0.37028
1136.01824,0.37277
1134.08952,0.37539
1132.16079,0.37822
1130.23207,0.38153
1128.30334,0.38521
1126.37462,0.38901
1124.44590,0.39288
1122.51717,0.39694
1120.58845,0.40134
1118.65973,0.40627
1116.73100,0.41196
1114.80228,0.41827
1112.87355,0.42468
1110.94483,0.43116
1109.01611,0.43829
1107.08738,0.44592
1105.15866,0.45275
1103.22994,0.45828
1101.30121,0.46316
1099.37249,0.46780
1097.44377,0.47174
1095.51504,0.47414
1093.58632,0.47489
1091.65759,0.47461
1089.72887,0.47386
1087.80015,0.47290
1085.87142,0.47174
1083.94270,0.47041
1082.01398,0.46869
1080.08525,0.46604
1078.15653,0.46257
1076.22781,0.45892
1074.29908,0.45514
1072.37036,0.45168
1070.44163,0.44869
1068.51291,0.44490
1066.58419,0.43966
1064.65546,0.43388
1062.72674,0.42835
1060.79802,0.42287
1058.86929,0.41720
1056.94057,0.41119
1055.01184,0.40450
1053.08312,0.39721
1051.15440,0.38997
1049.22567,0.38298
1047.29695,0.37566
1045.36823,0.36795
1043.43950,0.36031
1041.51078,0.35261
1039.58206,0.34464
1037.65333,0.33679
1035.72461,0.32919
1033.79588,0.32125
1031.86716,0.31278
1029.93844,0.30461
1028.00971,0.29716
1026.08099,0.29001
1024.15227,0.28291
1022.22354,0.27600
1020.29482,0.26944
1018.36610,0.26359
1016.43737,0.25849
1014.50865,0.25350
1012.57992,0.24809
1010.65120,0.24259
1008.72248,0.23767
1006.79375,0.23343
1004.86503,0.22940
1002.93631,0.22523
1001.00758,0.22082
999.07886,0.21642
997.15013,0.21249
995.22141,0.20906
993.29269,0.20574
991.36396,0.20252
989.43524,0.19949
987.50652,0.19670
985.57779,0.19421
983.64907,0.19194
981.72035,0.18996
979.79162,0.18835
977.86290,0.18702
975.93417,0.18578
974.00545,0.18461
972.07673,0.18389
970.14800,0.18370
968.21928,0.18353
966.29056,0.18307
964.36183,0.18260
962.43311,0.18245
960.50439,0.18233
958.57566,0.18172
956.64694,0.18079
954.71821,0.17993
952.78949,0.17886
950.86077,0.17740
948.93204,0.17594
947.00332,0.17459
945.07460,0.17278
943.14587,0.17031
941.21715,0.16787
939.28842,0.16587
937.35970,0.16372
935.43098,0.16097
933.50225,0.15796
931.57353,0.15494
929.64481,0.15167
927.71608,0.14809
925.78736,0.14440
923.85864,0.14071
921.92991,0.13702
920.00119,0.13328
918.07246,0.12924
916.14374,0.12501
914.21502,0.12099
912.28629,0.11727
910.35757,0.11346
908.42885,0.10935
906.50012,0.10514
904.57140,0.10115
902.64268,0.09747
900.71395,0.09387
898.78523,0.09014
896.85650,0.08635
894.92778,0.08261
892.99906,0.07900
891.07033,0.07555
889.14161,0.07240
887.21289,0.06950
885.28416,0.06643
883.35544,0.06323
881.42671,0.06040
879.49799,0.05799
877.56927,0.05549
875.64054,0.05271
873.71182,0.05003
871.78310,0.04777
869.85437,0.04596
867.92565,0.04442
865.99693,0.04298
864.06820,0.04158
862.13948,0.04012
860.21075,0.03864
858.28203,0.03730
856.35331,0.03605
854.42458,0.03485
852.49586,0.03407
850.56714,0.03399
848.63841,0.03435
846.70969,0.03495
844.78097,0.03592
842.85224,0.03750
840.92352,0.03977
838.99479,0.04248
837.06607,0.04548
835.13735,0.04883
833.20862,0.05229
831.27990,0.05548
829.35118,0.05882
827.42245,0.06278
825.49373,0.06664
823.56501,0.06985
821.63628,0.07320
819.70756,0.07718
817.77883,0.08093
815.85011,0.08410
813.92139,0.08704
811.99266,0.08952
810.06394,0.09181
808.13522,0.09431
806.20649,0.09667
804.27777,0.09868
802.34904,0.10019
800.42032,0.10121
798.49160,0.10209
796.56287,0.10261
794.63415,0.10214
792.70543,0.10052
790.77670,0.09827
788.84798,0.09602
786.91926,0.09383
784.99053,0.09125
783.06181,0.08804
781.13308,0.08454
779.20436,0.08065
777.27564,0.07604
775.34691,0.07137
773.41819,0.06756
771.48947,0.06466
769.56074,0.06225
767.63202,0.05991
765.70330,0.05772
763.77457,0.05625
761.84585,0.05555
759.91712,0.05501
757.98840,0.05451
756.05968,0.05410
754.13095,0.05358
752.20223,0.05318
750.27351,0.05322
748.34478,0.05334
746.41606,0.05310
744.48733,0.05291
742.55861,0.05299
740.62989,0.05301
738.70116,0.05298
736.77244,0.05310
734.84372,0.05303
732.91499,0.05280
730.98627,0.05308
729.05755,0.05376
727.12882,0.05425
725.20010,0.05459
723.27137,0.05473
721.34265,0.05465
719.41393,0.05488
717.48520,0.05574
715.55648,0.05670
713.62776,0.05733
711.69903,0.05783
709.77031,0.05856
707.84159,0.05955
705.91286,0.06071
703.98414,0.06204
702.05541,0.06357
700.12669,0.06514
698.19797,0.06632
696.26924,0.06689
694.34052,0.06714
692.41180,0.06741
690.48307,0.06765
688.55435,0.06793
686.62562,0.06843
684.69690,0.06911
682.76818,0.06974
680.83945,0.07013
678.91073,0.07014
676.98201,0.06999
675.05328,0.07011
673.12456,0.07032
671.19584,0.06960
669.26711,0.06818
667.33839,0.06862
665.40966,0.07081
663.48094,0.07231
661.55222,0.07313
659.62349,0.07386
657.69477,0.07439
655.76605,0.07514
653.83732,0.07627
651.90860,0.07719
649.97988,0.07771
648.05115,0.07851
646.12243,0.07997
644.19370,0.08164
642.26498,0.08319
640.33626,0.08479
638.40753,0.08649
636.47881,0.08810
634.55009,0.08956
632.62136,0.09083
630.69264,0.09159
628.76391,0.09182
626.83519,0.09193
624.90647,0.09242
622.97774,0.09357
621.04902,0.09495
619.12030,0.09632
617.19157,0.09794
615.26285,0.09940
613.33413,0.10057
611.40540,0.10200
609.47668,0.10352
607.54795,0.10478
605.61923,0.10608
603.69051,0.10751
601.76178,0.10915
599.83306,0.11105
597.90434,0.11266
595.97561,0.11341
594.04689,0.11401
592.11817,0.11538
590.18944,0.11714
588.26072,0.11869
586.33199,0.11996
584.40327,0.12107
582.47455,0.12223
580.54582,0.12350
578.61710,0.12464
576.68838,0.12582
574.75965,0.12688
572.83093,0.12714
570.90220,0.12703
568.97348,0.12697
567.04476,0.12649
565.11603,0.12630
563.18731,0.12731
561.25859,0.12828
559.32986,0.12747
557.40114,0.12591
555.47242,0.12603
553.54369,0.12782
551.61497,0.12976
549.68624,0.13095
547.75752,0.13136
545.82880,0.13145
543.90007,0.13144
541.97135,0.13139
540.04263,0.13111
538.11390,0.13027
536.18518,0.12952
534.25646,0.12985
532.32773,0.13070
530.39901,0.13064
528.47028,0.12965
526.54156,0.12866
524.61284,0.12804
522.68411,0.12760
520.75539,0.12732
518.82667,0.12797
516.89794,0.13042
514.96922,0.13359
513.04049,0.13584
511.11177,0.13788
509.18305,0.14093
507.25432,0.14477
505.32560,0.14932
503.39688,0.15523
501.46815,0.16260
499.53943,0.17097
497.61071,0.17939
495.68198,0.18591
493.75326,0.19047
491.82453,0.19556
489.89581,0.20185
487.96709,0.20921
486.03836,0.21922
484.10964,0.23091
482.18092,0.23993
480.25219,0.24553
478.32347,0.25094
476.39475,0.25726
474.46602,0.26241
472.53730,0.26501
470.60857,0.26720
468.67985,0.27114
466.75113,0.27500
464.82240,0.27553
462.89368,0.27231
460.96496,0.26828
459.03623,0.26561
457.10751,0.26296
455.17878,0.25841
453.25006,0.25177
451.32134,0.24387
449.39261,0.23705
447.46389,0.23315
445.53517,0.22968
443.60644,0.22344
441.67772,0.21576
439.74900,0.20789
437.82027,0.19809
435.89155,0.18756
433.96282,0.18040
432.03410,0.17653
430.10538,0.17293
428.17665,0.16874
426.24793,0.16393
424.31921,0.15760
422.39048,0.15056
420.46176,0.14430
418.53304,0.13714
416.60431,0.12901
414.67559,0.12415
412.74686,0.12286
410.81814,0.12059
408.88942,0.11516
406.96069,0.11012
405.03197,0.10848
403.10325,0.10847
401.17452,0.10556
399.24580,0.09842
397.31708,0.09193
395.38835,0.08783
393.45963,0.08478
391.53090,0.08628
389.60218,0.08780
387.67346,0.07822
385.74473,0.05796
383.81601,0.03953
381.88729,0.02437
379.95856,0.00779
378.02984,0.00132
376.10111,0.01058
374.17239,0.01492
372.24367,0.00502
370.31494,0.00000
368.38622,0.00000
