3996.31543,0.00026
3994.38671,0.00040
3992.45799,0.00042
3990.52926,0.00033
3988.60054,0.00018
3986.67182,0.00002
3984.74309,0.00000
3982.81437,0.00016
3980.88564,0.00034
3978.95692,0.00047
3977.02820,0.00051
3975.09947,0.00047
3973.17075,0.00051
3971.24203,0.00069
3969.31330,0.00088
3967.38458,0.00095
3965.45586,0.00088
3963.52713,0.00080
3961.59841,0.00077
3959.66968,0.00077
3957.74096,0.00074
3955.81224,0.00070
3953.88351,0.00071
3951.95479,0.00078
3950.02607,0.00083
3948.09734,0.00087
3946.16862,0.00105
3944.23990,0.00118
3942.31117,0.00109
3940.38245,0.00099
3938.45372,0.00103
3936.52500,0.00106
3934.59628,0.00098
3932.66755,0.00085
3930.73883,0.00083
3928.81011,0.00097
3926.88138,0.00114
3924.95266,0.00107
3923.02393,0.00087
3921.09521,0.00087
3919.16649,0.00106
3917.23776,0.00107
3915.30904,0.00079
3913.38032,0.00055
3911.45159,0.00057
3909.52287,0.00083
3907.59415,0.00116
3905.66542,0.00129
3903.73670,0.00105
3901.80797,0.00061
3899.87925,0.00028
3897.95053,0.00033
3896.02180,0.00072
3894.09308,0.00103
3892.16436,0.00086
3890.23563,0.00043
3888.30691,0.00027
3886.37819,0.00030
3884.44946,0.00027
3882.52074,0.00021
3880.59201,0.00008
3878.66329,0.00000
3876.73457,0.00014
3874.80584,0.00032
3872.87712,0.00030
3870.94840,0.00014
3869.01967,-0.00005
3867.09095,0.00002
3865.16222,0.00019
3863.23350,0.00016
3861.30478,0.00014
3859.37605,0.00042
3857.44733,0.00095
3855.51861,0.00130
3853.58988,0.00089
3851.66116,0.00004
3849.73244,-0.00030
3847.80371,-0.00017
3845.87499,0.00001
3843.94626,0.00013
3842.01754,0.00031
3840.08882,0.00047
3838.16009,0.00039
3836.23137,0.00020
3834.30265,0.00016
3832.37392,0.00012
3830.44520,0.00002
3828.51648,0.00000
3826.58775,0.00014
3824.65903,0.00037
3822.73030,0.00045
3820.80158,0.00025
3818.87286,0.00020
3816.94413,0.00032
3815.01541,0.00027
3813.08669,0.00034
3811.15796,0.00082
3809.22924,0.00139
3807.30052,0.00163
3805.37179,0.00169
3803.44307,0.00179
3801.51434,0.00165
3799.58562,0.00138
3797.65690,0.00132
3795.72817,0.00136
3793.79945,0.00153
3791.87073,0.00192
3789.94200,0.00246
3788.01328,0.00292
3786.08455,0.00314
3784.15583,0.00320
3782.22711,0.00334
3780.29838,0.00353
3778.36966,0.00360
3776.44094,0.00376
3774.51221,0.00423
3772.58349,0.00485
3770.65477,0.00525
3768.72604,0.00530
3766.79732,0.00533
3764.86859,0.00562
3762.93987,0.00618
3761.01115,0.00678
3759.08242,0.00733
3757.15370,0.00799
3755.22498,0.00882
3753.29625,0.00949
3751.36753,0.00983
3749.43881,0.01027
3747.51008,0.01104
3745.58136,0.01159
3743.65263,0.01177
3741.72391,0.01229
3739.79519,0.01341
3737.86646,0.01470
3735.93774,0.01574
3734.00902,0.01662
3732.08029,0.01774
3730.15157,0.01919
3728.22284,0.02086
3726.29412,0.02275
3724.36540,0.02486
3722.43667,0.02724
3720.50795,0.02997
3718.57923,0.03305
3716.65050,0.03625
3714.72178,0.03957
3712.79306,0.04330
3710.86433,0.04748
3708.93561,0.05163
3707.00688,0.05552
3705.07816,0.05933
3703.14944,0.06336
3701.22071,0.06773
3699.29199,0.07217
3697.36327,0.07634
3695.43454,0.08016
3693.50582,0.08370
3691.57710,0.08740
3689.64837,0.09172
3687.71965,0.09636
3685.79092,0.10079
3683.86220,0.10505
3681.93348,0.10951
3680.00475,0.11426
3678.07603,0.11942
3676.14731,0.12539
3674.21858,0.13170
3672.28986,0.13724
3670.36113,0.14257
3668.43241,0.14806
3666.50369,0.15300
3664.57496,0.15763
3662.64624,0.16241
3660.71752,0.16724
3658.78879,0.17193
3656.86007,0.17668
3654.93135,0.18137
3653.00262,0.18565
3651.07390,0.19001
3649.14517,0.19496
3647.21645,0.19971
3645.28773,0.20351
3643.35900,0.20670
3641.43028,0.20993
3639.50156,0.21338
3637.57283,0.21695
3635.64411,0.22055
3633.71539,0.22387
3631.78666,0.22669
3629.85794,0.22953
3627.92921,0.23286
3626.00049,0.23613
3624.07177,0.23897
3622.14304,0.24159
3620.21432,0.24414
3618.28560,0.24633
3616.35687,0.24774
3614.42815,0.24853
3612.49942,0.24939
3610.57070,0.25078
3608.64198,0.25251
3606.71325,0.25419
3604.78453,0.25578
3602.85581,0.25738
3600.92708,0.25899
3598.99836,0.26050
3597.06964,0.26188
3595.14091,0.26332
3593.21219,0.26488
3591.28346,0.26633
3589.35474,0.26759
3587.42602,0.26893
3585.49729,0.27053
3583.56857,0.27207
3581.63985,0.27329
3579.71112,0.27442
3577.78240,0.27584
3575.85368,0.27746
3573.92495,0.27900
3571.99623,0.28038
3570.06750,0.28162
3568.13878,0.28282
3566.21006,0.28416
3564.28133,0.28562
3562.35261,0.28702
3560.42389,0.28839
3558.49516,0.28971
3556.56644,0.29090
3554.63771,0.29195
3552.70899,0.29293
3550.78027,0.29383
3548.85154,0.29474
3546.92282,0.29584
3544.99410,0.29709
3543.06537,0.29825
3541.13665,0.29919
3539.20793,0.29995
3537.27920,0.30079
3535.35048,0.30187
3533.42175,0.30300
3531.49303,0.30387
3529.56431,0.30457
3527.63558,0.30542
3525.70686,0.30650
3523.77814,0.30754
3521.84941,0.30845
3519.92069,0.30937
3517.99197,0.31022
3516.06324,0.31096
3514.13452,0.31170
3512.20579,0.31248
3510.27707,0.31332
3508.34835,0.31427
3506.41962,0.31525
3504.49090,0.31624
3502.56218,0.31727
3500.63345,0.31823
3498.70473,0.31909
3496.77600,0.32002
3494.84728,0.32103
3492.91856,0.32193
3490.98983,0.32278
3489.06111,0.32359
3487.13239,0.32429
3485.20366,0.32498
3483.27494,0.32576
3481.34622,0.32651
3479.41749,0.32701
3477.48877,0.32740
3475.56004,0.32803
3473.63132,0.32886
3471.70260,0.32964
3469.77387,0.33046
3467.84515,0.33146
3465.91643,0.33238
3463.98770,0.33300
3462.05898,0.33336
3460.13026,0.33373
3458.20153,0.33438
3456.27281,0.33520
3454.34408,0.33589
3452.41536,0.33634
3450.48664,0.33676
3448.55791,0.33739
3446.62919,0.33824
3444.70047,0.33897
3442.77174,0.33940
3440.84302,0.33975
3438.91429,0.34017
3436.98557,0.34052
3435.05685,0.34079
3433.12812,0.34116
3431.19940,0.34160
3429.27068,0.34202
3427.34195,0.34251
3425.41323,0.34302
3423.48451,0.34332
3421.55578,0.34346
3419.62706,0.34359
3417.69833,0.34358
3415.76961,0.34354
3413.84089,0.34376
3411.91216,0.34416
3409.98344,0.34439
3408.05472,0.34440
3406.12599,0.34450
3404.19727,0.34483
3402.26855,0.34509
3400.33982,0.34506
3398.41110,0.34478
3396.48237,0.34432
3394.55365,0.34390
3392.62493,0.34376
3390.69620,0.34377
3388.76748,0.34367
3386.83876,0.34342
3384.91003,0.34300
3382.98131,0.34245
3381.05259,0.34204
3379.12386,0.34191
3377.19514,0.34191
3375.26641,0.34178
3373.33769,0.34145
3371.40897,0.34100
3369.48024,0.34047
3367.55152,0.33981
3365.62280,0.33917
3363.69407,0.33864
3361.76535,0.33822
3359.83662,0.33785
3357.90790,0.33741
3355.97918,0.33686
3354.05045,0.33630
3352.12173,0.33577
3350.19301,0.33533
3348.26428,0.33505
3346.33556,0.33472
3344.40684,0.33408
3342.47811,0.33328
3340.54939,0.33271
3338.62066,0.33244
3336.69194,0.33217
3334.76322,0.33172
3332.83449,0.33101
3330.90577,0.33008
3328.97705,0.32919
3327.04832,0.32850
3325.11960,0.32800
3323.19088,0.32758
3321.26215,0.32712
3319.33343,0.32647
3317.40470,0.32565
3315.47598,0.32483
3313.54726,0.32418
3311.61853,0.32388
3309.68981,0.32367
3307.76109,0.32310
3305.83236,0.32241
3303.90364,0.32200
3301.97491,0.32162
3300.04619,0.32103
3298.11747,0.32040
3296.18874,0.31988
3294.26002,0.31927
3292.33130,0.31845
3290.40257,0.31766
3288.47385,0.31704
3286.54513,0.31653
3284.61640,0.31608
3282.68768,0.31572
3280.75895,0.31536
3278.83023,0.31489
3276.90151,0.31432
3274.97278,0.31371
3273.04406,0.31295
3271.11534,0.31214
3269.18661,0.31153
3267.25789,0.31104
3265.32917,0.31043
3263.40044,0.30965
3261.47172,0.30885
3259.54299,0.30817
3257.61427,0.30766
3255.68555,0.30719
3253.75682,0.30663
3251.82810,0.30598
3249.89938,0.30520
3247.97065,0.30430
3246.04193,0.30343
3244.11320,0.30279
3242.18448,0.30235
3240.25576,0.30192
3238.32703,0.30127
3236.39831,0.30045
3234.46959,0.29965
3232.54086,0.29891
3230.61214,0.29808
3228.68342,0.29717
3226.75469,0.29639
3224.82597,0.29567
3222.89724,0.29476
3220.96852,0.29363
3219.03980,0.29256
3217.11107,0.29167
3215.18235,0.29081
3213.25363,0.28987
3211.32490,0.28886
3209.39618,0.28786
3207.46746,0.28690
3205.53873,0.28600
3203.61001,0.28513
3201.68128,0.28417
3199.75256,0.28300
3197.82384,0.28175
3195.89511,0.28068
3193.96639,0.27981
3192.03767,0.27888
3190.10894,0.27771
3188.18022,0.27642
3186.25149,0.27514
3184.32277,0.27399
3182.39405,0.27298
3180.46532,0.27193
3178.53660,0.27076
3176.60788,0.26961
3174.67915,0.26856
3172.75043,0.26752
3170.82171,0.26637
3168.89298,0.26507
3166.96426,0.26374
3165.03553,0.26245
3163.10681,0.26116
3161.17809,0.25999
3159.24936,0.25901
3157.32064,0.25808
3155.39192,0.25710
3153.46319,0.25605
3151.53447,0.25483
3149.60575,0.25345
3147.67702,0.25196
3145.74830,0.25058
3143.81957,0.24947
3141.89085,0.24850
3139.96213,0.24749
3138.03340,0.24639
3136.10468,0.24519
3134.17596,0.24394
3132.24723,0.24279
3130.31851,0.24182
3128.38978,0.24087
3126.46106,0.23986
3124.53234,0.23884
3122.60361,0.23782
3120.67489,0.23683
3118.74617,0.23584
3116.81744,0.23462
3114.88872,0.23326
3112.96000,0.23195
3111.03127,0.23078
3109.10255,0.22980
3107.17382,0.22891
3105.24510,0.22777
3103.31638,0.22643
3101.38765,0.22515
3099.45893,0.22393
3097.53021,0.22263
3095.60148,0.22133
3093.67276,0.22019
3091.74404,0.21914
3089.81531,0.21810
3087.88659,0.21704
3085.95786,0.21583
3084.02914,0.21455
3082.10042,0.21332
3080.17169,0.21204
3078.24297,0.21076
3076.31425,0.20958
3074.38552,0.20840
3072.45680,0.20715
3070.52807,0.20591
3068.59935,0.20468
3066.67063,0.20338
3064.74190,0.20211
3062.81318,0.20095
3060.88446,0.19983
3058.95573,0.19876
3057.02701,0.19773
3055.09829,0.19668
3053.16956,0.19551
3051.24084,0.19426
3049.31211,0.19302
3047.38339,0.19182
3045.45467,0.19068
3043.52594,0.18961
3041.59722,0.18855
3039.66850,0.18736
3037.73977,0.18606
3035.81105,0.18480
3033.88233,0.18369
3031.95360,0.18269
3030.02488,0.18164
3028.09615,0.18057
3026.16743,0.17971
3024.23871,0.17895
3022.30998,0.17802
3020.38126,0.17701
3018.45254,0.17611
3016.52381,0.17528
3014.59509,0.17443
3012.66636,0.17355
3010.73764,0.17271
3008.80892,0.17194
3006.88019,0.17119
3004.95147,0.17038
3003.02275,0.16955
3001.09402,0.16877
2999.16530,0.16803
2997.23658,0.16736
2995.30785,0.16683
2993.37913,0.16633
2991.45040,0.16593
2989.52168,0.16571
2987.59296,0.16550
2985.66423,0.16528
2983.73551,0.16531
2981.80679,0.16550
2979.87806,0.16567
2977.94934,0.16597
2976.02062,0.16651
2974.09189,0.16708
2972.16317,0.16762
2970.23444,0.16829
2968.30572,0.16906
2966.37700,0.16970
2964.44827,0.17012
2962.51955,0.17043
2960.59083,0.17063
2958.66210,0.17053
2956.73338,0.17004
2954.80466,0.16921
2952.87593,0.16818
2950.94721,0.16725
2949.01848,0.16674
2947.08976,0.16672
2945.16104,0.16717
2943.23231,0.16812
2941.30359,0.16937
2939.37487,0.17073
2937.44614,0.17217
2935.51742,0.17368
2933.58869,0.17520
2931.65997,0.17653
2929.73125,0.17753
2927.80252,0.17811
2925.87380,0.17796
2923.94508,0.17681
2922.01635,0.17464
2920.08763,0.17166
2918.15891,0.16816
2916.23018,0.16452
2914.30146,0.16092
2912.37273,0.15753
2910.44401,0.15447
2908.51529,0.15178
2906.58656,0.14939
2904.65784,0.14719
2902.72912,0.14510
2900.80039,0.14306
2898.87167,0.14104
2896.94295,0.13918
2895.01422,0.13749
2893.08550,0.13586
2891.15677,0.13436
2889.22805,0.13301
2887.29933,0.13169
2885.37060,0.13044
2883.44188,0.12939
2881.51316,0.12854
2879.58443,0.12785
2877.65571,0.12739
2875.72698,0.12705
2873.79826,0.12663
2871.86954,0.12608
2869.94081,0.12548
2868.01209,0.12505
2866.08337,0.12485
2864.15464,0.12487
2862.22592,0.12530
2860.29720,0.12622
2858.36847,0.12726
2856.43975,0.12797
2854.51102,0.12795
2852.58230,0.12668
2850.65358,0.12393
2848.72485,0.12008
2846.79613,0.11585
2844.86741,0.11172
2842.93868,0.10794
2841.00996,0.10470
2839.08124,0.10201
2837.15251,0.09968
2835.22379,0.09762
2833.29506,0.09578
2831.36634,0.09413
2829.43762,0.09264
2827.50889,0.09123
2825.58017,0.08991
2823.65145,0.08867
2821.72272,0.08754
2819.79400,0.08655
2817.86527,0.08566
2815.93655,0.08475
2814.00783,0.08373
2812.07910,0.08270
2810.15038,0.08182
2808.22166,0.08100
2806.29293,0.08008
2804.36421,0.07915
2802.43549,0.07832
2800.50676,0.07752
2798.57804,0.07670
2796.64931,0.07589
2794.72059,0.07508
2792.79187,0.07434
2790.86314,0.07369
2788.93442,0.07304
2787.00570,0.07231
2785.07697,0.07154
2783.14825,0.07077
2781.21953,0.07001
2779.29080,0.06925
2777.36208,0.06850
2775.43335,0.06780
2773.50463,0.06720
2771.57591,0.06664
2769.64718,0.06598
2767.71846,0.06519
2765.78974,0.06439
2763.86101,0.06368
2761.93229,0.06312
2760.00356,0.06256
2758.07484,0.06192
2756.14612,0.06127
2754.21739,0.06065
2752.28867,0.06008
2750.35995,0.05956
2748.43122,0.05901
2746.50250,0.05843
2744.57378,0.05788
2742.64505,0.05736
2740.71633,0.05682
2738.78760,0.05631
2736.85888,0.05583
2734.93016,0.05532
2733.00143,0.05468
2731.07271,0.05399
2729.14399,0.05340
2727.21526,0.05288
2725.28654,0.05232
2723.35782,0.05173
2721.42909,0.05115
2719.50037,0.05055
2717.57164,0.04994
2715.64292,0.04936
2713.71420,0.04879
2711.78547,0.04828
2709.85675,0.04776
2707.92803,0.04720
2705.99930,0.04666
2704.07058,0.04613
2702.14185,0.04555
2700.21313,0.04500
2698.28441,0.04451
2696.35568,0.04403
2694.42696,0.04358
2692.49824,0.04316
2690.56951,0.04270
2688.64079,0.04226
2686.71207,0.04180
2684.78334,0.04126
2682.85462,0.04075
2680.92589,0.04037
2678.99717,0.04000
2677.06845,0.03948
2675.13972,0.03888
2673.21100,0.03834
2671.28228,0.03784
2669.35355,0.03733
2667.42483,0.03691
2665.49611,0.03652
2663.56738,0.03601
2661.63866,0.03551
2659.70993,0.03517
2657.78121,0.03479
2655.85249,0.03428
2653.92376,0.03382
2651.99504,0.03351
2650.06632,0.03318
2648.13759,0.03271
2646.20887,0.03217
2644.28014,0.03164
2642.35142,0.03124
2640.42270,0.03096
2638.49397,0.03066
2636.56525,0.03028
2634.63653,0.02987
2632.70780,0.02946
2630.77908,0.02899
2628.85036,0.02849
2626.92163,0.02802
2624.99291,0.02755
2623.06418,0.02715
2621.13546,0.02687
2619.20674,0.02657
2617.27801,0.02616
2615.34929,0.02571
2613.42057,0.02533
2611.49184,0.02505
2609.56312,0.02477
2607.63440,0.02448
2605.70567,0.02419
2603.77695,0.02388
2601.84822,0.02351
2599.91950,0.02309
2597.99078,0.02266
2596.06205,0.02228
2594.13333,0.02195
2592.20461,0.02164
2590.27588,0.02127
2588.34716,0.02086
2586.41843,0.02054
2584.48971,0.02032
2582.56099,0.02009
2580.63226,0.01978
2578.70354,0.01940
2576.77482,0.01900
2574.84609,0.01867
2572.91737,0.01841
2570.98865,0.01818
2569.05992,0.01789
2567.13120,0.01756
2565.20247,0.01727
2563.27375,0.01701
2561.34503,0.01672
2559.41630,0.01648
2557.48758,0.01631
2555.55886,0.01606
2553.63013,0.01569
2551.70141,0.01535
2549.77269,0.01508
2547.84396,0.01483
2545.91524,0.01461
2543.98651,0.01441
2542.05779,0.01417
2540.12907,0.01390
2538.20034,0.01363
2536.27162,0.01336
2534.34290,0.01315
2532.41417,0.01303
2530.48545,0.01285
2528.55673,0.01254
2526.62800,0.01225
2524.69928,0.01206
2522.77055,0.01189
2520.84183,0.01167
2518.91311,0.01144
2516.98438,0.01123
2515.05566,0.01100
2513.12694,0.01069
2511.19821,0.01039
2509.26949,0.01017
2507.34076,0.00999
2505.41204,0.00981
2503.48332,0.00965
2501.55459,0.00944
2499.62587,0.00921
2497.69715,0.00904
2495.76842,0.00892
2493.83970,0.00873
2491.91098,0.00850
2489.98225,0.00828
2488.05353,0.00806
2486.12480,0.00789
2484.19608,0.00777
2482.26736,0.00757
2480.33863,0.00728
2478.40991,0.00702
2476.48119,0.00683
2474.55246,0.00667
2472.62374,0.00648
2470.69502,0.00630
2468.76629,0.00618
2466.83757,0.00609
2464.90884,0.00597
2462.98012,0.00586
2461.05140,0.00570
2459.12267,0.00541
2457.19395,0.00510
2455.26523,0.00490
2453.33650,0.00483
2451.40778,0.00473
2449.47905,0.00454
2447.55033,0.00431
2445.62161,0.00412
2443.69288,0.00397
2441.76416,0.00387
2439.83544,0.00381
2437.90671,0.00377
2435.97799,0.00370
2434.04927,0.00355
2432.12054,0.00336
2430.19182,0.00323
2428.26309,0.00319
2426.33437,0.00311
2424.40565,0.00298
2422.47692,0.00283
2420.54820,0.00263
2418.61948,0.00245
2416.69075,0.00237
2414.76203,0.00230
2412.83331,0.00221
2410.90458,0.00212
2408.97586,0.00198
2407.04713,0.00181
2405.11841,0.00167
2403.18969,0.00159
2401.26096,0.00158
2399.33224,0.00155
2397.40352,0.00144
2395.47479,0.00128
2393.54607,0.00114
2391.61734,0.00106
2389.68862,0.00105
2387.75990,0.00107
2385.83117,0.00106
2383.90245,0.00101
2381.97373,0.00099
2380.04500,0.00106
2378.11628,0.00118
2376.18756,0.00128
2374.25883,0.00134
2372.33011,0.00142
2370.40138,0.00149
2368.47266,0.00158
2366.54394,0.00168
2364.61521,0.00161
2362.68649,0.00144
2360.75777,0.00127
2358.82904,0.00101
2356.90032,0.00068
2354.97160,0.00044
2353.04287,0.00052
2351.11415,0.00105
2349.18542,0.00156
2347.25670,0.00137
2345.32798,0.00079
2343.39925,0.00059
2341.47053,0.00087
2339.54181,0.00121
2337.61308,0.00130
2335.68436,0.00116
2333.75563,0.00100
2331.82691,0.00091
2329.89819,0.00089
2327.96946,0.00092
2326.04074,0.00094
2324.11202,0.00083
2322.18329,0.00061
2320.25457,0.00044
2318.32585,0.00036
2316.39712,0.00035
2314.46840,0.00039
2312.53967,0.00047
2310.61095,0.00047
2308.68223,0.00035
2306.75350,0.00017
2304.82478,0.00004
2302.89606,0.00000
2300.96733,0.00002
2299.03861,0.00003
2297.10989,-0.00002
2295.18116,-0.00010
2293.25244,-0.00017
2291.32371,-0.00020
2289.39499,-0.00020
2287.46627,-0.00014
2285.53754,-0.00003
2283.60882,0.00005
2281.68010,0.00004
2279.75137,0.00002
2277.82265,0.00003
2275.89392,0.00003
2273.96520,0.00002
2272.03648,0.00004
2270.10775,0.00008
2268.17903,0.00011
2266.25031,0.00011
2264.32158,0.00006
2262.39286,0.00000
2260.46414,-0.00004
2258.53541,-0.00004
2256.60669,0.00001
2254.67796,0.00010
2252.74924,0.00018
2250.82052,0.00024
2248.89179,0.00021
2246.96307,0.00010
2245.03435,0.00010
2243.10562,0.00021
2241.17690,0.00024
2239.24818,0.00022
2237.31945,0.00026
2235.39073,0.00030
2233.46200,0.00026
2231.53328,0.00020
2229.60456,0.00019
2227.67583,0.00022
2225.74711,0.00027
2223.81839,0.00028
2221.88966,0.00024
2219.96094,0.00016
2218.03221,0.00010
2216.10349,0.00009
2214.17477,0.00009
2212.24604,0.00007
2210.31732,0.00005
2208.38860,0.00002
2206.45987,0.00000
2204.53115,0.00000
2202.60243,0.00000
2200.67370,-0.00007
2198.74498,-0.00016
2196.81625,-0.00015
2194.88753,-0.00008
2192.95881,-0.00007
2191.03008,-0.00012
2189.10136,-0.00012
2187.17264,-0.00005
2185.24391,-0.00004
2183.31519,-0.00011
2181.38647,-0.00012
2179.45774,-0.00006
2177.52902,-0.00001
2175.60029,-0.00006
2173.67157,-0.00014
2171.74285,-0.00009
2169.81412,0.00003
2167.88540,0.00009
2165.95668,0.00014
2164.02795,0.00025
2162.09923,0.00035
2160.17050,0.00041
2158.24178,0.00039
2156.31306,0.00035
2154.38433,0.00035
2152.45561,0.00036
2150.52689,0.00039
2148.59816,0.00049
2146.66944,0.00061
2144.74072,0.00070
2142.81199,0.00069
2140.88327,0.00063
2138.95454,0.00059
2137.02582,0.00058
2135.09710,0.00057
2133.16837,0.00057
2131.23965,0.00056
2129.31093,0.00047
2127.38220,0.00035
2125.45348,0.00025
2123.52476,0.00019
2121.59603,0.00020
2119.66731,0.00024
2117.73858,0.00026
2115.80986,0.00025
2113.88114,0.00019
2111.95241,0.00009
2110.02369,0.00002
2108.09497,0.00006
2106.16624,0.00011
2104.23752,0.00010
2102.30880,0.00003
2100.38007,-0.00006
2098.45135,-0.00007
2096.52262,-0.00004
2094.59390,0.00000
2092.66518,-0.00008
2090.73645,-0.00017
2088.80773,-0.00022
2086.87901,-0.00029
2084.95028,-0.00041
2083.02156,-0.00055
2081.09283,-0.00068
2079.16411,-0.00077
2077.23539,-0.00080
2075.30666,-0.00078
2073.37794,-0.00076
2071.44922,-0.00078
2069.52049,-0.00088
2067.59177,-0.00094
2065.66305,-0.00088
2063.73432,-0.00079
2061.80560,-0.00076
2059.87687,-0.00072
2057.94815,-0.00057
2056.01943,-0.00035
2054.09070,-0.00014
2052.16198,0.00001
2050.23326,0.00011
2048.30453,0.00022
2046.37581,0.00040
2044.44709,0.00062
2042.51836,0.00088
2040.58964,0.00118
2038.66091,0.00152
2036.73219,0.00186
2034.80347,0.00219
2032.87474,0.00253
2030.94602,0.00285
2029.01730,0.00312
2027.08857,0.00334
2025.15985,0.00353
2023.23112,0.00369
2021.30240,0.00385
2019.37368,0.00402
2017.44495,0.00419
2015.51623,0.00439
2013.58751,0.00471
2011.65878,0.00504
2009.73006,0.00521
2007.80134,0.00529
2005.87261,0.00538
2003.94389,0.00548
2002.01516,0.00558
2000.08644,0.00566
1998.15772,0.00567
1996.22899,0.00567
1994.30027,0.00564
1992.37155,0.00553
1990.44282,0.00539
1988.51410,0.00527
1986.58538,0.00515
1984.65665,0.00507
1982.72793,0.00499
1980.79920,0.00485
1978.87048,0.00461
1976.94176,0.00440
1975.01303,0.00430
1973.08431,0.00419
1971.15559,0.00396
1969.22686,0.00363
1967.29814,0.00326
1965.36941,0.00296
1963.44069,0.00272
1961.51197,0.00244
1959.58324,0.00214
1957.65452,0.00191
1955.72580,0.00170
1953.79707,0.00147
1951.86835,0.00125
1949.93963,0.00108
1948.01090,0.00099
1946.08218,0.00089
1944.15345,0.00073
1942.22473,0.00053
1940.29601,0.00039
1938.36728,0.00029
1936.43856,0.00016
1934.50984,0.00003
1932.58111,-0.00005
1930.65239,-0.00010
1928.72367,-0.00010
1926.79494,0.00000
1924.86622,0.00013
1922.93749,0.00031
1921.00877,0.00054
1919.08005,0.00080
1917.15132,0.00106
1915.22260,0.00144
1913.29388,0.00198
1911.36515,0.00262
1909.43643,0.00329
1907.50770,0.00400
1905.57898,0.00473
1903.65026,0.00547
1901.72153,0.00622
1899.79281,0.00699
1897.86409,0.00773
1895.93536,0.00839
1894.00664,0.00900
1892.07792,0.00961
1890.14919,0.01022
1888.22047,0.01077
1886.29174,0.01127
1884.36302,0.01167
1882.43430,0.01199
1880.50557,0.01222
1878.57685,0.01238
1876.64813,0.01252
1874.71940,0.01260
1872.79068,0.01259
1870.86196,0.01247
1868.93323,0.01218
1867.00451,0.01181
1865.07578,0.01141
1863.14706,0.01093
1861.21834,0.01025
1859.28961,0.00941
1857.36089,0.00852
1855.43217,0.00766
1853.50344,0.00684
1851.57472,0.00602
1849.64599,0.00518
1847.71727,0.00439
1845.78855,0.00360
1843.85982,0.00279
1841.93110,0.00211
1840.00238,0.00165
1838.07365,0.00131
1836.14493,0.00102
1834.21621,0.00078
1832.28748,0.00057
1830.35876,0.00030
1828.43003,0.00000
1826.50131,-0.00030
1824.57259,-0.00037
1822.64386,-0.00026
1820.71514,-0.00013
1818.78642,-0.00007
1816.85769,-0.00006
1814.92897,0.00000
1813.00025,0.00005
1811.07152,0.00019
1809.14280,0.00043
1807.21407,0.00074
1805.28535,0.00109
1803.35663,0.00146
1801.42790,0.00191
1799.49918,0.00249
1797.57046,0.00316
1795.64173,0.00383
1793.71301,0.00452
1791.78428,0.00531
1789.85556,0.00618
1787.92684,0.00705
1785.99811,0.00793
1784.06939,0.00892
1782.14067,0.01005
1780.21194,0.01122
1778.28322,0.01226
1776.35450,0.01320
1774.42577,0.01417
1772.49705,0.01534
1770.56832,0.01658
1768.63960,0.01766
1766.71088,0.01860
1764.78215,0.01953
1762.85343,0.02062
1760.92471,0.02185
1758.99598,0.02303
1757.06726,0.02417
1755.13854,0.02535
1753.20981,0.02658
1751.28109,0.02796
1749.35236,0.02949
1747.42364,0.03110
1745.49492,0.03286
1743.56619,0.03481
1741.63747,0.03692
1739.70875,0.03913
1737.78002,0.04120
1735.85130,0.04326
1733.92257,0.04581
1731.99385,0.04866
1730.06513,0.05135
1728.13640,0.05403
1726.20768,0.05677
1724.27896,0.05955
1722.35023,0.06214
1720.42151,0.06444
1718.49279,0.06692
1716.56406,0.06993
1714.63534,0.07294
1712.70661,0.07555
1710.77789,0.07790
1708.84917,0.08024
1706.92044,0.08279
1704.99172,0.08550
1703.06300,0.08810
1701.13427,0.09092
1699.20555,0.09435
1697.27683,0.09809
1695.34810,0.10197
1693.41938,0.10554
1691.49065,0.10874
1689.56193,0.11201
1687.63321,0.11530
1685.70448,0.11904
1683.77576,0.12380
1681.84704,0.12825
1679.91831,0.13155
1677.98959,0.13444
1676.06087,0.13772
1674.13214,0.14126
1672.20342,0.14458
1670.27469,0.14800
1668.34597,0.15153
1666.41725,0.15439
1664.48852,0.15689
1662.55980,0.15977
1660.63108,0.16263
1658.70235,0.16471
1656.77363,0.16601
1654.84490,0.16729
1652.91618,0.16933
1650.98746,0.17138
1649.05873,0.17273
1647.13001,0.17390
1645.20129,0.17507
1643.27256,0.17596
1641.34384,0.17659
1639.41512,0.17695
1637.48639,0.17713
1635.55767,0.17743
1633.62894,0.17781
1631.70022,0.17783
1629.77150,0.17729
1627.84277,0.17626
1625.91405,0.17484
1623.98533,0.17304
1622.05660,0.17101
1620.12788,0.16892
1618.19916,0.16638
1616.27043,0.16306
1614.34171,0.15963
1612.41298,0.15645
1610.48426,0.15311
1608.55554,0.14951
1606.62681,0.14592
1604.69809,0.14245
1602.76937,0.13902
1600.84064,0.13575
1598.91192,0.13280
1596.98319,0.13005
1595.05447,0.12734
1593.12575,0.12467
1591.19702,0.12202
1589.26830,0.11938
1587.33958,0.11680
1585.41085,0.11431
1583.48213,0.11194
1581.55341,0.10975
1579.62468,0.10765
1577.69596,0.10537
1575.76723,0.10293
1573.83851,0.10092
1571.90979,0.09933
1569.98106,0.09762
1568.05234,0.09583
1566.12362,0.09421
1564.19489,0.09279
1562.26617,0.09147
1560.33745,0.08981
1558.40872,0.08773
1556.48000,0.08619
1554.55127,0.08511
1552.62255,0.08388
1550.69383,0.08251
1548.76510,0.08116
1546.83638,0.07978
1544.90766,0.07818
1542.97893,0.07615
1541.05021,0.07362
1539.12148,0.07113
1537.19276,0.06951
1535.26404,0.06815
1533.33531,0.06626
1531.40659,0.06417
1529.47787,0.06228
1527.54914,0.06035
1525.62042,0.05835
1523.69170,0.05635
1521.76297,0.05426
1519.83425,0.05241
1517.90552,0.05098
1515.97680,0.04955
1514.04808,0.04793
1512.11935,0.04623
1510.19063,0.04437
1508.26191,0.04189
1506.33318,0.03877
1504.40446,0.03624
1502.47574,0.03443
1500.54701,0.03250
1498.61829,0.03022
1496.68956,0.02798
1494.76084,0.02628
1492.83212,0.02507
1490.90339,0.02396
1488.97467,0.02293
1487.04595,0.02227
1485.11722,0.02206
1483.18850,0.02215
1481.25977,0.02248
1479.33105,0.02302
1477.40233,0.02381
1475.47360,0.02511
1473.54488,0.02732
1471.61616,0.03028
1469.68743,0.03299
1467.75871,0.03503
1465.82999,0.03665
1463.90126,0.03789
1461.97254,0.03863
1460.04381,0.03897
1458.11509,0.03924
1456.18637,0.03963
1454.25764,0.03997
1452.32892,0.04010
1450.40020,0.04011
1448.47147,0.04015
1446.54275,0.04026
1444.61403,0.04035
1442.68530,0.04045
1440.75658,0.04064
1438.82785,0.04093
1436.89913,0.04128
1434.97041,0.04167
1433.04168,0.04200
1431.11296,0.04230
1429.18424,0.04268
1427.25551,0.04314
1425.32679,0.04364
1423.39806,0.04414
1421.46934,0.04461
1419.54062,0.04506
1417.61189,0.04557
1415.68317,0.04607
1413.75445,0.04657
1411.82572,0.04718
1409.89700,0.04792
1407.96828,0.04873
1406.03955,0.04953
1404.11083,0.05011
1402.18210,0.05020
1400.25338,0.04966
1398.32466,0.04857
1396.39593,0.04708
1394.46721,0.04533
1392.53849,0.04366
1390.60976,0.04249
1388.68104,0.04216
1386.75232,0.04261
1384.82359,0.04278
1382.89487,0.04151
1380.96614,0.03904
1379.03742,0.03643
1377.10870,0.03424
1375.17997,0.03236
1373.25125,0.03066
1371.32253,0.02914
1369.39380,0.02781
1367.46508,0.02660
1365.53635,0.02539
1363.60763,0.02396
1361.67891,0.02243
1359.75018,0.02114
1357.82146,0.02011
1355.89274,0.01915
1353.96401,0.01823
1352.03529,0.01739
1350.10657,0.01657
1348.17784,0.01576
1346.24912,0.01505
1344.32039,0.01453
1342.39167,0.01412
1340.46295,0.01372
1338.53422,0.01335
1336.60550,0.01305
1334.67678,0.01284
1332.74805,0.01271
1330.81933,0.01267
1328.89061,0.01271
1326.96188,0.01281
1325.03316,0.01298
1323.10443,0.01320
1321.17571,0.01343
1319.24699,0.01365
1317.31826,0.01385
1315.38954,0.01404
1313.46082,0.01417
1311.53209,0.01413
1309.60337,0.01403
1307.67464,0.01414
1305.74592,0.01461
1303.81720,0.01532
1301.88847,0.01612
1299.95975,0.01692
1298.03103,0.01771
1296.10230,0.01864
1294.17358,0.01988
1292.24486,0.02142
1290.31613,0.02318
1288.38741,0.02512
1286.45868,0.02720
1284.52996,0.02938
1282.60124,0.03176
1280.67251,0.03445
1278.74379,0.03742
1276.81507,0.04063
1274.88634,0.04423
1272.95762,0.04832
1271.02890,0.05288
1269.10017,0.05793
1267.17145,0.06350
1265.24272,0.06977
1263.31400,0.07693
1261.38528,0.08504
1259.45655,0.09409
1257.52783,0.10394
1255.59911,0.11446
1253.67038,0.12539
1251.74166,0.13641
1249.81294,0.14719
1247.88421,0.15741
1245.95549,0.16695
1244.02676,0.17587
1242.09804,0.18410
1240.16932,0.19150
1238.24059,0.19833
1236.31187,0.20478
1234.38315,0.21063
1232.45442,0.21572
1230.52570,0.22042
1228.59697,0.22510
1226.66825,0.22962
1224.73953,0.23370
1222.81080,0.23749
1220.88208,0.24117
1218.95336,0.24469
1217.02463,0.24799
1215.09591,0.25109
1213.16719,0.25399
1211.23846,0.25703
1209.30974,0.26023
1207.38101,0.26314
1205.45229,0.26576
1203.52357,0.26845
1201.59484,0.27119
1199.66612,0.27369
1197.73740,0.27596
1195.80867,0.27830
1193.87995,0.28092
1191.95123,0.28365
1190.02250,0.28620
1188.09378,0.28846
1186.16505,0.29053
1184.23633,0.29261
1182.30761,0.29472
1180.37888,0.29691
1178.45016,0.29935
1176.52144,0.30191
1174.59271,0.30434
1172.66399,0.30652
1170.73526,0.30858
1168.80654,0.31067
1166.87782,0.31288
1164.94909,0.31531
1163.02037,0.31766
1161.09165,0.31962
1159.16292,0.32150
1157.23420,0.32348
1155.30548,0.32541
1153.37675,0.32735
1151.44803,0.32934
1149.51930,0.33123
1147.59058,0.33322
1145.66186,0.33549
1143.73313,0.33754
1141.80441,0.33923
1139.87569,0.34137
1137.94696,0.34385
1136.01824,0.34587
1134.08952,0.34796
1132.16079,0.35087
1130.23207,0.35426
1128.30334,0.35762
1126.37462,0.36115
1124.44590,0.36511
1122.51717,0.36898
1120.58845,0.37272
1118.65973,0.37732
1116.73100,0.38294
1114.80228,0.38878
1112.87355,0.39454
1110.94483,0.40017
1109.01611,0.40548
1107.08738,0.41049
1105.15866,0.41517
1103.22994,0.41967
1101.30121,0.42395
1099.37249,0.42774
1097.44377,0.43091
1095.51504,0.43350
1093.58632,0.43558
1091.65759,0.43700
1089.72887,0.43765
1087.80015,0.43729
1085.87142,0.43619
1083.94270,0.43530
1082.01398,0.43460
1080.08525,0.43349
1078.15653,0.43175
1076.22781,0.42936
1074.29908,0.42675
1072.37036,0.42438
1070.44163,0.42212
1068.51291,0.41993
1066.58419,0.41743
1064.65546,0.41421
1062.72674,0.41095
1060.79802,0.40791
1058.86929,0.40457
1056.94057,0.40084
1055.01184,0.39688
1053.08312,0.39292
1051.15440,0.38900
1049.22567,0.38495
1047.29695,0.38070
1045.36823,0.37656
1043.43950,0.37256
1041.51078,0.36809
1039.58206,0.36286
1037.65333,0.35728
1035.72461,0.35203
1033.79588,0.34709
1031.86716,0.34193
1029.93844,0.33647
1028.00971,0.33097
1026.08099,0.32565
1024.15227,0.32057
1022.22354,0.31555
1020.29482,0.31057
1018.36610,0.30583
1016.43737,0.30106
1014.50865,0.29589
1012.57992,0.29043
1010.65120,0.28495
1008.72248,0.27957
1006.79375,0.27410
1004.86503,0.26842
1002.93631,0.26251
1001.00758,0.25632
999.07886,0.24998
997.15013,0.24372
995.22141,0.23770
993.29269,0.23192
991.36396,0.22611
989.43524,0.22017
987.50652,0.21439
985.57779,0.20905
983.64907,0.20412
981.72035,0.19934
979.79162,0.19457
977.86290,0.18986
975.93417,0.18529
974.00545,0.18113
972.07673,0.17733
970.14800,0.17380
968.21928,0.17068
966.29056,0.16797
964.36183,0.16544
962.43311,0.16280
960.50439,0.16029
958.57566,0.15831
956.64694,0.15643
954.71821,0.15415
952.78949,0.15173
950.86077,0.14935
948.93204,0.14681
947.00332,0.14424
945.07460,0.14171
943.14587,0.13893
941.21715,0.13581
939.28842,0.13267
937.35970,0.12973
935.43098,0.12674
933.50225,0.12368
931.57353,0.12067
929.64481,0.11764
927.71608,0.11464
925.78736,0.11172
923.85864,0.10880
921.92991,0.10587
920.00119,0.10299
918.07246,0.10023
916.14374,0.09758
914.21502,0.09461
912.28629,0.09091
910.35757,0.08676
908.42885,0.08277
906.50012,0.07905
904.57140,0.07505
902.64268,0.07058
900.71395,0.06636
898.78523,0.06273
896.85650,0.05926
894.92778,0.05573
892.99906,0.05218
891.07033,0.04862
889.14161,0.04509
887.21289,0.04167
885.28416,0.03837
883.35544,0.03519
881.42671,0.03181
879.49799,0.02828
877.56927,0.02530
875.64054,0.02321
873.71182,0.02158
871.78310,0.01963
869.85437,0.01714
867.92565,0.01445
865.99693,0.01201
864.06820,0.01017
862.13948,0.00879
860.21075,0.00727
858.28203,0.00534
856.35331,0.00339
854.42458,0.00182
852.49586,0.00068
850.56714,0.00000
848.63841,0.00005
846.70969,0.00091
844.78097,0.00226
842.85224,0.00392
840.92352,0.00605
838.99479,0.00869
837.06607,0.01172
835.13735,0.01492
833.20862,0.01816
831.27990,0.02153
829.35118,0.02518
827.42245,0.02909
825.49373,0.03280
823.56501,0.03587
821.63628,0.03886
819.70756,0.04244
817.77883,0.04636
815.85011,0.05004
813.92139,0.05320
811.99266,0.05630
810.06394,0.06002
808.13522,0.06426
806.20649,0.06839
804.27777,0.07178
802.34904,0.07434
800.42032,0.07617
798.49160,0.07682
796.56287,0.07639
794.63415,0.07562
792.70543,0.07462
790.77670,0.07328
788.84798,0.07155
786.91926,0.06938
784.99053,0.06728
783.06181,0.06554
781.13308,0.06322
779.20436,0.05962
777.27564,0.05522
775.34691,0.05082
773.41819,0.04676
771.48947,0.04309
769.56074,0.04022
767.63202,0.03841
765.70330,0.03730
763.77457,0.03649
761.84585,0.03586
759.91712,0.03539
757.98840,0.03494
756.05968,0.03432
754.13095,0.03361
752.20223,0.03311
750.27351,0.03277
748.34478,0.03245
746.41606,0.03211
744.48733,0.03171
742.55861,0.03128
740.62989,0.03077
738.70116,0.03017
736.77244,0.02957
734.84372,0.02907
732.91499,0.02878
730.98627,0.02863
729.05755,0.02854
727.12882,0.02828
725.20010,0.02757
723.27137,0.02685
721.34265,0.02650
719.41393,0.02659
717.48520,0.02684
715.55648,0.02698
713.62776,0.02696
711.69903,0.02702
709.77031,0.02742
707.84159,0.02803
705.91286,0.02851
703.98414,0.02890
702.05541,0.02943
700.12669,0.03025
698.19797,0.03133
696.26924,0.03241
694.34052,0.03313
692.41180,0.03312
690.48307,0.03235
688.55435,0.03141
686.62562,0.03117
684.69690,0.03182
682.76818,0.03249
680.83945,0.03250
678.91073,0.03233
676.98201,0.03243
675.05328,0.03258
673.12456,0.03285
671.19584,0.03304
669.26711,0.03281
667.33839,0.03331
665.40966,0.03440
663.48094,0.03461
661.55222,0.03456
659.62349,0.03526
657.69477,0.03627
655.76605,0.03700
653.83732,0.03738
651.90860,0.03788
649.97988,0.03898
648.05115,0.04049
646.12243,0.04169
644.19370,0.04214
642.26498,0.04227
640.33626,0.04272
638.40753,0.04325
636.47881,0.04337
634.55009,0.04348
632.62136,0.04414
630.69264,0.04518
628.76391,0.04610
626.83519,0.04657
624.90647,0.04658
622.97774,0.04649
621.04902,0.04675
619.12030,0.04766
617.19157,0.04921
615.26285,0.05063
613.33413,0.05129
611.40540,0.05217
609.47668,0.05416
607.54795,0.05668
605.61923,0.05927
603.69051,0.06149
601.76178,0.06228
599.83306,0.06200
597.90434,0.06290
595.97561,0.06563
594.04689,0.06825
592.11817,0.06986
590.18944,0.07125
588.26072,0.07242
586.33199,0.07295
584.40327,0.07334
582.47455,0.07456
580.54582,0.07647
578.61710,0.07810
576.68838,0.07919
574.75965,0.08003
572.83093,0.08102
570.90220,0.08226
568.97348,0.08327
567.04476,0.08401
565.11603,0.08450
563.18731,0.08516
561.25859,0.08703
559.32986,0.08957
557.40114,0.09117
555.47242,0.09257
553.54369,0.09555
551.61497,0.09925
549.68624,0.10165
547.75752,0.10276
545.82880,0.10402
543.90007,0.10605
541.97135,0.10791
540.04263,0.10925
538.11390,0.11079
536.18518,0.11219
534.25646,0.11239
532.32773,0.11139
530.39901,0.11050
528.47028,0.11101
526.54156,0.11297
524.61284,0.11440
522.68411,0.11271
520.75539,0.10893
518.82667,0.10716
516.89794,0.10936
514.96922,0.11330
513.04049,0.11645
511.11177,0.11890
509.18305,0.12115
507.25432,0.12229
505.32560,0.12305
503.39688,0.12664
501.46815,0.13404
499.53943,0.14202
497.61071,0.14759
495.68198,0.15229
493.75326,0.15948
491.82453,0.16953
489.89581,0.18076
487.96709,0.19145
486.03836,0.20029
484.10964,0.20796
482.18092,0.21684
480.25219,0.22811
478.32347,0.23967
476.39475,0.24736
474.46602,0.25040
472.53730,0.25324
470.60857,0.25834
468.67985,0.26160
466.75113,0.26084
464.82240,0.26111
462.89368,0.26412
460.96496,0.26289
459.03623,0.25379
457.10751,0.24308
455.17878,0.23779
453.25006,0.23720
451.32134,0.23503
449.39261,0.22746
447.46389,0.21708
445.53517,0.20860
443.60644,0.20345
441.67772,0.19815
439.74900,0.19027
437.82027,0.18234
435.89155,0.17669
433.96282,0.17256
432.03410,0.16799
430.10538,0.16210
428.17665,0.15583
426.24793,0.14901
424.31921,0.13972
422.39048,0.12977
420.46176,0.12358
418.53304,0.12015
416.60431,0.11570
414.67559,0.11233
412.74686,0.11214
410.81814,0.11133
408.88942,0.10748
406.96069,0.10505
405.03197,0.10570
403.10325,0.10439
401.17452,0.09885
399.24580,0.09080
397.31708,0.07972
395.38835,0.06682
393.45963,0.05867
391.53090,0.05505
389.60218,0.04826
387.67346,0.03589
385.74473,0.02799
383.81601,0.03183
381.88729,0.03579
379.95856,0.03328
378.02984,0.03670
376.10111,0.05108
374.17239,0.05710
372.24367,0.04333
370.31494,0.02299
368.38622,0.00000
