3996.31543,0.00043
3994.38671,0.00025
3992.45799,0.00004
3990.52926,0.00000
3988.60054,0.00020
3986.67182,0.00043
3984.74309,0.00050
3982.81437,0.00046
3980.88564,0.00047
3978.95692,0.00063
3977.02820,0.00080
3975.09947,0.00087
3973.17075,0.00089
3971.24203,0.00092
3969.31330,0.00091
3967.38458,0.00084
3965.45586,0.00084
3963.52713,0.00091
3961.59841,0.00092
3959.66968,0.00090
3957.74096,0.00098
3955.81224,0.00109
3953.88351,0.00112
3951.95479,0.00107
3950.02607,0.00100
3948.09734,0.00099
3946.16862,0.00109
3944.23990,0.00114
3942.31117,0.00096
3940.38245,0.00085
3938.45372,0.00105
3936.52500,0.00136
3934.59628,0.00149
3932.66755,0.00138
3930.73883,0.00117
3928.81011,0.00115
3926.88138,0.00132
3924.95266,0.00131
3923.02393,0.00120
3921.09521,0.00134
3919.16649,0.00152
3917.23776,0.00134
3915.30904,0.00099
3913.38032,0.00085
3911.45159,0.00090
3909.52287,0.00114
3907.59415,0.00165
3905.66542,0.00210
3903.73670,0.00206
3901.80797,0.00160
3899.87925,0.00101
3897.95053,0.00066
3896.02180,0.00089
3894.09308,0.00140
3892.16436,0.00144
3890.23563,0.00122
3888.30691,0.00139
3886.37819,0.00161
3884.44946,0.00155
3882.52074,0.00151
3880.59201,0.00131
3878.66329,0.00110
3876.73457,0.00144
3874.80584,0.00201
3872.87712,0.00228
3870.94840,0.00209
3869.01967,0.00162
3867.09095,0.00135
3865.16222,0.00113
3863.23350,0.00064
3861.30478,0.00048
3859.37605,0.00117
3857.44733,0.00251
3855.51861,0.00341
3853.58988,0.00240
3851.66116,0.00042
3849.73244,0.00000
3847.80371,0.00088
3845.87499,0.00179
3843.94626,0.00224
3842.01754,0.00241
3840.08882,0.00217
3838.16009,0.00125
3836.23137,0.00039
3834.30265,0.00042
3832.37392,0.00100
3830.44520,0.00156
3828.51648,0.00194
3826.58775,0.00223
3824.65903,0.00265
3822.73030,0.00290
3820.80158,0.00240
3818.87286,0.00185
3816.94413,0.00166
3815.01541,0.00136
3813.08669,0.00137
3811.15796,0.00210
3809.22924,0.00283
3807.30052,0.00285
3805.37179,0.00266
3803.44307,0.00280
3801.51434,0.00265
3799.58562,0.00233
3797.65690,0.00249
3795.72817,0.00275
3793.79945,0.00291
3791.87073,0.00313
3789.94200,0.00347
3788.01328,0.00387
3786.08455,0.00422
3784.15583,0.00447
3782.22711,0.00474
3780.29838,0.00480
3778.36966,0.00456
3776.44094,0.00459
3774.51221,0.00517
3772.58349,0.00590
3770.65477,0.00635
3768.72604,0.00660
3766.79732,0.00690
3764.86859,0.00722
3762.93987,0.00765
3761.01115,0.00825
3759.08242,0.00874
3757.15370,0.00927
3755.22498,0.01027
3753.29625,0.01141
3751.36753,0.01185
3749.43881,0.01191
3747.51008,0.01264
3745.58136,0.01359
3743.65263,0.01405
3741.72391,0.01485
3739.79519,0.01656
3737.86646,0.01850
3735.93774,0.01983
3734.00902,0.02047
3732.08029,0.02133
3730.15157,0.02288
3728.22284,0.02483
3726.29412,0.02682
3724.36540,0.02869
3722.43667,0.03049
3720.50795,0.03251
3718.57923,0.03510
3716.65050,0.03819
3714.72178,0.04141
3712.79306,0.04443
3710.86433,0.04709
3708.93561,0.04972
3707.00688,0.05282
3705.07816,0.05642
3703.14944,0.06020
3701.22071,0.06391
3699.29199,0.06754
3697.36327,0.07115
3695.43454,0.07476
3693.50582,0.07839
3691.57710,0.08202
3689.64837,0.08561
3687.71965,0.08928
3685.79092,0.09317
3683.86220,0.09728
3681.93348,0.10163
3680.00475,0.10611
3678.07603,0.11060
3676.14731,0.11514
3674.21858,0.11970
3672.28986,0.12414
3670.36113,0.12845
3668.43241,0.13252
3666.50369,0.13635
3664.57496,0.14020
3662.64624,0.14413
3660.71752,0.14808
3658.78879,0.15198
3656.86007,0.15574
3654.93135,0.15937
3653.00262,0.16289
3651.07390,0.16611
3649.14517,0.16887
3647.21645,0.17147
3645.28773,0.17430
3643.35900,0.17728
3641.43028,0.18020
3639.50156,0.18296
3637.57283,0.18561
3635.64411,0.18833
3633.71539,0.19124
3631.78666,0.19415
3629.85794,0.19652
3627.92921,0.19829
3626.00049,0.20041
3624.07177,0.20326
3622.14304,0.20612
3620.21432,0.20827
3618.28560,0.20973
3616.35687,0.21117
3614.42815,0.21282
3612.49942,0.21447
3610.57070,0.21611
3608.64198,0.21774
3606.71325,0.21941
3604.78453,0.22129
3602.85581,0.22329
3600.92708,0.22504
3598.99836,0.22648
3597.06964,0.22795
3595.14091,0.22960
3593.21219,0.23139
3591.28346,0.23323
3589.35474,0.23490
3587.42602,0.23614
3585.49729,0.23726
3583.56857,0.23871
3581.63985,0.24039
3579.71112,0.24205
3577.78240,0.24365
3575.85368,0.24515
3573.92495,0.24663
3571.99623,0.24820
3570.06750,0.24971
3568.13878,0.25073
3566.21006,0.25135
3564.28133,0.25240
3562.35261,0.25403
3560.42389,0.25572
3558.49516,0.25713
3556.56644,0.25832
3554.63771,0.25940
3552.70899,0.26048
3550.78027,0.26170
3548.85154,0.26318
3546.92282,0.26457
3544.99410,0.26540
3543.06537,0.26592
3541.13665,0.26678
3539.20793,0.26809
3537.27920,0.26948
3535.35048,0.27077
3533.42175,0.27201
3531.49303,0.27307
3529.56431,0.27389
3527.63558,0.27460
3525.70686,0.27539
3523.77814,0.27626
3521.84941,0.27724
3519.92069,0.27833
3517.99197,0.27938
3516.06324,0.28032
3514.13452,0.28127
3512.20579,0.28219
3510.27707,0.28293
3508.34835,0.28359
3506.41962,0.28443
3504.49090,0.28534
3502.56218,0.28602
3500.63345,0.28657
3498.70473,0.28733
3496.77600,0.28834
3494.84728,0.28931
3492.91856,0.29006
3490.98983,0.29064
3489.06111,0.29121
3487.13239,0.29193
3485.20366,0.29276
3483.27494,0.29349
3481.34622,0.29397
3479.41749,0.29443
3477.48877,0.29511
3475.56004,0.29581
3473.63132,0.29635
3471.70260,0.29691
3469.77387,0.29759
3467.84515,0.29821
3465.91643,0.29862
3463.98770,0.29880
3462.05898,0.29893
3460.13026,0.29933
3458.20153,0.30009
3456.27281,0.30083
3454.34408,0.30136
3452.41536,0.30176
3450.48664,0.30205
3448.55791,0.30227
3446.62919,0.30256
3444.70047,0.30289
3442.77174,0.30319
3440.84302,0.30352
3438.91429,0.30388
3436.98557,0.30425
3435.05685,0.30465
3433.12812,0.30498
3431.19940,0.30521
3429.27068,0.30547
3427.34195,0.30571
3425.41323,0.30588
3423.48451,0.30611
3421.55578,0.30640
3419.62706,0.30664
3417.69833,0.30687
3415.76961,0.30717
3413.84089,0.30740
3411.91216,0.30743
3409.98344,0.30736
3408.05472,0.30727
3406.12599,0.30725
3404.19727,0.30732
3402.26855,0.30737
3400.33982,0.30726
3398.41110,0.30710
3396.48237,0.30715
3394.55365,0.30736
3392.62493,0.30738
3390.69620,0.30721
3388.76748,0.30707
3386.83876,0.30699
3384.91003,0.30693
3382.98131,0.30696
3381.05259,0.30715
3379.12386,0.30727
3377.19514,0.30704
3375.26641,0.30668
3373.33769,0.30653
3371.40897,0.30647
3369.48024,0.30623
3367.55152,0.30588
3365.62280,0.30564
3363.69407,0.30556
3361.76535,0.30546
3359.83662,0.30527
3357.90790,0.30504
3355.97918,0.30467
3354.05045,0.30422
3352.12173,0.30387
3350.19301,0.30356
3348.26428,0.30325
3346.33556,0.30297
3344.40684,0.30273
3342.47811,0.30260
3340.54939,0.30250
3338.62066,0.30220
3336.69194,0.30174
3334.76322,0.30141
3332.83449,0.30126
3330.90577,0.30107
3328.97705,0.30074
3327.04832,0.30029
3325.11960,0.29979
3323.19088,0.29935
3321.26215,0.29906
3319.33343,0.29878
3317.40470,0.29837
3315.47598,0.29799
3313.54726,0.29780
3311.61853,0.29777
3309.68981,0.29762
3307.76109,0.29726
3305.83236,0.29684
3303.90364,0.29639
3301.97491,0.29589
3300.04619,0.29553
3298.11747,0.29533
3296.18874,0.29501
3294.26002,0.29455
3292.33130,0.29409
3290.40257,0.29357
3288.47385,0.29315
3286.54513,0.29291
3284.61640,0.29261
3282.68768,0.29210
3280.75895,0.29152
3278.83023,0.29107
3276.90151,0.29078
3274.97278,0.29049
3273.04406,0.29009
3271.11534,0.28965
3269.18661,0.28923
3267.25789,0.28868
3265.32917,0.28802
3263.40044,0.28747
3261.47172,0.28702
3259.54299,0.28650
3257.61427,0.28597
3255.68555,0.28543
3253.75682,0.28476
3251.82810,0.28403
3249.89938,0.28347
3247.97065,0.28308
3246.04193,0.28262
3244.11320,0.28198
3242.18448,0.28138
3240.25576,0.28092
3238.32703,0.28033
3236.39831,0.27960
3234.46959,0.27899
3232.54086,0.27838
3230.61214,0.27769
3228.68342,0.27713
3226.75469,0.27667
3224.82597,0.27606
3222.89724,0.27525
3220.96852,0.27441
3219.03980,0.27361
3217.11107,0.27283
3215.18235,0.27211
3213.25363,0.27148
3211.32490,0.27081
3209.39618,0.27003
3207.46746,0.26924
3205.53873,0.26856
3203.61001,0.26789
3201.68128,0.26702
3199.75256,0.26596
3197.82384,0.26502
3195.89511,0.26438
3193.96639,0.26382
3192.03767,0.26313
3190.10894,0.26238
3188.18022,0.26156
3186.25149,0.26060
3184.32277,0.25958
3182.39405,0.25856
3180.46532,0.25751
3178.53660,0.25649
3176.60788,0.25550
3174.67915,0.25452
3172.75043,0.25365
3170.82171,0.25281
3168.89298,0.25196
3166.96426,0.25123
3165.03553,0.25045
3163.10681,0.24942
3161.17809,0.24831
3159.24936,0.24732
3157.32064,0.24649
3155.39192,0.24566
3153.46319,0.24472
3151.53447,0.24373
3149.60575,0.24276
3147.67702,0.24183
3145.74830,0.24100
3143.81957,0.24026
3141.89085,0.23940
3139.96213,0.23833
3138.03340,0.23723
3136.10468,0.23627
3134.17596,0.23542
3132.24723,0.23458
3130.31851,0.23370
3128.38978,0.23280
3126.46106,0.23196
3124.53234,0.23118
3122.60361,0.23035
3120.67489,0.22943
3118.74617,0.22847
3116.81744,0.22750
3114.88872,0.22644
3112.96000,0.22529
3111.03127,0.22415
3109.10255,0.22307
3107.17382,0.22204
3105.24510,0.22108
3103.31638,0.22018
3101.38765,0.21926
3099.45893,0.21825
3097.53021,0.21717
3095.60148,0.21606
3093.67276,0.21498
3091.74404,0.21404
3089.81531,0.21319
3087.88659,0.21227
3085.95786,0.21124
3084.02914,0.21019
3082.10042,0.20913
3080.17169,0.20798
3078.24297,0.20675
3076.31425,0.20558
3074.38552,0.20457
3072.45680,0.20367
3070.52807,0.20270
3068.59935,0.20158
3066.67063,0.20041
3064.74190,0.19927
3062.81318,0.19810
3060.88446,0.19699
3058.95573,0.19596
3057.02701,0.19491
3055.09829,0.19376
3053.16956,0.19255
3051.24084,0.19126
3049.31211,0.18998
3047.38339,0.18880
3045.45467,0.18760
3043.52594,0.18637
3041.59722,0.18518
3039.66850,0.18394
3037.73977,0.18247
3035.81105,0.18082
3033.88233,0.17915
3031.95360,0.17754
3030.02488,0.17625
3028.09615,0.17543
3026.16743,0.17484
3024.23871,0.17425
3022.30998,0.17357
3020.38126,0.17205
3018.45254,0.16833
3016.52381,0.16346
3014.59509,0.16172
3012.66636,0.16405
3010.73764,0.16641
3008.80892,0.16652
3006.88019,0.16532
3004.95147,0.16391
3003.02275,0.16265
3001.09402,0.16155
2999.16530,0.16056
2997.23658,0.15975
2995.30785,0.15914
2993.37913,0.15876
2991.45040,0.15856
2989.52168,0.15850
2987.59296,0.15860
2985.66423,0.15886
2983.73551,0.15919
2981.80679,0.15923
2979.87806,0.15781
2977.94934,0.15324
2976.02062,0.14752
2974.09189,0.14691
2972.16317,0.15180
2970.23444,0.15605
2968.30572,0.15738
2966.37700,0.15739
2964.44827,0.15708
2962.51955,0.15664
2960.59083,0.15618
2958.66210,0.15589
2956.73338,0.15581
2954.80466,0.15583
2952.87593,0.15588
2950.94721,0.15591
2949.01848,0.15598
2947.08976,0.15629
2945.16104,0.15689
2943.23231,0.15755
2941.30359,0.15816
2939.37487,0.15879
2937.44614,0.15946
2935.51742,0.16006
2933.58869,0.16052
2931.65997,0.16091
2929.73125,0.16115
2927.80252,0.16102
2925.87380,0.16044
2923.94508,0.15952
2922.01635,0.15817
2920.08763,0.15625
2918.15891,0.15387
2916.23018,0.15137
2914.30146,0.14909
2912.37273,0.14708
2910.44401,0.14518
2908.51529,0.14340
2906.58656,0.14178
2904.65784,0.14029
2902.72912,0.13886
2900.80039,0.13755
2898.87167,0.13632
2896.94295,0.13510
2895.01422,0.13384
2893.08550,0.13258
2891.15677,0.13130
2889.22805,0.13003
2887.29933,0.12884
2885.37060,0.12775
2883.44188,0.12668
2881.51316,0.12563
2879.58443,0.12468
2877.65571,0.12391
2875.72698,0.12321
2873.79826,0.12250
2871.86954,0.12177
2869.94081,0.12100
2868.01209,0.12020
2866.08337,0.11951
2864.15464,0.11906
2862.22592,0.11886
2860.29720,0.11890
2858.36847,0.11915
2856.43975,0.11944
2854.51102,0.11944
2852.58230,0.11877
2850.65358,0.11709
2848.72485,0.11456
2846.79613,0.11175
2844.86741,0.10907
2842.93868,0.10665
2841.00996,0.10453
2839.08124,0.10268
2837.15251,0.10097
2835.22379,0.09931
2833.29506,0.09778
2831.36634,0.09647
2829.43762,0.09533
2827.50889,0.09426
2825.58017,0.09327
2823.65145,0.09233
2821.72272,0.09138
2819.79400,0.09048
2817.86527,0.08956
2815.93655,0.08851
2814.00783,0.08750
2812.07910,0.08673
2810.15038,0.08605
2808.22166,0.08521
2806.29293,0.08426
2804.36421,0.08343
2802.43549,0.08269
2800.50676,0.08196
2798.57804,0.08125
2796.64931,0.08056
2794.72059,0.07982
2792.79187,0.07903
2790.86314,0.07826
2788.93442,0.07752
2787.00570,0.07681
2785.07697,0.07609
2783.14825,0.07538
2781.21953,0.07469
2779.29080,0.07401
2777.36208,0.07330
2775.43335,0.07267
2773.50463,0.07207
2771.57591,0.07132
2769.64718,0.07049
2767.71846,0.06981
2765.78974,0.06926
2763.86101,0.06870
2761.93229,0.06808
2760.00356,0.06743
2758.07484,0.06679
2756.14612,0.06617
2754.21739,0.06556
2752.28867,0.06491
2750.35995,0.06427
2748.43122,0.06370
2746.50250,0.06311
2744.57378,0.06247
2742.64505,0.06188
2740.71633,0.06138
2738.78760,0.06086
2736.85888,0.06025
2734.93016,0.05957
2733.00143,0.05895
2731.07271,0.05846
2729.14399,0.05801
2727.21526,0.05746
2725.28654,0.05684
2723.35782,0.05623
2721.42909,0.05562
2719.50037,0.05496
2717.57164,0.05430
2715.64292,0.05370
2713.71420,0.05313
2711.78547,0.05256
2709.85675,0.05206
2707.92803,0.05161
2705.99930,0.05108
2704.07058,0.05047
2702.14185,0.04987
2700.21313,0.04934
2698.28441,0.04884
2696.35568,0.04830
2694.42696,0.04764
2692.49824,0.04695
2690.56951,0.04642
2688.64079,0.04603
2686.71207,0.04565
2684.78334,0.04526
2682.85462,0.04487
2680.92589,0.04442
2678.99717,0.04392
2677.06845,0.04347
2675.13972,0.04307
2673.21100,0.04258
2671.28228,0.04202
2669.35355,0.04153
2667.42483,0.04113
2665.49611,0.04072
2663.56738,0.04027
2661.63866,0.03976
2659.70993,0.03922
2657.78121,0.03874
2655.85249,0.03830
2653.92376,0.03785
2651.99504,0.03742
2650.06632,0.03710
2648.13759,0.03679
2646.20887,0.03637
2644.28014,0.03593
2642.35142,0.03554
2640.42270,0.03513
2638.49397,0.03464
2636.56525,0.03415
2634.63653,0.03364
2632.70780,0.03316
2630.77908,0.03279
2628.85036,0.03252
2626.92163,0.03220
2624.99291,0.03179
2623.06418,0.03134
2621.13546,0.03086
2619.20674,0.03041
2617.27801,0.03005
2615.34929,0.02970
2613.42057,0.02932
2611.49184,0.02894
2609.56312,0.02855
2607.63440,0.02815
2605.70567,0.02771
2603.77695,0.02729
2601.84822,0.02696
2599.91950,0.02669
2597.99078,0.02641
2596.06205,0.02611
2594.13333,0.02580
2592.20461,0.02547
2590.27588,0.02511
2588.34716,0.02479
2586.41843,0.02452
2584.48971,0.02418
2582.56099,0.02379
2580.63226,0.02348
2578.70354,0.02326
2576.77482,0.02302
2574.84609,0.02274
2572.91737,0.02245
2570.98865,0.02211
2569.05992,0.02171
2567.13120,0.02137
2565.20247,0.02113
2563.27375,0.02096
2561.34503,0.02075
2559.41630,0.02046
2557.48758,0.02014
2555.55886,0.01991
2553.63013,0.01971
2551.70141,0.01944
2549.77269,0.01914
2547.84396,0.01891
2545.91524,0.01872
2543.98651,0.01847
2542.05779,0.01820
2540.12907,0.01796
2538.20034,0.01776
2536.27162,0.01756
2534.34290,0.01734
2532.41417,0.01711
2530.48545,0.01694
2528.55673,0.01677
2526.62800,0.01655
2524.69928,0.01625
2522.77055,0.01597
2520.84183,0.01577
2518.91311,0.01563
2516.98438,0.01547
2515.05566,0.01526
2513.12694,0.01502
2511.19821,0.01479
2509.26949,0.01455
2507.34076,0.01423
2505.41204,0.01389
2503.48332,0.01365
2501.55459,0.01351
2499.62587,0.01340
2497.69715,0.01326
2495.76842,0.01307
2493.83970,0.01286
2491.91098,0.01264
2489.98225,0.01247
2488.05353,0.01237
2486.12480,0.01224
2484.19608,0.01202
2482.26736,0.01176
2480.33863,0.01157
2478.40991,0.01142
2476.48119,0.01123
2474.55246,0.01099
2472.62374,0.01077
2470.69502,0.01059
2468.76629,0.01044
2466.83757,0.01026
2464.90884,0.01006
2462.98012,0.00983
2461.05140,0.00965
2459.12267,0.00953
2457.19395,0.00941
2455.26523,0.00925
2453.33650,0.00903
2451.40778,0.00881
2449.47905,0.00867
2447.55033,0.00858
2445.62161,0.00846
2443.69288,0.00826
2441.76416,0.00802
2439.83544,0.00782
2437.90671,0.00766
2435.97799,0.00748
2434.04927,0.00730
2432.12054,0.00718
2430.19182,0.00705
2428.26309,0.00682
2426.33437,0.00656
2424.40565,0.00634
2422.47692,0.00618
2420.54820,0.00607
2418.61948,0.00600
2416.69075,0.00592
2414.76203,0.00583
2412.83331,0.00574
2410.90458,0.00564
2408.97586,0.00547
2407.04713,0.00524
2405.11841,0.00505
2403.18969,0.00494
2401.26096,0.00485
2399.33224,0.00471
2397.40352,0.00452
2395.47479,0.00435
2393.54607,0.00425
2391.61734,0.00417
2389.68862,0.00408
2387.75990,0.00397
2385.83117,0.00387
2383.90245,0.00384
2381.97373,0.00394
2380.04500,0.00411
2378.11628,0.00421
2376.18756,0.00421
2374.25883,0.00416
2372.33011,0.00408
2370.40138,0.00398
2368.47266,0.00387
2366.54394,0.00382
2364.61521,0.00386
2362.68649,0.00389
2360.75777,0.00376
2358.82904,0.00350
2356.90032,0.00326
2354.97160,0.00300
2353.04287,0.00269
2351.11415,0.00256
2349.18542,0.00278
2347.25670,0.00314
2345.32798,0.00329
2343.39925,0.00323
2341.47053,0.00310
2339.54181,0.00295
2337.61308,0.00281
2335.68436,0.00271
2333.75563,0.00263
2331.82691,0.00255
2329.89819,0.00242
2327.96946,0.00218
2326.04074,0.00191
2324.11202,0.00177
2322.18329,0.00179
2320.25457,0.00182
2318.32585,0.00175
2316.39712,0.00162
2314.46840,0.00149
2312.53967,0.00140
2310.61095,0.00132
2308.68223,0.00124
2306.75350,0.00119
2304.82478,0.00114
2302.89606,0.00108
2300.96733,0.00103
2299.03861,0.00104
2297.10989,0.00104
2295.18116,0.00099
2293.25244,0.00089
2291.32371,0.00080
2289.39499,0.00070
2287.46627,0.00061
2285.53754,0.00048
2283.60882,0.00036
2281.68010,0.00029
2279.75137,0.00029
2277.82265,0.00034
2275.89392,0.00039
2273.96520,0.00039
2272.03648,0.00035
2270.10775,0.00027
2268.17903,0.00015
2266.25031,0.00001
2264.32158,-0.00006
2262.39286,0.00000
2260.46414,0.00007
2258.53541,0.00008
2256.60669,0.00003
2254.67796,-0.00003
2252.74924,-0.00007
2250.82052,-0.00007
2248.89179,-0.00005
2246.96307,-0.00005
2245.03435,-0.00006
2243.10562,-0.00008
2241.17690,-0.00010
2239.24818,-0.00015
2237.31945,-0.00020
2235.39073,-0.00027
2233.46200,-0.00035
2231.53328,-0.00039
2229.60456,-0.00038
2227.67583,-0.00040
2225.74711,-0.00043
2223.81839,-0.00040
2221.88966,-0.00027
2219.96094,-0.00012
2218.03221,-0.00005
2216.10349,-0.00006
2214.17477,-0.00004
2212.24604,-0.00001
2210.31732,-0.00001
2208.38860,-0.00002
2206.45987,0.00000
2204.53115,0.00003
2202.60243,0.00004
2200.67370,0.00000
2198.74498,-0.00001
2196.81625,0.00004
2194.88753,0.00012
2192.95881,0.00022
2191.03008,0.00030
2189.10136,0.00028
2187.17264,0.00023
2185.24391,0.00025
2183.31519,0.00034
2181.38647,0.00042
2179.45774,0.00049
2177.52902,0.00052
2175.60029,0.00050
2173.67157,0.00050
2171.74285,0.00056
2169.81412,0.00056
2167.88540,0.00050
2165.95668,0.00049
2164.02795,0.00057
2162.09923,0.00067
2160.17050,0.00064
2158.24178,0.00052
2156.31306,0.00046
2154.38433,0.00046
2152.45561,0.00045
2150.52689,0.00049
2148.59816,0.00059
2146.66944,0.00061
2144.74072,0.00058
2142.81199,0.00054
2140.88327,0.00054
2138.95454,0.00055
2137.02582,0.00051
2135.09710,0.00043
2133.16837,0.00041
2131.23965,0.00046
2129.31093,0.00052
2127.38220,0.00052
2125.45348,0.00045
2123.52476,0.00035
2121.59603,0.00032
2119.66731,0.00036
2117.73858,0.00040
2115.80986,0.00046
2113.88114,0.00050
2111.95241,0.00049
2110.02369,0.00047
2108.09497,0.00049
2106.16624,0.00052
2104.23752,0.00054
2102.30880,0.00050
2100.38007,0.00041
2098.45135,0.00030
2096.52262,0.00019
2094.59390,0.00009
2092.66518,0.00000
2090.73645,-0.00008
2088.80773,-0.00010
2086.87901,-0.00010
2084.95028,-0.00009
2083.02156,-0.00007
2081.09283,-0.00007
2079.16411,-0.00013
2077.23539,-0.00021
2075.30666,-0.00028
2073.37794,-0.00028
2071.44922,-0.00022
2069.52049,-0.00019
2067.59177,-0.00021
2065.66305,-0.00022
2063.73432,-0.00023
2061.80560,-0.00021
2059.87687,-0.00018
2057.94815,-0.00013
2056.01943,-0.00004
2054.09070,0.00008
2052.16198,0.00017
2050.23326,0.00020
2048.30453,0.00022
2046.37581,0.00034
2044.44709,0.00051
2042.51836,0.00060
2040.58964,0.00060
2038.66091,0.00063
2036.73219,0.00069
2034.80347,0.00077
2032.87474,0.00087
2030.94602,0.00099
2029.01730,0.00114
2027.08857,0.00131
2025.15985,0.00150
2023.23112,0.00169
2021.30240,0.00183
2019.37368,0.00190
2017.44495,0.00189
2015.51623,0.00187
2013.58751,0.00194
2011.65878,0.00208
2009.73006,0.00215
2007.80134,0.00214
2005.87261,0.00209
2003.94389,0.00207
2002.01516,0.00213
2000.08644,0.00224
1998.15772,0.00233
1996.22899,0.00239
1994.30027,0.00241
1992.37155,0.00236
1990.44282,0.00231
1988.51410,0.00234
1986.58538,0.00239
1984.65665,0.00241
1982.72793,0.00240
1980.79920,0.00237
1978.87048,0.00231
1976.94176,0.00223
1975.01303,0.00216
1973.08431,0.00216
1971.15559,0.00218
1969.22686,0.00209
1967.29814,0.00184
1965.36941,0.00156
1963.44069,0.00141
1961.51197,0.00133
1959.58324,0.00123
1957.65452,0.00111
1955.72580,0.00096
1953.79707,0.00083
1951.86835,0.00075
1949.93963,0.00068
1948.01090,0.00058
1946.08218,0.00048
1944.15345,0.00033
1942.22473,0.00013
1940.29601,0.00001
1938.36728,0.00001
1936.43856,0.00001
1934.50984,-0.00003
1932.58111,-0.00008
1930.65239,-0.00012
1928.72367,-0.00011
1926.79494,0.00000
1924.86622,0.00010
1922.93749,0.00014
1921.00877,0.00017
1919.08005,0.00024
1917.15132,0.00033
1915.22260,0.00055
1913.29388,0.00092
1911.36515,0.00131
1909.43643,0.00166
1907.50770,0.00203
1905.57898,0.00245
1903.65026,0.00292
1901.72153,0.00342
1899.79281,0.00394
1897.86409,0.00438
1895.93536,0.00476
1894.00664,0.00522
1892.07792,0.00582
1890.14919,0.00629
1888.22047,0.00657
1886.29174,0.00684
1884.36302,0.00717
1882.43430,0.00750
1880.50557,0.00782
1878.57685,0.00808
1876.64813,0.00819
1874.71940,0.00824
1872.79068,0.00837
1870.86196,0.00841
1868.93323,0.00808
1867.00451,0.00755
1865.07578,0.00723
1863.14706,0.00703
1861.21834,0.00671
1859.28961,0.00621
1857.36089,0.00564
1855.43217,0.00513
1853.50344,0.00467
1851.57472,0.00427
1849.64599,0.00398
1847.71727,0.00371
1845.78855,0.00324
1843.85982,0.00248
1841.93110,0.00190
1840.00238,0.00172
1838.07365,0.00161
1836.14493,0.00142
1834.21621,0.00128
1832.28748,0.00116
1830.35876,0.00080
1828.43003,0.00036
1826.50131,0.00013
1824.57259,0.00000
1822.64386,-0.00012
1820.71514,-0.00012
1818.78642,-0.00010
1816.85769,-0.00008
1814.92897,0.00000
1813.00025,-0.00002
1811.07152,-0.00011
1809.14280,-0.00016
1807.21407,-0.00003
1805.28535,0.00024
1803.35663,0.00049
1801.42790,0.00064
1799.49918,0.00081
1797.57046,0.00121
1795.64173,0.00181
1793.71301,0.00235
1791.78428,0.00276
1789.85556,0.00332
1787.92684,0.00414
1785.99811,0.00501
1784.06939,0.00582
1782.14067,0.00663
1780.21194,0.00747
1778.28322,0.00839
1776.35450,0.00944
1774.42577,0.01051
1772.49705,0.01138
1770.56832,0.01213
1768.63960,0.01303
1766.71088,0.01414
1764.78215,0.01532
1762.85343,0.01637
1760.92471,0.01728
1758.99598,0.01821
1757.06726,0.01925
1755.13854,0.02033
1753.20981,0.02144
1751.28109,0.02256
1749.35236,0.02369
1747.42364,0.02495
1745.49492,0.02643
1743.56619,0.02808
1741.63747,0.02978
1739.70875,0.03148
1737.78002,0.03325
1735.85130,0.03514
1733.92257,0.03711
1731.99385,0.03901
1730.06513,0.04083
1728.13640,0.04269
1726.20768,0.04457
1724.27896,0.04650
1722.35023,0.04849
1720.42151,0.05049
1718.49279,0.05238
1716.56406,0.05418
1714.63534,0.05609
1712.70661,0.05822
1710.77789,0.06054
1708.84917,0.06300
1706.92044,0.06567
1704.99172,0.06849
1703.06300,0.07135
1701.13427,0.07449
1699.20555,0.07795
1697.27683,0.08149
1695.34810,0.08520
1693.41938,0.08884
1691.49065,0.09230
1689.56193,0.09588
1687.63321,0.09952
1685.70448,0.10331
1683.77576,0.10750
1681.84704,0.11150
1679.91831,0.11506
1677.98959,0.11850
1676.06087,0.12207
1674.13214,0.12564
1672.20342,0.12899
1670.27469,0.13228
1668.34597,0.13555
1666.41725,0.13851
1664.48852,0.14124
1662.55980,0.14391
1660.63108,0.14638
1658.70235,0.14858
1656.77363,0.15049
1654.84490,0.15204
1652.91618,0.15326
1650.98746,0.15450
1649.05873,0.15584
1647.13001,0.15702
1645.20129,0.15802
1643.27256,0.15905
1641.34384,0.16006
1639.41512,0.16081
1637.48639,0.16097
1635.55767,0.16049
1633.62894,0.16003
1631.70022,0.15991
1629.77150,0.15953
1627.84277,0.15857
1625.91405,0.15722
1623.98533,0.15548
1622.05660,0.15347
1620.12788,0.15162
1618.19916,0.14940
1616.27043,0.14628
1614.34171,0.14336
1612.41298,0.14124
1610.48426,0.13917
1608.55554,0.13667
1606.62681,0.13388
1604.69809,0.13107
1602.76937,0.12831
1600.84064,0.12574
1598.91192,0.12342
1596.98319,0.12122
1595.05447,0.11897
1593.12575,0.11673
1591.19702,0.11462
1589.26830,0.11256
1587.33958,0.11043
1585.41085,0.10824
1583.48213,0.10614
1581.55341,0.10434
1579.62468,0.10280
1577.69596,0.10105
1575.76723,0.09899
1573.83851,0.09760
1571.90979,0.09698
1569.98106,0.09617
1568.05234,0.09502
1566.12362,0.09416
1564.19489,0.09379
1562.26617,0.09372
1560.33745,0.09305
1558.40872,0.09110
1556.48000,0.08947
1554.55127,0.08884
1552.62255,0.08833
1550.69383,0.08747
1548.76510,0.08635
1546.83638,0.08525
1544.90766,0.08405
1542.97893,0.08225
1541.05021,0.07946
1539.12148,0.07663
1537.19276,0.07534
1535.26404,0.07471
1533.33531,0.07340
1531.40659,0.07180
1529.47787,0.07051
1527.54914,0.06904
1525.62042,0.06715
1523.69170,0.06508
1521.76297,0.06269
1519.83425,0.06029
1517.90552,0.05819
1515.97680,0.05610
1514.04808,0.05422
1512.11935,0.05272
1510.19063,0.05113
1508.26191,0.04826
1506.33318,0.04386
1504.40446,0.04063
1502.47574,0.03923
1500.54701,0.03802
1498.61829,0.03602
1496.68956,0.03355
1494.76084,0.03169
1492.83212,0.03076
1490.90339,0.02992
1488.97467,0.02872
1487.04595,0.02781
1485.11722,0.02759
1483.18850,0.02780
1481.25977,0.02825
1479.33105,0.02897
1477.40233,0.03001
1475.47360,0.03143
1473.54488,0.03344
1471.61616,0.03602
1469.68743,0.03860
1467.75871,0.04074
1465.82999,0.04243
1463.90126,0.04377
1461.97254,0.04484
1460.04381,0.04560
1458.11509,0.04607
1456.18637,0.04669
1454.25764,0.04766
1452.32892,0.04853
1450.40020,0.04902
1448.47147,0.04920
1446.54275,0.04928
1444.61403,0.04937
1442.68530,0.04940
1440.75658,0.04931
1438.82785,0.04893
1436.89913,0.04808
1434.97041,0.04712
1433.04168,0.04653
1431.11296,0.04602
1429.18424,0.04538
1427.25551,0.04496
1425.32679,0.04509
1423.39806,0.04582
1421.46934,0.04695
1419.54062,0.04805
1417.61189,0.04845
1415.68317,0.04762
1413.75445,0.04638
1411.82572,0.04694
1409.89700,0.04967
1407.96828,0.05222
1406.03955,0.05309
1404.11083,0.05283
1402.18210,0.05236
1400.25338,0.05194
1398.32466,0.05150
1396.39593,0.05111
1394.46721,0.05087
1392.53849,0.05085
1390.60976,0.05092
1388.68104,0.05065
1386.75232,0.04988
1384.82359,0.04900
1382.89487,0.04835
1380.96614,0.04777
1379.03742,0.04699
1377.10870,0.04581
1375.17997,0.04408
1373.25125,0.04198
1371.32253,0.04017
1369.39380,0.03900
1367.46508,0.03832
1365.53635,0.03772
1363.60763,0.03681
1361.67891,0.03570
1359.75018,0.03488
1357.82146,0.03443
1355.89274,0.03414
1353.96401,0.03391
1352.03529,0.03376
1350.10657,0.03362
1348.17784,0.03346
1346.24912,0.03335
1344.32039,0.03336
1342.39167,0.03339
1340.46295,0.03330
1338.53422,0.03311
1336.60550,0.03297
1334.67678,0.03300
1332.74805,0.03313
1330.81933,0.03320
1328.89061,0.03317
1326.96188,0.03315
1325.03316,0.03324
1323.10443,0.03342
1321.17571,0.03360
1319.24699,0.03373
1317.31826,0.03386
1315.38954,0.03410
1313.46082,0.03444
1311.53209,0.03478
1309.60337,0.03510
1307.67464,0.03546
1305.74592,0.03599
1303.81720,0.03677
1301.88847,0.03773
1299.95975,0.03881
1298.03103,0.04007
1296.10230,0.04149
1294.17358,0.04300
1292.24486,0.04464
1290.31613,0.04651
1288.38741,0.04860
1286.45868,0.05084
1284.52996,0.05318
1282.60124,0.05577
1280.67251,0.05877
1278.74379,0.06223
1276.81507,0.06611
1274.88634,0.07031
1272.95762,0.07478
1271.02890,0.07972
1269.10017,0.08528
1267.17145,0.09153
1265.24272,0.09847
1263.31400,0.10628
1261.38528,0.11518
1259.45655,0.12503
1257.52783,0.13554
1255.59911,0.14664
1253.67038,0.15824
1251.74166,0.17000
1249.81294,0.18141
1247.88421,0.19216
1245.95549,0.20224
1244.02676,0.21169
1242.09804,0.22033
1240.16932,0.22814
1238.24059,0.23535
1236.31187,0.24186
1234.38315,0.24766
1232.45442,0.25297
1230.52570,0.25777
1228.59697,0.26201
1226.66825,0.26593
1224.73953,0.26969
1222.81080,0.27321
1220.88208,0.27651
1218.95336,0.27961
1217.02463,0.28241
1215.09591,0.28498
1213.16719,0.28750
1211.23846,0.29010
1209.30974,0.29264
1207.38101,0.29503
1205.45229,0.29730
1203.52357,0.29949
1201.59484,0.30165
1199.66612,0.30382
1197.73740,0.30585
1195.80867,0.30753
1193.87995,0.30906
1191.95123,0.31086
1190.02250,0.31300
1188.09378,0.31525
1186.16505,0.31719
1184.23633,0.31882
1182.30761,0.32064
1180.37888,0.32283
1178.45016,0.32512
1176.52144,0.32719
1174.59271,0.32853
1172.66399,0.32913
1170.73526,0.33047
1168.80654,0.33301
1166.87782,0.33500
1164.94909,0.33614
1163.02037,0.33756
1161.09165,0.33892
1159.16292,0.33967
1157.23420,0.34032
1155.30548,0.34088
1153.37675,0.34053
1151.44803,0.33835
1149.51930,0.33288
1147.59058,0.32197
1145.66186,0.30511
1143.73313,0.28462
1141.80441,0.26448
1139.87569,0.25212
1137.94696,0.25357
1136.01824,0.26424
1134.08952,0.27719
1132.16079,0.29030
1130.23207,0.30312
1128.30334,0.31612
1126.37462,0.33028
1124.44590,0.34534
1122.51717,0.35995
1120.58845,0.37341
1118.65973,0.38574
1116.73100,0.39700
1114.80228,0.40715
1112.87355,0.41633
1110.94483,0.42486
1109.01611,0.43312
1107.08738,0.44110
1105.15866,0.44821
1103.22994,0.45439
1101.30121,0.46013
1099.37249,0.46502
1097.44377,0.46853
1095.51504,0.47106
1093.58632,0.47258
1091.65759,0.47308
1089.72887,0.47327
1087.80015,0.47268
1085.87142,0.47100
1083.94270,0.46926
1082.01398,0.46745
1080.08525,0.46457
1078.15653,0.46100
1076.22781,0.45796
1074.29908,0.45516
1072.37036,0.45161
1070.44163,0.44732
1068.51291,0.44254
1066.58419,0.43707
1064.65546,0.43074
1062.72674,0.42441
1060.79802,0.41885
1058.86929,0.41324
1056.94057,0.40677
1055.01184,0.40000
1053.08312,0.39336
1051.15440,0.38643
1049.22567,0.37893
1047.29695,0.37122
1045.36823,0.36376
1043.43950,0.35626
1041.51078,0.34832
1039.58206,0.34057
1037.65333,0.33336
1035.72461,0.32611
1033.79588,0.31846
1031.86716,0.31072
1029.93844,0.30335
1028.00971,0.29633
1026.08099,0.28945
1024.15227,0.28274
1022.22354,0.27632
1020.29482,0.27032
1018.36610,0.26472
1016.43737,0.25941
1014.50865,0.25460
1012.57992,0.25042
1010.65120,0.24664
1008.72248,0.24283
1006.79375,0.23876
1004.86503,0.23471
1002.93631,0.23088
1001.00758,0.22717
999.07886,0.22378
997.15013,0.22084
995.22141,0.21819
993.29269,0.21551
991.36396,0.21267
989.43524,0.21002
987.50652,0.20776
985.57779,0.20562
983.64907,0.20358
981.72035,0.20183
979.79162,0.20027
977.86290,0.19876
975.93417,0.19738
974.00545,0.19624
972.07673,0.19525
970.14800,0.19435
968.21928,0.19355
966.29056,0.19252
964.36183,0.19087
962.43311,0.18883
960.50439,0.18671
958.57566,0.18461
956.64694,0.18276
954.71821,0.18129
952.78949,0.18004
950.86077,0.17898
948.93204,0.17802
947.00332,0.17649
945.07460,0.17406
943.14587,0.17166
941.21715,0.16957
939.28842,0.16704
937.35970,0.16448
935.43098,0.16246
933.50225,0.16068
931.57353,0.15861
929.64481,0.15585
927.71608,0.15283
925.78736,0.15022
923.85864,0.14790
921.92991,0.14560
920.00119,0.14315
918.07246,0.14039
916.14374,0.13733
914.21502,0.13413
912.28629,0.13080
910.35757,0.12740
908.42885,0.12412
906.50012,0.12085
904.57140,0.11719
902.64268,0.11332
900.71395,0.10964
898.78523,0.10597
896.85650,0.10232
894.92778,0.09909
892.99906,0.09602
891.07033,0.09263
889.14161,0.08901
887.21289,0.08547
885.28416,0.08214
883.35544,0.07925
881.42671,0.07712
879.49799,0.07557
877.56927,0.07389
875.64054,0.07179
873.71182,0.06970
871.78310,0.06760
869.85437,0.06502
867.92565,0.06262
865.99693,0.06131
864.06820,0.06043
862.13948,0.05930
860.21075,0.05807
858.28203,0.05689
856.35331,0.05595
854.42458,0.05529
852.49586,0.05483
850.56714,0.05458
848.63841,0.05470
846.70969,0.05544
844.78097,0.05685
842.85224,0.05870
840.92352,0.06068
838.99479,0.06288
837.06607,0.06560
835.13735,0.06878
833.20862,0.07211
831.27990,0.07560
829.35118,0.07930
827.42245,0.08285
825.49373,0.08628
823.56501,0.08991
821.63628,0.09337
819.70756,0.09627
817.77883,0.09915
815.85011,0.10256
813.92139,0.10614
811.99266,0.10912
810.06394,0.11133
808.13522,0.11344
806.20649,0.11585
804.27777,0.11811
802.34904,0.11991
800.42032,0.12129
798.49160,0.12184
796.56287,0.12143
794.63415,0.12050
792.70543,0.11937
790.77670,0.11810
788.84798,0.11660
786.91926,0.11470
784.99053,0.11220
783.06181,0.10908
781.13308,0.10555
779.20436,0.10160
777.27564,0.09725
775.34691,0.09285
773.41819,0.08898
771.48947,0.08586
769.56074,0.08337
767.63202,0.08158
765.70330,0.08034
763.77457,0.07915
761.84585,0.07796
759.91712,0.07702
757.98840,0.07644
756.05968,0.07618
754.13095,0.07611
752.20223,0.07613
750.27351,0.07615
748.34478,0.07602
746.41606,0.07590
744.48733,0.07608
742.55861,0.07632
740.62989,0.07621
738.70116,0.07597
736.77244,0.07603
734.84372,0.07614
732.91499,0.07604
730.98627,0.07617
729.05755,0.07676
727.12882,0.07754
725.20010,0.07834
723.27137,0.07876
721.34265,0.07869
719.41393,0.07857
717.48520,0.07879
715.55648,0.07928
713.62776,0.07984
711.69903,0.08046
709.77031,0.08143
707.84159,0.08289
705.91286,0.08434
703.98414,0.08532
702.05541,0.08607
700.12669,0.08706
698.19797,0.08840
696.26924,0.08981
694.34052,0.09091
692.41180,0.09152
690.48307,0.09173
688.55435,0.09184
686.62562,0.09210
684.69690,0.09262
682.76818,0.09327
680.83945,0.09374
678.91073,0.09381
676.98201,0.09383
675.05328,0.09416
673.12456,0.09465
671.19584,0.09520
669.26711,0.09578
667.33839,0.09624
665.40966,0.09660
663.48094,0.09725
661.55222,0.09848
659.62349,0.09996
657.69477,0.10087
655.76605,0.10109
653.83732,0.10146
651.90860,0.10264
649.97988,0.10447
648.05115,0.10650
646.12243,0.10843
644.19370,0.11013
642.26498,0.11151
640.33626,0.11283
638.40753,0.11445
636.47881,0.11615
634.55009,0.11724
632.62136,0.11738
630.69264,0.11715
628.76391,0.11746
626.83519,0.11853
624.90647,0.11986
622.97774,0.12144
621.04902,0.12338
619.12030,0.12515
617.19157,0.12606
615.26285,0.12648
613.33413,0.12704
611.40540,0.12789
609.47668,0.12921
607.54795,0.13105
605.61923,0.13319
603.69051,0.13520
601.76178,0.13677
599.83306,0.13830
597.90434,0.14030
595.97561,0.14258
594.04689,0.14445
592.11817,0.14546
590.18944,0.14601
588.26072,0.14668
586.33199,0.14735
584.40327,0.14813
582.47455,0.14992
580.54582,0.15229
578.61710,0.15356
576.68838,0.15371
574.75965,0.15409
572.83093,0.15448
570.90220,0.15381
568.97348,0.15320
567.04476,0.15448
565.11603,0.15645
563.18731,0.15722
561.25859,0.15752
559.32986,0.15792
557.40114,0.15768
555.47242,0.15717
553.54369,0.15728
551.61497,0.15793
549.68624,0.15926
547.75752,0.16136
545.82880,0.16276
543.90007,0.16301
541.97135,0.16360
540.04263,0.16401
538.11390,0.16251
536.18518,0.16014
534.25646,0.15909
532.32773,0.15948
530.39901,0.15993
528.47028,0.15970
526.54156,0.15933
524.61284,0.15969
522.68411,0.16100
520.75539,0.16303
518.82667,0.16507
516.89794,0.16608
514.96922,0.16639
513.04049,0.16781
511.11177,0.17122
509.18305,0.17506
507.25432,0.17727
505.32560,0.17909
503.39688,0.18389
501.46815,0.19199
499.53943,0.20071
497.61071,0.20894
495.68198,0.21678
493.75326,0.22375
491.82453,0.23021
489.89581,0.23735
487.96709,0.24509
486.03836,0.25213
484.10964,0.25816
482.18092,0.26516
480.25219,0.27479
478.32347,0.28504
476.39475,0.29207
474.46602,0.29546
472.53730,0.29859
470.60857,0.30373
468.67985,0.30830
466.75113,0.30939
464.82240,0.30852
462.89368,0.30800
460.96496,0.30699
459.03623,0.30344
457.10751,0.29788
455.17878,0.29317
453.25006,0.28841
451.32134,0.28107
449.39261,0.27385
447.46389,0.26913
445.53517,0.26392
443.60644,0.25657
441.67772,0.24970
439.74900,0.24511
437.82027,0.24110
435.89155,0.23471
433.96282,0.22619
432.03410,0.21935
430.10538,0.21570
428.17665,0.21106
426.24793,0.20124
424.31921,0.18891
422.39048,0.18002
420.46176,0.17657
418.53304,0.17504
416.60431,0.16959
414.67559,0.15957
412.74686,0.14884
410.81814,0.14077
408.88942,0.13677
406.96069,0.13716
405.03197,0.14103
403.10325,0.14574
401.17452,0.14726
399.24580,0.14243
397.31708,0.13422
395.38835,0.13030
393.45963,0.12854
391.53090,0.11794
389.60218,0.09814
387.67346,0.08572
385.74473,0.09302
383.81601,0.10879
381.88729,0.11109
379.95856,0.09690
378.02984,0.07622
376.10111,0.05018
374.17239,0.01814
372.24367,0.00000
370.31494,-0.01107
368.38622,0.00000
