3996.31543,0.00000
3994.38671,0.00008
3992.45799,0.00011
3990.52926,0.00023
3988.60054,0.00042
3986.67182,0.00051
3984.74309,0.00046
3982.81437,0.00036
3980.88564,0.00032
3978.95692,0.00037
3977.02820,0.00053
3975.09947,0.00074
3973.17075,0.00087
3971.24203,0.00090
3969.31330,0.00093
3967.38458,0.00099
3965.45586,0.00096
3963.52713,0.00080
3961.59841,0.00062
3959.66968,0.00053
3957.74096,0.00057
3955.81224,0.00067
3953.88351,0.00085
3951.95479,0.00107
3950.02607,0.00109
3948.09734,0.00090
3946.16862,0.00076
3944.23990,0.00074
3942.31117,0.00064
3940.38245,0.00046
3938.45372,0.00046
3936.52500,0.00072
3934.59628,0.00100
3932.66755,0.00103
3930.73883,0.00094
3928.81011,0.00101
3926.88138,0.00115
3924.95266,0.00108
3923.02393,0.00090
3921.09521,0.00084
3919.16649,0.00072
3917.23776,0.00039
3915.30904,0.00012
3913.38032,0.00017
3911.45159,0.00039
3909.52287,0.00068
3907.59415,0.00098
3905.66542,0.00109
3903.73670,0.00091
3901.80797,0.00063
3899.87925,0.00037
3897.95053,0.00021
3896.02180,0.00038
3894.09308,0.00076
3892.16436,0.00084
3890.23563,0.00069
3888.30691,0.00078
3886.37819,0.00091
3884.44946,0.00076
3882.52074,0.00056
3880.59201,0.00041
3878.66329,0.00035
3876.73457,0.00052
3874.80584,0.00070
3872.87712,0.00074
3870.94840,0.00068
3869.01967,0.00060
3867.09095,0.00068
3865.16222,0.00076
3863.23350,0.00058
3861.30478,0.00048
3859.37605,0.00076
3857.44733,0.00135
3855.51861,0.00177
3853.58988,0.00132
3851.66116,0.00035
3849.73244,0.00000
3847.80371,0.00022
3845.87499,0.00060
3843.94626,0.00098
3842.01754,0.00126
3840.08882,0.00123
3838.16009,0.00081
3836.23137,0.00047
3834.30265,0.00053
3832.37392,0.00070
3830.44520,0.00078
3828.51648,0.00087
3826.58775,0.00101
3824.65903,0.00127
3822.73030,0.00151
3820.80158,0.00146
3818.87286,0.00141
3816.94413,0.00148
3815.01541,0.00132
3813.08669,0.00121
3811.15796,0.00148
3809.22924,0.00186
3807.30052,0.00202
3805.37179,0.00213
3803.44307,0.00225
3801.51434,0.00212
3799.58562,0.00195
3797.65690,0.00201
3795.72817,0.00213
3793.79945,0.00230
3791.87073,0.00260
3789.94200,0.00295
3788.01328,0.00328
3786.08455,0.00363
3784.15583,0.00396
3782.22711,0.00422
3780.29838,0.00428
3778.36966,0.00423
3776.44094,0.00438
3774.51221,0.00490
3772.58349,0.00558
3770.65477,0.00605
3768.72604,0.00622
3766.79732,0.00638
3764.86859,0.00675
3762.93987,0.00738
3761.01115,0.00808
3759.08242,0.00865
3757.15370,0.00923
3755.22498,0.01007
3753.29625,0.01093
3751.36753,0.01141
3749.43881,0.01175
3747.51008,0.01260
3745.58136,0.01383
3743.65263,0.01484
3741.72391,0.01567
3739.79519,0.01669
3737.86646,0.01781
3735.93774,0.01895
3734.00902,0.02037
3732.08029,0.02223
3730.15157,0.02417
3728.22284,0.02602
3726.29412,0.02792
3724.36540,0.03001
3722.43667,0.03235
3720.50795,0.03492
3718.57923,0.03766
3716.65050,0.04047
3714.72178,0.04341
3712.79306,0.04665
3710.86433,0.05023
3708.93561,0.05390
3707.00688,0.05743
3705.07816,0.06094
3703.14944,0.06475
3701.22071,0.06893
3699.29199,0.07304
3697.36327,0.07677
3695.43454,0.08036
3693.50582,0.08408
3691.57710,0.08805
3689.64837,0.09228
3687.71965,0.09654
3685.79092,0.10067
3683.86220,0.10483
3681.93348,0.10908
3680.00475,0.11324
3678.07603,0.11755
3676.14731,0.12259
3674.21858,0.12787
3672.28986,0.13251
3670.36113,0.13725
3668.43241,0.14229
3666.50369,0.14672
3664.57496,0.15055
3662.64624,0.15426
3660.71752,0.15799
3658.78879,0.16180
3656.86007,0.16580
3654.93135,0.16966
3653.00262,0.17299
3651.07390,0.17619
3649.14517,0.17979
3647.21645,0.18345
3645.28773,0.18659
3643.35900,0.18940
3641.43028,0.19230
3639.50156,0.19533
3637.57283,0.19834
3635.64411,0.20122
3633.71539,0.20389
3631.78666,0.20636
3629.85794,0.20888
3627.92921,0.21152
3626.00049,0.21399
3624.07177,0.21632
3622.14304,0.21867
3620.21432,0.22095
3618.28560,0.22289
3616.35687,0.22455
3614.42815,0.22624
3612.49942,0.22805
3610.57070,0.22990
3608.64198,0.23171
3606.71325,0.23348
3604.78453,0.23512
3602.85581,0.23668
3600.92708,0.23835
3598.99836,0.24011
3597.06964,0.24181
3595.14091,0.24345
3593.21219,0.24508
3591.28346,0.24657
3589.35474,0.24795
3587.42602,0.24954
3585.49729,0.25130
3583.56857,0.25286
3581.63985,0.25416
3579.71112,0.25546
3577.78240,0.25688
3575.85368,0.25828
3573.92495,0.25961
3571.99623,0.26086
3570.06750,0.26198
3568.13878,0.26302
3566.21006,0.26425
3564.28133,0.26573
3562.35261,0.26718
3560.42389,0.26846
3558.49516,0.26957
3556.56644,0.27059
3554.63771,0.27168
3552.70899,0.27290
3550.78027,0.27408
3548.85154,0.27515
3546.92282,0.27622
3544.99410,0.27743
3543.06537,0.27873
3541.13665,0.27987
3539.20793,0.28077
3537.27920,0.28172
3535.35048,0.28285
3533.42175,0.28398
3531.49303,0.28500
3529.56431,0.28595
3527.63558,0.28681
3525.70686,0.28760
3523.77814,0.28837
3521.84941,0.28928
3519.92069,0.29042
3517.99197,0.29161
3516.06324,0.29266
3514.13452,0.29350
3512.20579,0.29423
3510.27707,0.29499
3508.34835,0.29586
3506.41962,0.29672
3504.49090,0.29747
3502.56218,0.29825
3500.63345,0.29911
3498.70473,0.29989
3496.77600,0.30049
3494.84728,0.30103
3492.91856,0.30164
3490.98983,0.30226
3489.06111,0.30282
3487.13239,0.30344
3485.20366,0.30426
3483.27494,0.30511
3481.34622,0.30572
3479.41749,0.30624
3477.48877,0.30694
3475.56004,0.30763
3473.63132,0.30820
3471.70260,0.30894
3469.77387,0.30993
3467.84515,0.31074
3465.91643,0.31116
3463.98770,0.31142
3462.05898,0.31163
3460.13026,0.31175
3458.20153,0.31203
3456.27281,0.31250
3454.34408,0.31288
3452.41536,0.31313
3450.48664,0.31344
3448.55791,0.31389
3446.62919,0.31446
3444.70047,0.31506
3442.77174,0.31552
3440.84302,0.31578
3438.91429,0.31600
3436.98557,0.31630
3435.05685,0.31670
3433.12812,0.31708
3431.19940,0.31726
3429.27068,0.31721
3427.34195,0.31723
3425.41323,0.31754
3423.48451,0.31800
3421.55578,0.31836
3419.62706,0.31868
3417.69833,0.31897
3415.76961,0.31908
3413.84089,0.31907
3411.91216,0.31900
3409.98344,0.31890
3408.05472,0.31896
3406.12599,0.31920
3404.19727,0.31943
3402.26855,0.31967
3400.33982,0.31991
3398.41110,0.31997
3396.48237,0.31982
3394.55365,0.31958
3392.62493,0.31945
3390.69620,0.31945
3388.76748,0.31949
3386.83876,0.31949
3384.91003,0.31933
3382.98131,0.31907
3381.05259,0.31885
3379.12386,0.31868
3377.19514,0.31852
3375.26641,0.31831
3373.33769,0.31810
3371.40897,0.31796
3369.48024,0.31779
3367.55152,0.31747
3365.62280,0.31712
3363.69407,0.31689
3361.76535,0.31682
3359.83662,0.31670
3357.90790,0.31643
3355.97918,0.31624
3354.05045,0.31618
3352.12173,0.31603
3350.19301,0.31570
3348.26428,0.31529
3346.33556,0.31483
3344.40684,0.31438
3342.47811,0.31406
3340.54939,0.31379
3338.62066,0.31345
3336.69194,0.31312
3334.76322,0.31285
3332.83449,0.31265
3330.90577,0.31253
3328.97705,0.31236
3327.04832,0.31207
3325.11960,0.31167
3323.19088,0.31116
3321.26215,0.31062
3319.33343,0.31025
3317.40470,0.31005
3315.47598,0.30988
3313.54726,0.30971
3311.61853,0.30948
3309.68981,0.30913
3307.76109,0.30871
3305.83236,0.30829
3303.90364,0.30790
3301.97491,0.30759
3300.04619,0.30734
3298.11747,0.30711
3296.18874,0.30696
3294.26002,0.30677
3292.33130,0.30641
3290.40257,0.30598
3288.47385,0.30556
3286.54513,0.30499
3284.61640,0.30431
3282.68768,0.30386
3280.75895,0.30370
3278.83023,0.30354
3276.90151,0.30314
3274.97278,0.30256
3273.04406,0.30196
3271.11534,0.30145
3269.18661,0.30103
3267.25789,0.30072
3265.32917,0.30047
3263.40044,0.30018
3261.47172,0.29974
3259.54299,0.29905
3257.61427,0.29823
3255.68555,0.29749
3253.75682,0.29694
3251.82810,0.29651
3249.89938,0.29607
3247.97065,0.29558
3246.04193,0.29508
3244.11320,0.29462
3242.18448,0.29405
3240.25576,0.29332
3238.32703,0.29264
3236.39831,0.29225
3234.46959,0.29202
3232.54086,0.29152
3230.61214,0.29068
3228.68342,0.28991
3226.75469,0.28941
3224.82597,0.28896
3222.89724,0.28832
3220.96852,0.28756
3219.03980,0.28682
3217.11107,0.28607
3215.18235,0.28521
3213.25363,0.28433
3211.32490,0.28367
3209.39618,0.28316
3207.46746,0.28252
3205.53873,0.28172
3203.61001,0.28093
3201.68128,0.28018
3199.75256,0.27936
3197.82384,0.27853
3195.89511,0.27775
3193.96639,0.27688
3192.03767,0.27588
3190.10894,0.27501
3188.18022,0.27428
3186.25149,0.27350
3184.32277,0.27274
3182.39405,0.27201
3180.46532,0.27113
3178.53660,0.27005
3176.60788,0.26897
3174.67915,0.26798
3172.75043,0.26710
3170.82171,0.26633
3168.89298,0.26555
3166.96426,0.26457
3165.03553,0.26347
3163.10681,0.26248
3161.17809,0.26169
3159.24936,0.26085
3157.32064,0.25986
3155.39192,0.25892
3153.46319,0.25799
3151.53447,0.25693
3149.60575,0.25585
3147.67702,0.25485
3145.74830,0.25398
3143.81957,0.25320
3141.89085,0.25230
3139.96213,0.25135
3138.03340,0.25051
3136.10468,0.24966
3134.17596,0.24868
3132.24723,0.24760
3130.31851,0.24649
3128.38978,0.24546
3126.46106,0.24465
3124.53234,0.24395
3122.60361,0.24312
3120.67489,0.24215
3118.74617,0.24109
3116.81744,0.23997
3114.88872,0.23889
3112.96000,0.23791
3111.03127,0.23696
3109.10255,0.23599
3107.17382,0.23500
3105.24510,0.23397
3103.31638,0.23284
3101.38765,0.23166
3099.45893,0.23054
3097.53021,0.22945
3095.60148,0.22832
3093.67276,0.22718
3091.74404,0.22607
3089.81531,0.22496
3087.88659,0.22379
3085.95786,0.22264
3084.02914,0.22163
3082.10042,0.22070
3080.17169,0.21967
3078.24297,0.21850
3076.31425,0.21731
3074.38552,0.21621
3072.45680,0.21530
3070.52807,0.21438
3068.59935,0.21322
3066.67063,0.21184
3064.74190,0.21046
3062.81318,0.20923
3060.88446,0.20817
3058.95573,0.20706
3057.02701,0.20572
3055.09829,0.20435
3053.16956,0.20324
3051.24084,0.20235
3049.31211,0.20138
3047.38339,0.20026
3045.45467,0.19923
3043.52594,0.19835
3041.59722,0.19743
3039.66850,0.19638
3037.73977,0.19527
3035.81105,0.19408
3033.88233,0.19293
3031.95360,0.19191
3030.02488,0.19084
3028.09615,0.18968
3026.16743,0.18868
3024.23871,0.18783
3022.30998,0.18692
3020.38126,0.18596
3018.45254,0.18517
3016.52381,0.18452
3014.59509,0.18380
3012.66636,0.18290
3010.73764,0.18197
3008.80892,0.18114
3006.88019,0.18035
3004.95147,0.17957
3003.02275,0.17883
3001.09402,0.17808
2999.16530,0.17722
2997.23658,0.17636
2995.30785,0.17570
2993.37913,0.17522
2991.45040,0.17471
2989.52168,0.17418
2987.59296,0.17375
2985.66423,0.17355
2983.73551,0.17351
2981.80679,0.17350
2979.87806,0.17342
2977.94934,0.17335
2976.02062,0.17344
2974.09189,0.17363
2972.16317,0.17381
2970.23444,0.17403
2968.30572,0.17437
2966.37700,0.17481
2964.44827,0.17524
2962.51955,0.17551
2960.59083,0.17555
2958.66210,0.17538
2956.73338,0.17505
2954.80466,0.17455
2952.87593,0.17387
2950.94721,0.17321
2949.01848,0.17278
2947.08976,0.17271
2945.16104,0.17305
2943.23231,0.17365
2941.30359,0.17434
2939.37487,0.17518
2937.44614,0.17626
2935.51742,0.17746
2933.58869,0.17856
2931.65997,0.17945
2929.73125,0.18021
2927.80252,0.18073
2925.87380,0.18078
2923.94508,0.18023
2922.01635,0.17896
2920.08763,0.17699
2918.15891,0.17441
2916.23018,0.17136
2914.30146,0.16806
2912.37273,0.16478
2910.44401,0.16173
2908.51529,0.15909
2906.58656,0.15687
2904.65784,0.15489
2902.72912,0.15309
2900.80039,0.15143
2898.87167,0.14981
2896.94295,0.14814
2895.01422,0.14642
2893.08550,0.14478
2891.15677,0.14326
2889.22805,0.14182
2887.29933,0.14043
2885.37060,0.13911
2883.44188,0.13795
2881.51316,0.13705
2879.58443,0.13635
2877.65571,0.13573
2875.72698,0.13521
2873.79826,0.13471
2871.86954,0.13407
2869.94081,0.13330
2868.01209,0.13250
2866.08337,0.13181
2864.15464,0.13145
2862.22592,0.13161
2860.29720,0.13231
2858.36847,0.13331
2856.43975,0.13422
2854.51102,0.13467
2852.58230,0.13425
2850.65358,0.13245
2848.72485,0.12925
2846.79613,0.12523
2844.86741,0.12117
2842.93868,0.11748
2841.00996,0.11434
2839.08124,0.11177
2837.15251,0.10968
2835.22379,0.10787
2833.29506,0.10617
2831.36634,0.10453
2829.43762,0.10303
2827.50889,0.10175
2825.58017,0.10056
2823.65145,0.09943
2821.72272,0.09846
2819.79400,0.09758
2817.86527,0.09660
2815.93655,0.09551
2814.00783,0.09450
2812.07910,0.09365
2810.15038,0.09274
2808.22166,0.09168
2806.29293,0.09067
2804.36421,0.08983
2802.43549,0.08909
2800.50676,0.08832
2798.57804,0.08744
2796.64931,0.08655
2794.72059,0.08579
2792.79187,0.08506
2790.86314,0.08425
2788.93442,0.08340
2787.00570,0.08251
2785.07697,0.08168
2783.14825,0.08097
2781.21953,0.08031
2779.29080,0.07956
2777.36208,0.07883
2775.43335,0.07813
2773.50463,0.07741
2771.57591,0.07668
2769.64718,0.07595
2767.71846,0.07515
2765.78974,0.07435
2763.86101,0.07363
2761.93229,0.07301
2760.00356,0.07240
2758.07484,0.07169
2756.14612,0.07095
2754.21739,0.07034
2752.28867,0.06981
2750.35995,0.06923
2748.43122,0.06855
2746.50250,0.06779
2744.57378,0.06703
2742.64505,0.06637
2740.71633,0.06579
2738.78760,0.06518
2736.85888,0.06455
2734.93016,0.06394
2733.00143,0.06340
2731.07271,0.06285
2729.14399,0.06225
2727.21526,0.06163
2725.28654,0.06105
2723.35782,0.06045
2721.42909,0.05978
2719.50037,0.05913
2717.57164,0.05851
2715.64292,0.05784
2713.71420,0.05715
2711.78547,0.05652
2709.85675,0.05596
2707.92803,0.05538
2705.99930,0.05477
2704.07058,0.05422
2702.14185,0.05370
2700.21313,0.05315
2698.28441,0.05254
2696.35568,0.05194
2694.42696,0.05137
2692.49824,0.05084
2690.56951,0.05041
2688.64079,0.04991
2686.71207,0.04926
2684.78334,0.04865
2682.85462,0.04817
2680.92589,0.04768
2678.99717,0.04712
2677.06845,0.04660
2675.13972,0.04611
2673.21100,0.04560
2671.28228,0.04507
2669.35355,0.04449
2667.42483,0.04387
2665.49611,0.04331
2663.56738,0.04281
2661.63866,0.04233
2659.70993,0.04186
2657.78121,0.04134
2655.85249,0.04074
2653.92376,0.04016
2651.99504,0.03970
2650.06632,0.03932
2648.13759,0.03889
2646.20887,0.03835
2644.28014,0.03780
2642.35142,0.03732
2640.42270,0.03693
2638.49397,0.03658
2636.56525,0.03619
2634.63653,0.03575
2632.70780,0.03530
2630.77908,0.03488
2628.85036,0.03443
2626.92163,0.03394
2624.99291,0.03344
2623.06418,0.03295
2621.13546,0.03252
2619.20674,0.03211
2617.27801,0.03170
2615.34929,0.03129
2613.42057,0.03090
2611.49184,0.03053
2609.56312,0.03016
2607.63440,0.02973
2605.70567,0.02924
2603.77695,0.02878
2601.84822,0.02845
2599.91950,0.02817
2597.99078,0.02782
2596.06205,0.02737
2594.13333,0.02690
2592.20461,0.02651
2590.27588,0.02623
2588.34716,0.02594
2586.41843,0.02559
2584.48971,0.02522
2582.56099,0.02485
2580.63226,0.02447
2578.70354,0.02414
2576.77482,0.02384
2574.84609,0.02353
2572.91737,0.02322
2570.98865,0.02292
2569.05992,0.02265
2567.13120,0.02236
2565.20247,0.02209
2563.27375,0.02182
2561.34503,0.02152
2559.41630,0.02118
2557.48758,0.02083
2555.55886,0.02053
2553.63013,0.02028
2551.70141,0.02001
2549.77269,0.01971
2547.84396,0.01943
2545.91524,0.01921
2543.98651,0.01901
2542.05779,0.01877
2540.12907,0.01856
2538.20034,0.01838
2536.27162,0.01815
2534.34290,0.01790
2532.41417,0.01767
2530.48545,0.01743
2528.55673,0.01717
2526.62800,0.01689
2524.69928,0.01661
2522.77055,0.01640
2520.84183,0.01627
2518.91311,0.01608
2516.98438,0.01580
2515.05566,0.01555
2513.12694,0.01531
2511.19821,0.01506
2509.26949,0.01486
2507.34076,0.01469
2505.41204,0.01450
2503.48332,0.01428
2501.55459,0.01407
2499.62587,0.01384
2497.69715,0.01364
2495.76842,0.01346
2493.83970,0.01319
2491.91098,0.01287
2489.98225,0.01261
2488.05353,0.01244
2486.12480,0.01226
2484.19608,0.01204
2482.26736,0.01185
2480.33863,0.01169
2478.40991,0.01150
2476.48119,0.01128
2474.55246,0.01108
2472.62374,0.01090
2470.69502,0.01069
2468.76629,0.01050
2466.83757,0.01031
2464.90884,0.01003
2462.98012,0.00967
2461.05140,0.00935
2459.12267,0.00916
2457.19395,0.00905
2455.26523,0.00893
2453.33650,0.00877
2451.40778,0.00857
2449.47905,0.00839
2447.55033,0.00822
2445.62161,0.00804
2443.69288,0.00783
2441.76416,0.00760
2439.83544,0.00739
2437.90671,0.00725
2435.97799,0.00714
2434.04927,0.00700
2432.12054,0.00683
2430.19182,0.00665
2428.26309,0.00649
2426.33437,0.00631
2424.40565,0.00611
2422.47692,0.00593
2420.54820,0.00581
2418.61948,0.00568
2416.69075,0.00549
2414.76203,0.00531
2412.83331,0.00520
2410.90458,0.00513
2408.97586,0.00502
2407.04713,0.00487
2405.11841,0.00469
2403.18969,0.00448
2401.26096,0.00431
2399.33224,0.00414
2397.40352,0.00399
2395.47479,0.00387
2393.54607,0.00380
2391.61734,0.00373
2389.68862,0.00360
2387.75990,0.00347
2385.83117,0.00341
2383.90245,0.00347
2381.97373,0.00361
2380.04500,0.00375
2378.11628,0.00382
2376.18756,0.00372
2374.25883,0.00353
2372.33011,0.00342
2370.40138,0.00343
2368.47266,0.00351
2366.54394,0.00361
2364.61521,0.00366
2362.68649,0.00366
2360.75777,0.00357
2358.82904,0.00329
2356.90032,0.00287
2354.97160,0.00250
2353.04287,0.00245
2351.11415,0.00290
2349.18542,0.00335
2347.25670,0.00318
2345.32798,0.00265
2343.39925,0.00239
2341.47053,0.00245
2339.54181,0.00255
2337.61308,0.00249
2335.68436,0.00229
2333.75563,0.00213
2331.82691,0.00211
2329.89819,0.00212
2327.96946,0.00209
2326.04074,0.00202
2324.11202,0.00191
2322.18329,0.00175
2320.25457,0.00159
2318.32585,0.00149
2316.39712,0.00141
2314.46840,0.00129
2312.53967,0.00113
2310.61095,0.00099
2308.68223,0.00091
2306.75350,0.00087
2304.82478,0.00078
2302.89606,0.00067
2300.96733,0.00065
2299.03861,0.00073
2297.10989,0.00079
2295.18116,0.00077
2293.25244,0.00067
2291.32371,0.00055
2289.39499,0.00048
2287.46627,0.00046
2285.53754,0.00049
2283.60882,0.00050
2281.68010,0.00044
2279.75137,0.00032
2277.82265,0.00025
2275.89392,0.00026
2273.96520,0.00026
2272.03648,0.00021
2270.10775,0.00018
2268.17903,0.00016
2266.25031,0.00011
2264.32158,0.00007
2262.39286,0.00003
2260.46414,-0.00001
2258.53541,-0.00006
2256.60669,-0.00008
2254.67796,-0.00007
2252.74924,-0.00003
2250.82052,0.00001
2248.89179,0.00003
2246.96307,0.00001
2245.03435,0.00001
2243.10562,0.00006
2241.17690,0.00008
2239.24818,0.00005
2237.31945,0.00003
2235.39073,0.00004
2233.46200,0.00000
2231.53328,-0.00006
2229.60456,-0.00010
2227.67583,-0.00005
2225.74711,0.00004
2223.81839,0.00007
2221.88966,0.00002
2219.96094,-0.00004
2218.03221,-0.00008
2216.10349,-0.00009
2214.17477,-0.00008
2212.24604,-0.00008
2210.31732,-0.00011
2208.38860,-0.00008
2206.45987,0.00000
2204.53115,0.00006
2202.60243,0.00009
2200.67370,0.00011
2198.74498,0.00006
2196.81625,-0.00001
2194.88753,-0.00004
2192.95881,-0.00007
2191.03008,-0.00006
2189.10136,0.00001
2187.17264,0.00005
2185.24391,0.00007
2183.31519,0.00016
2181.38647,0.00021
2179.45774,0.00013
2177.52902,0.00007
2175.60029,0.00009
2173.67157,0.00013
2171.74285,0.00017
2169.81412,0.00023
2167.88540,0.00032
2165.95668,0.00042
2164.02795,0.00051
2162.09923,0.00050
2160.17050,0.00038
2158.24178,0.00026
2156.31306,0.00024
2154.38433,0.00031
2152.45561,0.00033
2150.52689,0.00031
2148.59816,0.00031
2146.66944,0.00031
2144.74072,0.00029
2142.81199,0.00024
2140.88327,0.00020
2138.95454,0.00021
2137.02582,0.00028
2135.09710,0.00036
2133.16837,0.00039
2131.23965,0.00035
2129.31093,0.00032
2127.38220,0.00035
2125.45348,0.00035
2123.52476,0.00029
2121.59603,0.00020
2119.66731,0.00013
2117.73858,0.00008
2115.80986,0.00004
2113.88114,-0.00000
2111.95241,0.00001
2110.02369,0.00005
2108.09497,0.00007
2106.16624,0.00004
2104.23752,-0.00001
2102.30880,-0.00008
2100.38007,-0.00016
2098.45135,-0.00019
2096.52262,-0.00012
2094.59390,0.00000
2092.66518,0.00003
2090.73645,-0.00006
2088.80773,-0.00018
2086.87901,-0.00027
2084.95028,-0.00035
2083.02156,-0.00043
2081.09283,-0.00046
2079.16411,-0.00047
2077.23539,-0.00048
2075.30666,-0.00048
2073.37794,-0.00044
2071.44922,-0.00040
2069.52049,-0.00038
2067.59177,-0.00037
2065.66305,-0.00036
2063.73432,-0.00029
2061.80560,-0.00014
2059.87687,-0.00001
2057.94815,0.00004
2056.01943,0.00007
2054.09070,0.00015
2052.16198,0.00027
2050.23326,0.00042
2048.30453,0.00058
2046.37581,0.00071
2044.44709,0.00084
2042.51836,0.00102
2040.58964,0.00121
2038.66091,0.00141
2036.73219,0.00160
2034.80347,0.00176
2032.87474,0.00194
2030.94602,0.00217
2029.01730,0.00235
2027.08857,0.00248
2025.15985,0.00265
2023.23112,0.00283
2021.30240,0.00298
2019.37368,0.00313
2017.44495,0.00328
2015.51623,0.00344
2013.58751,0.00361
2011.65878,0.00372
2009.73006,0.00376
2007.80134,0.00378
2005.87261,0.00382
2003.94389,0.00385
2002.01516,0.00387
2000.08644,0.00387
1998.15772,0.00388
1996.22899,0.00394
1994.30027,0.00398
1992.37155,0.00391
1990.44282,0.00375
1988.51410,0.00364
1986.58538,0.00360
1984.65665,0.00362
1982.72793,0.00363
1980.79920,0.00352
1978.87048,0.00334
1976.94176,0.00316
1975.01303,0.00304
1973.08431,0.00298
1971.15559,0.00295
1969.22686,0.00282
1967.29814,0.00252
1965.36941,0.00221
1963.44069,0.00203
1961.51197,0.00194
1959.58324,0.00178
1957.65452,0.00156
1955.72580,0.00138
1953.79707,0.00128
1951.86835,0.00122
1949.93963,0.00114
1948.01090,0.00100
1946.08218,0.00084
1944.15345,0.00069
1942.22473,0.00054
1940.29601,0.00041
1938.36728,0.00033
1936.43856,0.00026
1934.50984,0.00016
1932.58111,0.00006
1930.65239,-0.00002
1928.72367,-0.00006
1926.79494,0.00000
1924.86622,0.00011
1922.93749,0.00020
1921.00877,0.00030
1919.08005,0.00045
1917.15132,0.00068
1915.22260,0.00099
1913.29388,0.00135
1911.36515,0.00170
1909.43643,0.00205
1907.50770,0.00245
1905.57898,0.00293
1903.65026,0.00345
1901.72153,0.00397
1899.79281,0.00452
1897.86409,0.00508
1895.93536,0.00560
1894.00664,0.00608
1892.07792,0.00651
1890.14919,0.00690
1888.22047,0.00729
1886.29174,0.00769
1884.36302,0.00806
1882.43430,0.00838
1880.50557,0.00863
1878.57685,0.00881
1876.64813,0.00888
1874.71940,0.00888
1872.79068,0.00883
1870.86196,0.00867
1868.93323,0.00837
1867.00451,0.00803
1865.07578,0.00781
1863.14706,0.00758
1861.21834,0.00717
1859.28961,0.00661
1857.36089,0.00605
1855.43217,0.00552
1853.50344,0.00504
1851.57472,0.00459
1849.64599,0.00414
1847.71727,0.00367
1845.78855,0.00311
1843.85982,0.00246
1841.93110,0.00194
1840.00238,0.00165
1838.07365,0.00146
1836.14493,0.00123
1834.21621,0.00098
1832.28748,0.00070
1830.35876,0.00037
1828.43003,0.00011
1826.50131,0.00000
1824.57259,-0.00010
1822.64386,-0.00021
1820.71514,-0.00025
1818.78642,-0.00019
1816.85769,-0.00008
1814.92897,0.00000
1813.00025,-0.00016
1811.07152,-0.00024
1809.14280,-0.00019
1807.21407,-0.00007
1805.28535,0.00003
1803.35663,0.00009
1801.42790,0.00020
1799.49918,0.00048
1797.57046,0.00087
1795.64173,0.00124
1793.71301,0.00162
1791.78428,0.00211
1789.85556,0.00277
1787.92684,0.00350
1785.99811,0.00426
1784.06939,0.00501
1782.14067,0.00578
1780.21194,0.00666
1778.28322,0.00759
1776.35450,0.00843
1774.42577,0.00923
1772.49705,0.01015
1770.56832,0.01119
1768.63960,0.01220
1766.71088,0.01313
1764.78215,0.01406
1762.85343,0.01501
1760.92471,0.01594
1758.99598,0.01684
1757.06726,0.01779
1755.13854,0.01885
1753.20981,0.01994
1751.28109,0.02116
1749.35236,0.02257
1747.42364,0.02409
1745.49492,0.02567
1743.56619,0.02737
1741.63747,0.02920
1739.70875,0.03114
1737.78002,0.03301
1735.85130,0.03486
1733.92257,0.03697
1731.99385,0.03914
1730.06513,0.04107
1728.13640,0.04287
1726.20768,0.04465
1724.27896,0.04650
1722.35023,0.04835
1720.42151,0.05009
1718.49279,0.05196
1716.56406,0.05423
1714.63534,0.05663
1712.70661,0.05886
1710.77789,0.06098
1708.84917,0.06311
1706.92044,0.06553
1704.99172,0.06828
1703.06300,0.07114
1701.13427,0.07437
1699.20555,0.07820
1697.27683,0.08231
1695.34810,0.08655
1693.41938,0.09036
1691.49065,0.09361
1689.56193,0.09685
1687.63321,0.10017
1685.70448,0.10396
1683.77576,0.10872
1681.84704,0.11325
1679.91831,0.11679
1677.98959,0.11998
1676.06087,0.12345
1674.13214,0.12705
1672.20342,0.13030
1670.27469,0.13356
1668.34597,0.13700
1666.41725,0.13993
1664.48852,0.14248
1662.55980,0.14523
1660.63108,0.14792
1658.70235,0.14995
1656.77363,0.15132
1654.84490,0.15254
1652.91618,0.15417
1650.98746,0.15574
1649.05873,0.15679
1647.13001,0.15777
1645.20129,0.15889
1643.27256,0.15979
1641.34384,0.16036
1639.41512,0.16066
1637.48639,0.16076
1635.55767,0.16074
1633.62894,0.16060
1631.70022,0.16031
1629.77150,0.15971
1627.84277,0.15868
1625.91405,0.15722
1623.98533,0.15530
1622.05660,0.15318
1620.12788,0.15113
1618.19916,0.14872
1616.27043,0.14566
1614.34171,0.14280
1612.41298,0.14039
1610.48426,0.13784
1608.55554,0.13497
1606.62681,0.13205
1604.69809,0.12919
1602.76937,0.12640
1600.84064,0.12375
1598.91192,0.12128
1596.98319,0.11888
1595.05447,0.11653
1593.12575,0.11436
1591.19702,0.11232
1589.26830,0.11030
1587.33958,0.10831
1585.41085,0.10639
1583.48213,0.10452
1581.55341,0.10276
1579.62468,0.10110
1577.69596,0.09931
1575.76723,0.09736
1573.83851,0.09583
1571.90979,0.09478
1569.98106,0.09370
1568.05234,0.09254
1566.12362,0.09155
1564.19489,0.09072
1562.26617,0.08989
1560.33745,0.08878
1558.40872,0.08741
1556.48000,0.08640
1554.55127,0.08578
1552.62255,0.08511
1550.69383,0.08420
1548.76510,0.08309
1546.83638,0.08195
1544.90766,0.08070
1542.97893,0.07905
1541.05021,0.07677
1539.12148,0.07440
1537.19276,0.07276
1535.26404,0.07128
1533.33531,0.06933
1531.40659,0.06726
1529.47787,0.06537
1527.54914,0.06328
1525.62042,0.06089
1523.69170,0.05845
1521.76297,0.05597
1519.83425,0.05361
1517.90552,0.05144
1515.97680,0.04929
1514.04808,0.04728
1512.11935,0.04535
1510.19063,0.04317
1508.26191,0.04014
1506.33318,0.03638
1504.40446,0.03349
1502.47574,0.03162
1500.54701,0.02974
1498.61829,0.02738
1496.68956,0.02495
1494.76084,0.02313
1492.83212,0.02186
1490.90339,0.02065
1488.97467,0.01955
1487.04595,0.01902
1485.11722,0.01904
1483.18850,0.01929
1481.25977,0.01969
1479.33105,0.02036
1477.40233,0.02141
1475.47360,0.02305
1473.54488,0.02563
1471.61616,0.02895
1469.68743,0.03194
1467.75871,0.03413
1465.82999,0.03580
1463.90126,0.03706
1461.97254,0.03786
1460.04381,0.03831
1458.11509,0.03883
1456.18637,0.03963
1454.25764,0.04030
1452.32892,0.04061
1450.40020,0.04076
1448.47147,0.04100
1446.54275,0.04145
1444.61403,0.04202
1442.68530,0.04255
1440.75658,0.04290
1438.82785,0.04315
1436.89913,0.04347
1434.97041,0.04390
1433.04168,0.04434
1431.11296,0.04481
1429.18424,0.04544
1427.25551,0.04620
1425.32679,0.04698
1423.39806,0.04771
1421.46934,0.04839
1419.54062,0.04911
1417.61189,0.05004
1415.68317,0.05106
1413.75445,0.05208
1411.82572,0.05313
1409.89700,0.05417
1407.96828,0.05515
1406.03955,0.05606
1404.11083,0.05679
1402.18210,0.05705
1400.25338,0.05660
1398.32466,0.05534
1396.39593,0.05336
1394.46721,0.05100
1392.53849,0.04871
1390.60976,0.04675
1388.68104,0.04492
1386.75232,0.04315
1384.82359,0.04168
1382.89487,0.04046
1380.96614,0.03928
1379.03742,0.03802
1377.10870,0.03669
1375.17997,0.03529
1373.25125,0.03390
1371.32253,0.03257
1369.39380,0.03123
1367.46508,0.02990
1365.53635,0.02859
1363.60763,0.02716
1361.67891,0.02567
1359.75018,0.02436
1357.82146,0.02327
1355.89274,0.02230
1353.96401,0.02144
1352.03529,0.02069
1350.10657,0.01999
1348.17784,0.01934
1346.24912,0.01876
1344.32039,0.01817
1342.39167,0.01752
1340.46295,0.01682
1338.53422,0.01626
1336.60550,0.01595
1334.67678,0.01579
1332.74805,0.01566
1330.81933,0.01552
1328.89061,0.01541
1326.96188,0.01533
1325.03316,0.01527
1323.10443,0.01520
1321.17571,0.01514
1319.24699,0.01510
1317.31826,0.01511
1315.38954,0.01517
1313.46082,0.01529
1311.53209,0.01553
1309.60337,0.01587
1307.67464,0.01628
1305.74592,0.01675
1303.81720,0.01723
1301.88847,0.01778
1299.95975,0.01853
1298.03103,0.01947
1296.10230,0.02056
1294.17358,0.02189
1292.24486,0.02344
1290.31613,0.02514
1288.38741,0.02710
1286.45868,0.02941
1284.52996,0.03195
1282.60124,0.03468
1280.67251,0.03768
1278.74379,0.04101
1276.81507,0.04467
1274.88634,0.04862
1272.95762,0.05289
1271.02890,0.05773
1269.10017,0.06326
1267.17145,0.06936
1265.24272,0.07601
1263.31400,0.08344
1261.38528,0.09182
1259.45655,0.10118
1257.52783,0.11129
1255.59911,0.12196
1253.67038,0.13303
1251.74166,0.14420
1249.81294,0.15505
1247.88421,0.16533
1245.95549,0.17497
1244.02676,0.18402
1242.09804,0.19244
1240.16932,0.20001
1238.24059,0.20667
1236.31187,0.21255
1234.38315,0.21776
1232.45442,0.22262
1230.52570,0.22734
1228.59697,0.23158
1226.66825,0.23512
1224.73953,0.23825
1222.81080,0.24117
1220.88208,0.24387
1218.95336,0.24632
1217.02463,0.24856
1215.09591,0.25083
1213.16719,0.25333
1211.23846,0.25581
1209.30974,0.25795
1207.38101,0.25973
1205.45229,0.26139
1203.52357,0.26310
1201.59484,0.26493
1199.66612,0.26667
1197.73740,0.26838
1195.80867,0.27032
1193.87995,0.27228
1191.95123,0.27416
1190.02250,0.27614
1188.09378,0.27804
1186.16505,0.27967
1184.23633,0.28114
1182.30761,0.28274
1180.37888,0.28461
1178.45016,0.28642
1176.52144,0.28824
1174.59271,0.29043
1172.66399,0.29259
1170.73526,0.29439
1168.80654,0.29609
1166.87782,0.29783
1164.94909,0.29963
1163.02037,0.30158
1161.09165,0.30346
1159.16292,0.30487
1157.23420,0.30607
1155.30548,0.30738
1153.37675,0.30869
1151.44803,0.31020
1149.51930,0.31220
1147.59058,0.31428
1145.66186,0.31595
1143.73313,0.31743
1141.80441,0.31904
1139.87569,0.32078
1137.94696,0.32263
1136.01824,0.32477
1134.08952,0.32729
1132.16079,0.32992
1130.23207,0.33246
1128.30334,0.33509
1126.37462,0.33820
1124.44590,0.34197
1122.51717,0.34602
1120.58845,0.35024
1118.65973,0.35483
1116.73100,0.35991
1114.80228,0.36542
1112.87355,0.37126
1110.94483,0.37742
1109.01611,0.38389
1107.08738,0.39059
1105.15866,0.39729
1103.22994,0.40361
1101.30121,0.40904
1099.37249,0.41303
1097.44377,0.41592
1095.51504,0.41871
1093.58632,0.42094
1091.65759,0.42155
1089.72887,0.42156
1087.80015,0.42206
1085.87142,0.42233
1083.94270,0.42146
1082.01398,0.41968
1080.08525,0.41730
1078.15653,0.41445
1076.22781,0.41161
1074.29908,0.40869
1072.37036,0.40541
1070.44163,0.40168
1068.51291,0.39729
1066.58419,0.39257
1064.65546,0.38794
1062.72674,0.38320
1060.79802,0.37768
1058.86929,0.37148
1056.94057,0.36537
1055.01184,0.35912
1053.08312,0.35241
1051.15440,0.34590
1049.22567,0.33960
1047.29695,0.33272
1045.36823,0.32553
1043.43950,0.31856
1041.51078,0.31144
1039.58206,0.30387
1037.65333,0.29635
1035.72461,0.28930
1033.79588,0.28230
1031.86716,0.27513
1029.93844,0.26820
1028.00971,0.26165
1026.08099,0.25531
1024.15227,0.24891
1022.22354,0.24232
1020.29482,0.23597
1018.36610,0.23035
1016.43737,0.22521
1014.50865,0.22016
1012.57992,0.21530
1010.65120,0.21046
1008.72248,0.20557
1006.79375,0.20111
1004.86503,0.19720
1002.93631,0.19349
1001.00758,0.18978
999.07886,0.18615
997.15013,0.18271
995.22141,0.17946
993.29269,0.17622
991.36396,0.17305
989.43524,0.17015
987.50652,0.16747
985.57779,0.16506
983.64907,0.16312
981.72035,0.16159
979.79162,0.16033
977.86290,0.15934
975.93417,0.15837
974.00545,0.15737
972.07673,0.15680
970.14800,0.15658
968.21928,0.15631
966.29056,0.15593
964.36183,0.15536
962.43311,0.15451
960.50439,0.15372
958.57566,0.15332
956.64694,0.15297
954.71821,0.15231
952.78949,0.15137
950.86077,0.15010
948.93204,0.14849
947.00332,0.14678
945.07460,0.14500
943.14587,0.14314
941.21715,0.14114
939.28842,0.13899
937.35970,0.13691
935.43098,0.13473
933.50225,0.13209
931.57353,0.12918
929.64481,0.12615
927.71608,0.12289
925.78736,0.11951
923.85864,0.11626
921.92991,0.11309
920.00119,0.10977
918.07246,0.10614
916.14374,0.10234
914.21502,0.09874
912.28629,0.09520
910.35757,0.09137
908.42885,0.08740
906.50012,0.08357
904.57140,0.07996
902.64268,0.07644
900.71395,0.07281
898.78523,0.06924
896.85650,0.06586
894.92778,0.06247
892.99906,0.05899
891.07033,0.05569
889.14161,0.05256
887.21289,0.04958
885.28416,0.04697
883.35544,0.04442
881.42671,0.04168
879.49799,0.03911
877.56927,0.03683
875.64054,0.03461
873.71182,0.03243
871.78310,0.03040
869.85437,0.02856
867.92565,0.02680
865.99693,0.02497
864.06820,0.02309
862.13948,0.02140
860.21075,0.02015
858.28203,0.01918
856.35331,0.01823
854.42458,0.01732
852.49586,0.01646
850.56714,0.01581
848.63841,0.01561
846.70969,0.01574
844.78097,0.01649
842.85224,0.01824
840.92352,0.02054
838.99479,0.02297
837.06607,0.02580
835.13735,0.02890
833.20862,0.03187
831.27990,0.03476
829.35118,0.03779
827.42245,0.04109
825.49373,0.04457
823.56501,0.04811
821.63628,0.05172
819.70756,0.05505
817.77883,0.05792
815.85011,0.06071
813.92139,0.06341
811.99266,0.06580
810.06394,0.06816
808.13522,0.07067
806.20649,0.07302
804.27777,0.07478
802.34904,0.07612
800.42032,0.07725
798.49160,0.07770
796.56287,0.07716
794.63415,0.07607
792.70543,0.07476
790.77670,0.07340
788.84798,0.07191
786.91926,0.06989
784.99053,0.06731
783.06181,0.06449
781.13308,0.06121
779.20436,0.05707
777.27564,0.05290
775.34691,0.04940
773.41819,0.04593
771.48947,0.04213
769.56074,0.03874
767.63202,0.03646
765.70330,0.03524
763.77457,0.03465
761.84585,0.03421
759.91712,0.03364
757.98840,0.03308
756.05968,0.03249
754.13095,0.03168
752.20223,0.03099
750.27351,0.03076
748.34478,0.03083
746.41606,0.03089
744.48733,0.03088
742.55861,0.03088
740.62989,0.03091
738.70116,0.03098
736.77244,0.03093
734.84372,0.03072
732.91499,0.03062
730.98627,0.03061
729.05755,0.03077
727.12882,0.03144
725.20010,0.03226
723.27137,0.03277
721.34265,0.03330
719.41393,0.03408
717.48520,0.03477
715.55648,0.03515
713.62776,0.03526
711.69903,0.03512
709.77031,0.03507
707.84159,0.03551
705.91286,0.03645
703.98414,0.03762
702.05541,0.03884
700.12669,0.04011
698.19797,0.04142
696.26924,0.04262
694.34052,0.04350
692.41180,0.04399
690.48307,0.04431
688.55435,0.04474
686.62562,0.04510
684.69690,0.04517
682.76818,0.04506
680.83945,0.04504
678.91073,0.04518
676.98201,0.04543
675.05328,0.04584
673.12456,0.04622
671.19584,0.04562
669.26711,0.04410
667.33839,0.04416
665.40966,0.04618
663.48094,0.04777
661.55222,0.04836
659.62349,0.04877
657.69477,0.04963
655.76605,0.05101
653.83732,0.05232
651.90860,0.05335
649.97988,0.05449
648.05115,0.05588
646.12243,0.05710
644.19370,0.05770
642.26498,0.05793
640.33626,0.05837
638.40753,0.05903
636.47881,0.05990
634.55009,0.06128
632.62136,0.06283
630.69264,0.06386
628.76391,0.06456
626.83519,0.06558
624.90647,0.06679
622.97774,0.06755
621.04902,0.06729
619.12030,0.06687
617.19157,0.06795
615.26285,0.07027
613.33413,0.07212
611.40540,0.07291
609.47668,0.07339
607.54795,0.07426
605.61923,0.07540
603.69051,0.07632
601.76178,0.07739
599.83306,0.07935
597.90434,0.08181
595.97561,0.08355
594.04689,0.08424
592.11817,0.08483
590.18944,0.08607
588.26072,0.08760
586.33199,0.08861
584.40327,0.08891
582.47455,0.08907
580.54582,0.08965
578.61710,0.09100
576.68838,0.09267
574.75965,0.09326
572.83093,0.09288
570.90220,0.09309
568.97348,0.09388
567.04476,0.09428
565.11603,0.09435
563.18731,0.09434
561.25859,0.09445
559.32986,0.09510
557.40114,0.09599
555.47242,0.09632
553.54369,0.09628
551.61497,0.09653
549.68624,0.09684
547.75752,0.09749
545.82880,0.09883
543.90007,0.09947
541.97135,0.09845
540.04263,0.09686
538.11390,0.09624
536.18518,0.09691
534.25646,0.09770
532.32773,0.09742
530.39901,0.09661
528.47028,0.09673
526.54156,0.09778
524.61284,0.09800
522.68411,0.09636
520.75539,0.09434
518.82667,0.09458
516.89794,0.09766
514.96922,0.10152
513.04049,0.10490
511.11177,0.10794
509.18305,0.11035
507.25432,0.11212
505.32560,0.11459
503.39688,0.11925
501.46815,0.12548
499.53943,0.13101
497.61071,0.13556
495.68198,0.14070
493.75326,0.14699
491.82453,0.15414
489.89581,0.16204
487.96709,0.17030
486.03836,0.17780
484.10964,0.18379
482.18092,0.18929
480.25219,0.19586
478.32347,0.20398
476.39475,0.21291
474.46602,0.22016
472.53730,0.22394
470.60857,0.22598
468.67985,0.22858
466.75113,0.23118
464.82240,0.23224
462.89368,0.23251
460.96496,0.23293
459.03623,0.23037
457.10751,0.22150
455.17878,0.21058
453.25006,0.20358
451.32134,0.19875
449.39261,0.19175
447.46389,0.18350
445.53517,0.17820
443.60644,0.17669
441.67772,0.17496
439.74900,0.17016
437.82027,0.16335
435.89155,0.15646
433.96282,0.15154
432.03410,0.14828
430.10538,0.14306
428.17665,0.13463
426.24793,0.12582
424.31921,0.11873
422.39048,0.11309
420.46176,0.10698
418.53304,0.09946
416.60431,0.09393
414.67559,0.09088
412.74686,0.08737
410.81814,0.08433
408.88942,0.08250
406.96069,0.07836
405.03197,0.07130
403.10325,0.06729
401.17452,0.07023
399.24580,0.07270
397.31708,0.06390
395.38835,0.05235
393.45963,0.05213
391.53090,0.05615
389.60218,0.05470
387.67346,0.04819
385.74473,0.03425
383.81601,0.01606
381.88729,0.00905
379.95856,0.01280
378.02984,0.01280
376.10111,0.00498
374.17239,0.00000
372.24367,-0.01093
370.31494,-0.00619
368.38622,0.00000
