3996.31543,0.00009
3994.38671,0.00000
3992.45799,0.00010
3990.52926,0.00036
3988.60054,0.00060
3986.67182,0.00063
3984.74309,0.00047
3982.81437,0.00031
3980.88564,0.00032
3978.95692,0.00040
3977.02820,0.00045
3975.09947,0.00050
3973.17075,0.00055
3971.24203,0.00054
3969.31330,0.00050
3967.38458,0.00052
3965.45586,0.00059
3963.52713,0.00069
3961.59841,0.00078
3959.66968,0.00077
3957.74096,0.00067
3955.81224,0.00061
3953.88351,0.00059
3951.95479,0.00062
3950.02607,0.00065
3948.09734,0.00064
3946.16862,0.00053
3944.23990,0.00039
3942.31117,0.00038
3940.38245,0.00047
3938.45372,0.00057
3936.52500,0.00067
3934.59628,0.00081
3932.66755,0.00097
3930.73883,0.00106
3928.81011,0.00106
3926.88138,0.00106
3924.95266,0.00098
3923.02393,0.00071
3921.09521,0.00044
3919.16649,0.00045
3917.23776,0.00062
3915.30904,0.00065
3913.38032,0.00050
3911.45159,0.00037
3909.52287,0.00038
3907.59415,0.00047
3905.66542,0.00059
3903.73670,0.00065
3901.80797,0.00063
3899.87925,0.00054
3897.95053,0.00041
3896.02180,0.00036
3894.09308,0.00054
3892.16436,0.00085
3890.23563,0.00090
3888.30691,0.00069
3886.37819,0.00061
3884.44946,0.00076
3882.52074,0.00084
3880.59201,0.00075
3878.66329,0.00052
3876.73457,0.00020
3874.80584,0.00000
3872.87712,0.00005
3870.94840,0.00030
3869.01967,0.00053
3867.09095,0.00051
3865.16222,0.00038
3863.23350,0.00036
3861.30478,0.00036
3859.37605,0.00028
3857.44733,0.00008
3855.51861,-0.00006
3853.58988,0.00025
3851.66116,0.00072
3849.73244,0.00065
3847.80371,0.00022
3845.87499,-0.00009
3843.94626,-0.00001
3842.01754,0.00029
3840.08882,0.00054
3838.16009,0.00064
3836.23137,0.00067
3834.30265,0.00060
3832.37392,0.00044
3830.44520,0.00031
3828.51648,0.00032
3826.58775,0.00043
3824.65903,0.00049
3822.73030,0.00051
3820.80158,0.00061
3818.87286,0.00071
3816.94413,0.00081
3815.01541,0.00096
3813.08669,0.00100
3811.15796,0.00091
3809.22924,0.00084
3807.30052,0.00095
3805.37179,0.00107
3803.44307,0.00116
3801.51434,0.00139
3799.58562,0.00162
3797.65690,0.00160
3795.72817,0.00158
3793.79945,0.00168
3791.87073,0.00175
3789.94200,0.00182
3788.01328,0.00191
3786.08455,0.00205
3784.15583,0.00230
3782.22711,0.00259
3780.29838,0.00282
3778.36966,0.00298
3776.44094,0.00311
3774.51221,0.00327
3772.58349,0.00359
3770.65477,0.00401
3768.72604,0.00430
3766.79732,0.00443
3764.86859,0.00454
3762.93987,0.00465
3761.01115,0.00484
3759.08242,0.00528
3757.15370,0.00581
3755.22498,0.00620
3753.29625,0.00656
3751.36753,0.00715
3749.43881,0.00786
3747.51008,0.00839
3745.58136,0.00889
3743.65263,0.00946
3741.72391,0.00980
3739.79519,0.00991
3737.86646,0.01024
3735.93774,0.01128
3734.00902,0.01283
3732.08029,0.01408
3730.15157,0.01481
3728.22284,0.01545
3726.29412,0.01647
3724.36540,0.01793
3722.43667,0.01964
3720.50795,0.02143
3718.57923,0.02317
3716.65050,0.02484
3714.72178,0.02664
3712.79306,0.02911
3710.86433,0.03238
3708.93561,0.03554
3707.00688,0.03806
3705.07816,0.04039
3703.14944,0.04319
3701.22071,0.04662
3699.29199,0.05002
3697.36327,0.05291
3695.43454,0.05541
3693.50582,0.05777
3691.57710,0.06051
3689.64837,0.06413
3687.71965,0.06807
3685.79092,0.07138
3683.86220,0.07429
3681.93348,0.07742
3680.00475,0.08087
3678.07603,0.08480
3676.14731,0.08974
3674.21858,0.09489
3672.28986,0.09901
3670.36113,0.10312
3668.43241,0.10769
3666.50369,0.11154
3664.57496,0.11480
3662.64624,0.11819
3660.71752,0.12165
3658.78879,0.12504
3656.86007,0.12868
3654.93135,0.13234
3653.00262,0.13537
3651.07390,0.13849
3649.14517,0.14273
3647.21645,0.14711
3645.28773,0.15032
3643.35900,0.15266
3641.43028,0.15499
3639.50156,0.15759
3637.57283,0.16035
3635.64411,0.16310
3633.71539,0.16570
3631.78666,0.16808
3629.85794,0.17080
3627.92921,0.17414
3626.00049,0.17694
3624.07177,0.17877
3622.14304,0.18019
3620.21432,0.18178
3618.28560,0.18354
3616.35687,0.18489
3614.42815,0.18590
3612.49942,0.18708
3610.57070,0.18846
3608.64198,0.18989
3606.71325,0.19133
3604.78453,0.19264
3602.85581,0.19388
3600.92708,0.19521
3598.99836,0.19649
3597.06964,0.19759
3595.14091,0.19867
3593.21219,0.19982
3591.28346,0.20088
3589.35474,0.20208
3587.42602,0.20369
3585.49729,0.20535
3583.56857,0.20670
3581.63985,0.20792
3579.71112,0.20910
3577.78240,0.21010
3575.85368,0.21092
3573.92495,0.21175
3571.99623,0.21268
3570.06750,0.21374
3568.13878,0.21497
3566.21006,0.21631
3564.28133,0.21754
3562.35261,0.21871
3560.42389,0.21985
3558.49516,0.22087
3556.56644,0.22167
3554.63771,0.22238
3552.70899,0.22320
3550.78027,0.22408
3548.85154,0.22493
3546.92282,0.22576
3544.99410,0.22663
3543.06537,0.22754
3541.13665,0.22840
3539.20793,0.22910
3537.27920,0.22974
3535.35048,0.23050
3533.42175,0.23140
3531.49303,0.23223
3529.56431,0.23289
3527.63558,0.23351
3525.70686,0.23431
3523.77814,0.23525
3521.84941,0.23608
3519.92069,0.23673
3517.99197,0.23734
3516.06324,0.23806
3514.13452,0.23888
3512.20579,0.23971
3510.27707,0.24046
3508.34835,0.24110
3506.41962,0.24169
3504.49090,0.24242
3502.56218,0.24337
3500.63345,0.24428
3498.70473,0.24497
3496.77600,0.24551
3494.84728,0.24610
3492.91856,0.24676
3490.98983,0.24731
3489.06111,0.24766
3487.13239,0.24803
3485.20366,0.24860
3483.27494,0.24936
3481.34622,0.25021
3479.41749,0.25102
3477.48877,0.25171
3475.56004,0.25232
3473.63132,0.25286
3471.70260,0.25339
3469.77387,0.25391
3467.84515,0.25433
3465.91643,0.25469
3463.98770,0.25518
3462.05898,0.25584
3460.13026,0.25646
3458.20153,0.25703
3456.27281,0.25769
3454.34408,0.25835
3452.41536,0.25882
3450.48664,0.25917
3448.55791,0.25943
3446.62919,0.25960
3444.70047,0.25983
3442.77174,0.26021
3440.84302,0.26058
3438.91429,0.26084
3436.98557,0.26118
3435.05685,0.26170
3433.12812,0.26230
3431.19940,0.26272
3429.27068,0.26285
3427.34195,0.26283
3425.41323,0.26280
3423.48451,0.26279
3421.55578,0.26295
3419.62706,0.26337
3417.69833,0.26386
3415.76961,0.26415
3413.84089,0.26430
3411.91216,0.26446
3409.98344,0.26457
3408.05472,0.26462
3406.12599,0.26468
3404.19727,0.26465
3402.26855,0.26445
3400.33982,0.26433
3398.41110,0.26435
3396.48237,0.26427
3394.55365,0.26404
3392.62493,0.26376
3390.69620,0.26347
3388.76748,0.26325
3386.83876,0.26314
3384.91003,0.26303
3382.98131,0.26273
3381.05259,0.26230
3379.12386,0.26196
3377.19514,0.26172
3375.26641,0.26149
3373.33769,0.26119
3371.40897,0.26082
3369.48024,0.26038
3367.55152,0.25985
3365.62280,0.25942
3363.69407,0.25920
3361.76535,0.25893
3359.83662,0.25841
3357.90790,0.25786
3355.97918,0.25754
3354.05045,0.25733
3352.12173,0.25700
3350.19301,0.25643
3348.26428,0.25579
3346.33556,0.25518
3344.40684,0.25458
3342.47811,0.25409
3340.54939,0.25379
3338.62066,0.25352
3336.69194,0.25316
3334.76322,0.25275
3332.83449,0.25229
3330.90577,0.25165
3328.97705,0.25082
3327.04832,0.25005
3325.11960,0.24956
3323.19088,0.24911
3321.26215,0.24856
3319.33343,0.24800
3317.40470,0.24748
3315.47598,0.24696
3313.54726,0.24651
3311.61853,0.24609
3309.68981,0.24556
3307.76109,0.24498
3305.83236,0.24446
3303.90364,0.24401
3301.97491,0.24361
3300.04619,0.24321
3298.11747,0.24272
3296.18874,0.24216
3294.26002,0.24172
3292.33130,0.24137
3290.40257,0.24094
3288.47385,0.24048
3286.54513,0.24002
3284.61640,0.23945
3282.68768,0.23877
3280.75895,0.23818
3278.83023,0.23780
3276.90151,0.23744
3274.97278,0.23700
3273.04406,0.23660
3271.11534,0.23611
3269.18661,0.23545
3267.25789,0.23475
3265.32917,0.23404
3263.40044,0.23332
3261.47172,0.23280
3259.54299,0.23249
3257.61427,0.23215
3255.68555,0.23158
3253.75682,0.23089
3251.82810,0.23020
3249.89938,0.22955
3247.97065,0.22903
3246.04193,0.22858
3244.11320,0.22811
3242.18448,0.22767
3240.25576,0.22717
3238.32703,0.22653
3236.39831,0.22581
3234.46959,0.22507
3232.54086,0.22441
3230.61214,0.22393
3228.68342,0.22349
3226.75469,0.22280
3224.82597,0.22182
3222.89724,0.22078
3220.96852,0.21984
3219.03980,0.21901
3217.11107,0.21830
3215.18235,0.21762
3213.25363,0.21694
3211.32490,0.21617
3209.39618,0.21525
3207.46746,0.21434
3205.53873,0.21362
3203.61001,0.21289
3201.68128,0.21197
3199.75256,0.21101
3197.82384,0.21020
3195.89511,0.20947
3193.96639,0.20858
3192.03767,0.20754
3190.10894,0.20655
3188.18022,0.20574
3186.25149,0.20495
3184.32277,0.20402
3182.39405,0.20297
3180.46532,0.20180
3178.53660,0.20061
3176.60788,0.19961
3174.67915,0.19875
3172.75043,0.19786
3170.82171,0.19695
3168.89298,0.19603
3166.96426,0.19509
3165.03553,0.19417
3163.10681,0.19324
3161.17809,0.19222
3159.24936,0.19107
3157.32064,0.18994
3155.39192,0.18902
3153.46319,0.18821
3151.53447,0.18731
3149.60575,0.18633
3147.67702,0.18534
3145.74830,0.18443
3143.81957,0.18366
3141.89085,0.18291
3139.96213,0.18213
3138.03340,0.18132
3136.10468,0.18037
3134.17596,0.17931
3132.24723,0.17828
3130.31851,0.17733
3128.38978,0.17640
3126.46106,0.17551
3124.53234,0.17468
3122.60361,0.17387
3120.67489,0.17288
3118.74617,0.17171
3116.81744,0.17065
3114.88872,0.16985
3112.96000,0.16912
3111.03127,0.16824
3109.10255,0.16728
3107.17382,0.16626
3105.24510,0.16513
3103.31638,0.16404
3101.38765,0.16314
3099.45893,0.16237
3097.53021,0.16155
3095.60148,0.16063
3093.67276,0.15961
3091.74404,0.15856
3089.81531,0.15757
3087.88659,0.15665
3085.95786,0.15577
3084.02914,0.15487
3082.10042,0.15399
3080.17169,0.15310
3078.24297,0.15214
3076.31425,0.15120
3074.38552,0.15038
3072.45680,0.14954
3070.52807,0.14850
3068.59935,0.14737
3066.67063,0.14629
3064.74190,0.14528
3062.81318,0.14429
3060.88446,0.14339
3058.95573,0.14253
3057.02701,0.14160
3055.09829,0.14065
3053.16956,0.13972
3051.24084,0.13882
3049.31211,0.13798
3047.38339,0.13718
3045.45467,0.13637
3043.52594,0.13559
3041.59722,0.13476
3039.66850,0.13382
3037.73977,0.13290
3035.81105,0.13223
3033.88233,0.13171
3031.95360,0.13116
3030.02488,0.13057
3028.09615,0.13010
3026.16743,0.12970
3024.23871,0.12925
3022.30998,0.12870
3020.38126,0.12818
3018.45254,0.12776
3016.52381,0.12757
3014.59509,0.12756
3012.66636,0.12725
3010.73764,0.12626
3008.80892,0.12491
3006.88019,0.12376
3004.95147,0.12305
3003.02275,0.12265
3001.09402,0.12235
2999.16530,0.12207
2997.23658,0.12181
2995.30785,0.12150
2993.37913,0.12106
2991.45040,0.12053
2989.52168,0.12011
2987.59296,0.12012
2985.66423,0.12058
2983.73551,0.12069
2981.80679,0.11990
2979.87806,0.11878
2977.94934,0.11798
2976.02062,0.11752
2974.09189,0.11721
2972.16317,0.11691
2970.23444,0.11650
2968.30572,0.11603
2966.37700,0.11564
2964.44827,0.11530
2962.51955,0.11495
2960.59083,0.11456
2958.66210,0.11420
2956.73338,0.11383
2954.80466,0.11340
2952.87593,0.11289
2950.94721,0.11236
2949.01848,0.11181
2947.08976,0.11141
2945.16104,0.11127
2943.23231,0.11132
2941.30359,0.11146
2939.37487,0.11174
2937.44614,0.11219
2935.51742,0.11274
2933.58869,0.11334
2931.65997,0.11384
2929.73125,0.11411
2927.80252,0.11417
2925.87380,0.11394
2923.94508,0.11317
2922.01635,0.11185
2920.08763,0.11014
2918.15891,0.10821
2916.23018,0.10628
2914.30146,0.10459
2912.37273,0.10317
2910.44401,0.10176
2908.51529,0.10020
2906.58656,0.09869
2904.65784,0.09735
2902.72912,0.09607
2900.80039,0.09474
2898.87167,0.09340
2896.94295,0.09218
2895.01422,0.09103
2893.08550,0.08983
2891.15677,0.08871
2889.22805,0.08774
2887.29933,0.08679
2885.37060,0.08582
2883.44188,0.08495
2881.51316,0.08429
2879.58443,0.08382
2877.65571,0.08344
2875.72698,0.08305
2873.79826,0.08253
2871.86954,0.08191
2869.94081,0.08131
2868.01209,0.08072
2866.08337,0.08012
2864.15464,0.07973
2862.22592,0.07967
2860.29720,0.07984
2858.36847,0.08011
2856.43975,0.08036
2854.51102,0.08037
2852.58230,0.07980
2850.65358,0.07851
2848.72485,0.07668
2846.79613,0.07458
2844.86741,0.07234
2842.93868,0.07017
2841.00996,0.06835
2839.08124,0.06692
2837.15251,0.06564
2835.22379,0.06440
2833.29506,0.06332
2831.36634,0.06240
2829.43762,0.06155
2827.50889,0.06079
2825.58017,0.06010
2823.65145,0.05933
2821.72272,0.05849
2819.79400,0.05771
2817.86527,0.05701
2815.93655,0.05632
2814.00783,0.05564
2812.07910,0.05499
2810.15038,0.05435
2808.22166,0.05371
2806.29293,0.05307
2804.36421,0.05249
2802.43549,0.05195
2800.50676,0.05140
2798.57804,0.05082
2796.64931,0.05028
2794.72059,0.04974
2792.79187,0.04914
2790.86314,0.04854
2788.93442,0.04806
2787.00570,0.04764
2785.07697,0.04716
2783.14825,0.04660
2781.21953,0.04606
2779.29080,0.04559
2777.36208,0.04516
2775.43335,0.04472
2773.50463,0.04424
2771.57591,0.04374
2769.64718,0.04323
2767.71846,0.04275
2765.78974,0.04232
2763.86101,0.04193
2761.93229,0.04157
2760.00356,0.04118
2758.07484,0.04065
2756.14612,0.04004
2754.21739,0.03953
2752.28867,0.03918
2750.35995,0.03889
2748.43122,0.03855
2746.50250,0.03819
2744.57378,0.03778
2742.64505,0.03726
2740.71633,0.03675
2738.78760,0.03637
2736.85888,0.03603
2734.93016,0.03564
2733.00143,0.03525
2731.07271,0.03495
2729.14399,0.03466
2727.21526,0.03426
2725.28654,0.03375
2723.35782,0.03328
2721.42909,0.03289
2719.50037,0.03248
2717.57164,0.03208
2715.64292,0.03172
2713.71420,0.03133
2711.78547,0.03091
2709.85675,0.03050
2707.92803,0.03009
2705.99930,0.02970
2704.07058,0.02941
2702.14185,0.02915
2700.21313,0.02878
2698.28441,0.02840
2696.35568,0.02811
2694.42696,0.02783
2692.49824,0.02746
2690.56951,0.02701
2688.64079,0.02659
2686.71207,0.02625
2684.78334,0.02599
2682.85462,0.02576
2680.92589,0.02548
2678.99717,0.02517
2677.06845,0.02489
2675.13972,0.02454
2673.21100,0.02407
2671.28228,0.02361
2669.35355,0.02328
2667.42483,0.02303
2665.49611,0.02275
2663.56738,0.02239
2661.63866,0.02202
2659.70993,0.02175
2657.78121,0.02150
2655.85249,0.02110
2653.92376,0.02069
2651.99504,0.02039
2650.06632,0.02016
2648.13759,0.01992
2646.20887,0.01964
2644.28014,0.01935
2642.35142,0.01906
2640.42270,0.01874
2638.49397,0.01844
2636.56525,0.01817
2634.63653,0.01789
2632.70780,0.01758
2630.77908,0.01729
2628.85036,0.01703
2626.92163,0.01685
2624.99291,0.01671
2623.06418,0.01642
2621.13546,0.01604
2619.20674,0.01577
2617.27801,0.01563
2615.34929,0.01551
2613.42057,0.01531
2611.49184,0.01503
2609.56312,0.01474
2607.63440,0.01447
2605.70567,0.01421
2603.77695,0.01396
2601.84822,0.01371
2599.91950,0.01342
2597.99078,0.01308
2596.06205,0.01283
2594.13333,0.01270
2592.20461,0.01261
2590.27588,0.01249
2588.34716,0.01235
2586.41843,0.01215
2584.48971,0.01189
2582.56099,0.01161
2580.63226,0.01139
2578.70354,0.01119
2576.77482,0.01096
2574.84609,0.01065
2572.91737,0.01032
2570.98865,0.01010
2569.05992,0.00993
2567.13120,0.00971
2565.20247,0.00947
2563.27375,0.00926
2561.34503,0.00906
2559.41630,0.00885
2557.48758,0.00865
2555.55886,0.00846
2553.63013,0.00830
2551.70141,0.00812
2549.77269,0.00793
2547.84396,0.00781
2545.91524,0.00772
2543.98651,0.00758
2542.05779,0.00739
2540.12907,0.00724
2538.20034,0.00712
2536.27162,0.00697
2534.34290,0.00677
2532.41417,0.00660
2530.48545,0.00650
2528.55673,0.00641
2526.62800,0.00629
2524.69928,0.00613
2522.77055,0.00598
2520.84183,0.00585
2518.91311,0.00566
2516.98438,0.00545
2515.05566,0.00534
2513.12694,0.00531
2511.19821,0.00521
2509.26949,0.00502
2507.34076,0.00480
2505.41204,0.00465
2503.48332,0.00457
2501.55459,0.00449
2499.62587,0.00436
2497.69715,0.00421
2495.76842,0.00407
2493.83970,0.00397
2491.91098,0.00388
2489.98225,0.00381
2488.05353,0.00376
2486.12480,0.00364
2484.19608,0.00348
2482.26736,0.00335
2480.33863,0.00326
2478.40991,0.00318
2476.48119,0.00304
2474.55246,0.00286
2472.62374,0.00273
2470.69502,0.00264
2468.76629,0.00250
2466.83757,0.00240
2464.90884,0.00231
2462.98012,0.00212
2461.05140,0.00190
2459.12267,0.00182
2457.19395,0.00186
2455.26523,0.00185
2453.33650,0.00173
2451.40778,0.00159
2449.47905,0.00151
2447.55033,0.00143
2445.62161,0.00131
2443.69288,0.00125
2441.76416,0.00123
2439.83544,0.00117
2437.90671,0.00105
2435.97799,0.00096
2434.04927,0.00093
2432.12054,0.00090
2430.19182,0.00085
2428.26309,0.00085
2426.33437,0.00087
2424.40565,0.00084
2422.47692,0.00068
2420.54820,0.00050
2418.61948,0.00042
2416.69075,0.00037
2414.76203,0.00028
2412.83331,0.00021
2410.90458,0.00018
2408.97586,0.00015
2407.04713,0.00010
2405.11841,0.00004
2403.18969,0.00000
2401.26096,-0.00001
2399.33224,-0.00002
2397.40352,-0.00003
2395.47479,-0.00001
2393.54607,0.00003
2391.61734,0.00005
2389.68862,-0.00000
2387.75990,-0.00010
2385.83117,-0.00017
2383.90245,-0.00015
2381.97373,-0.00007
2380.04500,-0.00000
2378.11628,-0.00000
2376.18756,-0.00001
2374.25883,0.00005
2372.33011,0.00018
2370.40138,0.00033
2368.47266,0.00047
2366.54394,0.00064
2364.61521,0.00079
2362.68649,0.00082
2360.75777,0.00078
2358.82904,0.00085
2356.90032,0.00103
2354.97160,0.00110
2353.04287,0.00097
2351.11415,0.00072
2349.18542,0.00052
2347.25670,0.00047
2345.32798,0.00057
2343.39925,0.00073
2341.47053,0.00083
2339.54181,0.00083
2337.61308,0.00075
2335.68436,0.00063
2333.75563,0.00045
2331.82691,0.00025
2329.89819,0.00015
2327.96946,0.00019
2326.04074,0.00025
2324.11202,0.00027
2322.18329,0.00031
2320.25457,0.00033
2318.32585,0.00026
2316.39712,0.00010
2314.46840,0.00000
2312.53967,0.00002
2310.61095,0.00008
2308.68223,0.00004
2306.75350,-0.00008
2304.82478,-0.00016
2302.89606,-0.00019
2300.96733,-0.00018
2299.03861,-0.00017
2297.10989,-0.00017
2295.18116,-0.00016
2293.25244,-0.00015
2291.32371,-0.00019
2289.39499,-0.00027
2287.46627,-0.00027
2285.53754,-0.00014
2283.60882,0.00003
2281.68010,0.00011
2279.75137,0.00011
2277.82265,0.00014
2275.89392,0.00021
2273.96520,0.00023
2272.03648,0.00017
2270.10775,0.00011
2268.17903,0.00012
2266.25031,0.00021
2264.32158,0.00032
2262.39286,0.00034
2260.46414,0.00028
2258.53541,0.00023
2256.60669,0.00020
2254.67796,0.00017
2252.74924,0.00011
2250.82052,0.00005
2248.89179,0.00003
2246.96307,0.00002
2245.03435,0.00001
2243.10562,0.00001
2241.17690,0.00001
2239.24818,-0.00003
2237.31945,-0.00009
2235.39073,-0.00009
2233.46200,-0.00005
2231.53328,-0.00003
2229.60456,-0.00006
2227.67583,-0.00013
2225.74711,-0.00017
2223.81839,-0.00018
2221.88966,-0.00018
2219.96094,-0.00015
2218.03221,-0.00014
2216.10349,-0.00016
2214.17477,-0.00016
2212.24604,-0.00010
2210.31732,-0.00002
2208.38860,0.00001
2206.45987,0.00000
2204.53115,0.00001
2202.60243,0.00006
2200.67370,0.00013
2198.74498,0.00019
2196.81625,0.00022
2194.88753,0.00025
2192.95881,0.00025
2191.03008,0.00028
2189.10136,0.00035
2187.17264,0.00036
2185.24391,0.00027
2183.31519,0.00021
2181.38647,0.00026
2179.45774,0.00032
2177.52902,0.00033
2175.60029,0.00035
2173.67157,0.00040
2171.74285,0.00039
2169.81412,0.00035
2167.88540,0.00035
2165.95668,0.00033
2164.02795,0.00029
2162.09923,0.00028
2160.17050,0.00029
2158.24178,0.00033
2156.31306,0.00038
2154.38433,0.00039
2152.45561,0.00039
2150.52689,0.00043
2148.59816,0.00048
2146.66944,0.00056
2144.74072,0.00067
2142.81199,0.00077
2140.88327,0.00088
2138.95454,0.00094
2137.02582,0.00087
2135.09710,0.00074
2133.16837,0.00064
2131.23965,0.00062
2129.31093,0.00063
2127.38220,0.00059
2125.45348,0.00055
2123.52476,0.00052
2121.59603,0.00049
2119.66731,0.00046
2117.73858,0.00041
2115.80986,0.00035
2113.88114,0.00024
2111.95241,0.00011
2110.02369,0.00009
2108.09497,0.00014
2106.16624,0.00008
2104.23752,-0.00002
2102.30880,-0.00005
2100.38007,-0.00003
2098.45135,-0.00003
2096.52262,-0.00000
2094.59390,0.00000
2092.66518,-0.00008
2090.73645,-0.00011
2088.80773,-0.00012
2086.87901,-0.00022
2084.95028,-0.00034
2083.02156,-0.00041
2081.09283,-0.00041
2079.16411,-0.00040
2077.23539,-0.00046
2075.30666,-0.00054
2073.37794,-0.00055
2071.44922,-0.00053
2069.52049,-0.00052
2067.59177,-0.00049
2065.66305,-0.00039
2063.73432,-0.00027
2061.80560,-0.00023
2059.87687,-0.00023
2057.94815,-0.00024
2056.01943,-0.00021
2054.09070,-0.00011
2052.16198,0.00001
2050.23326,0.00010
2048.30453,0.00018
2046.37581,0.00028
2044.44709,0.00040
2042.51836,0.00054
2040.58964,0.00074
2038.66091,0.00101
2036.73219,0.00130
2034.80347,0.00156
2032.87474,0.00174
2030.94602,0.00183
2029.01730,0.00191
2027.08857,0.00204
2025.15985,0.00218
2023.23112,0.00225
2021.30240,0.00227
2019.37368,0.00226
2017.44495,0.00234
2015.51623,0.00250
2013.58751,0.00266
2011.65878,0.00276
2009.73006,0.00286
2007.80134,0.00294
2005.87261,0.00299
2003.94389,0.00302
2002.01516,0.00304
2000.08644,0.00307
1998.15772,0.00308
1996.22899,0.00303
1994.30027,0.00294
1992.37155,0.00291
1990.44282,0.00289
1988.51410,0.00281
1986.58538,0.00271
1984.65665,0.00265
1982.72793,0.00262
1980.79920,0.00261
1978.87048,0.00252
1976.94176,0.00235
1975.01303,0.00218
1973.08431,0.00207
1971.15559,0.00198
1969.22686,0.00188
1967.29814,0.00175
1965.36941,0.00158
1963.44069,0.00140
1961.51197,0.00123
1959.58324,0.00110
1957.65452,0.00102
1955.72580,0.00093
1953.79707,0.00083
1951.86835,0.00072
1949.93963,0.00057
1948.01090,0.00045
1946.08218,0.00039
1944.15345,0.00033
1942.22473,0.00025
1940.29601,0.00018
1938.36728,0.00015
1936.43856,0.00014
1934.50984,0.00013
1932.58111,0.00011
1930.65239,0.00009
1928.72367,0.00006
1926.79494,0.00000
1924.86622,-0.00009
1922.93749,-0.00007
1921.00877,0.00005
1919.08005,0.00027
1917.15132,0.00056
1915.22260,0.00079
1913.29388,0.00101
1911.36515,0.00131
1909.43643,0.00168
1907.50770,0.00207
1905.57898,0.00250
1903.65026,0.00294
1901.72153,0.00339
1899.79281,0.00384
1897.86409,0.00426
1895.93536,0.00467
1894.00664,0.00507
1892.07792,0.00547
1890.14919,0.00587
1888.22047,0.00623
1886.29174,0.00647
1884.36302,0.00664
1882.43430,0.00682
1880.50557,0.00697
1878.57685,0.00709
1876.64813,0.00717
1874.71940,0.00719
1872.79068,0.00712
1870.86196,0.00703
1868.93323,0.00694
1867.00451,0.00682
1865.07578,0.00657
1863.14706,0.00624
1861.21834,0.00590
1859.28961,0.00554
1857.36089,0.00514
1855.43217,0.00468
1853.50344,0.00414
1851.57472,0.00359
1849.64599,0.00310
1847.71727,0.00272
1845.78855,0.00247
1843.85982,0.00227
1841.93110,0.00196
1840.00238,0.00152
1838.07365,0.00109
1836.14493,0.00078
1834.21621,0.00052
1832.28748,0.00024
1830.35876,0.00000
1828.43003,-0.00013
1826.50131,-0.00019
1824.57259,-0.00019
1822.64386,-0.00018
1820.71514,-0.00018
1818.78642,-0.00017
1816.85769,-0.00010
1814.92897,0.00000
1813.00025,0.00003
1811.07152,0.00015
1809.14280,0.00036
1807.21407,0.00050
1805.28535,0.00053
1803.35663,0.00057
1801.42790,0.00077
1799.49918,0.00113
1797.57046,0.00148
1795.64173,0.00174
1793.71301,0.00208
1791.78428,0.00261
1789.85556,0.00316
1787.92684,0.00358
1785.99811,0.00399
1784.06939,0.00447
1782.14067,0.00503
1780.21194,0.00567
1778.28322,0.00627
1776.35450,0.00671
1774.42577,0.00716
1772.49705,0.00790
1770.56832,0.00889
1768.63960,0.00976
1766.71088,0.01043
1764.78215,0.01102
1762.85343,0.01167
1760.92471,0.01239
1758.99598,0.01298
1757.06726,0.01349
1755.13854,0.01402
1753.20981,0.01458
1751.28109,0.01527
1749.35236,0.01615
1747.42364,0.01705
1745.49492,0.01788
1743.56619,0.01872
1741.63747,0.01970
1739.70875,0.02081
1737.78002,0.02187
1735.85130,0.02307
1733.92257,0.02486
1731.99385,0.02687
1730.06513,0.02859
1728.13640,0.03016
1726.20768,0.03177
1724.27896,0.03349
1722.35023,0.03519
1720.42151,0.03676
1718.49279,0.03872
1716.56406,0.04142
1714.63534,0.04408
1712.70661,0.04623
1710.77789,0.04813
1708.84917,0.05001
1706.92044,0.05209
1704.99172,0.05434
1703.06300,0.05649
1701.13427,0.05895
1699.20555,0.06202
1697.27683,0.06517
1695.34810,0.06833
1693.41938,0.07122
1691.49065,0.07377
1689.56193,0.07634
1687.63321,0.07883
1685.70448,0.08168
1683.77576,0.08562
1681.84704,0.08942
1679.91831,0.09211
1677.98959,0.09442
1676.06087,0.09708
1674.13214,0.09994
1672.20342,0.10254
1670.27469,0.10527
1668.34597,0.10831
1666.41725,0.11087
1664.48852,0.11308
1662.55980,0.11555
1660.63108,0.11801
1658.70235,0.11981
1656.77363,0.12101
1654.84490,0.12255
1652.91618,0.12512
1650.98746,0.12724
1649.05873,0.12822
1647.13001,0.12927
1645.20129,0.13072
1643.27256,0.13181
1641.34384,0.13246
1639.41512,0.13287
1637.48639,0.13324
1635.55767,0.13372
1633.62894,0.13405
1631.70022,0.13393
1629.77150,0.13341
1627.84277,0.13264
1625.91405,0.13159
1623.98533,0.13025
1622.05660,0.12871
1620.12788,0.12699
1618.19916,0.12480
1616.27043,0.12214
1614.34171,0.11955
1612.41298,0.11718
1610.48426,0.11473
1608.55554,0.11212
1606.62681,0.10943
1604.69809,0.10672
1602.76937,0.10400
1600.84064,0.10141
1598.91192,0.09910
1596.98319,0.09702
1595.05447,0.09503
1593.12575,0.09313
1591.19702,0.09133
1589.26830,0.08957
1587.33958,0.08783
1585.41085,0.08616
1583.48213,0.08458
1581.55341,0.08309
1579.62468,0.08157
1577.69596,0.07996
1575.76723,0.07848
1573.83851,0.07738
1571.90979,0.07640
1569.98106,0.07525
1568.05234,0.07402
1566.12362,0.07292
1564.19489,0.07195
1562.26617,0.07099
1560.33745,0.06994
1558.40872,0.06888
1556.48000,0.06798
1554.55127,0.06709
1552.62255,0.06603
1550.69383,0.06485
1548.76510,0.06369
1546.83638,0.06251
1544.90766,0.06116
1542.97893,0.05967
1541.05021,0.05817
1539.12148,0.05671
1537.19276,0.05545
1535.26404,0.05417
1533.33531,0.05267
1531.40659,0.05113
1529.47787,0.04969
1527.54914,0.04822
1525.62042,0.04670
1523.69170,0.04520
1521.76297,0.04370
1519.83425,0.04236
1517.90552,0.04121
1515.97680,0.04001
1514.04808,0.03867
1512.11935,0.03727
1510.19063,0.03582
1508.26191,0.03402
1506.33318,0.03182
1504.40446,0.02997
1502.47574,0.02851
1500.54701,0.02698
1498.61829,0.02530
1496.68956,0.02379
1494.76084,0.02265
1492.83212,0.02179
1490.90339,0.02111
1488.97467,0.02068
1487.04595,0.02050
1485.11722,0.02050
1483.18850,0.02076
1481.25977,0.02135
1479.33105,0.02213
1477.40233,0.02301
1475.47360,0.02420
1473.54488,0.02602
1471.61616,0.02809
1469.68743,0.02971
1467.75871,0.03121
1465.82999,0.03312
1463.90126,0.03454
1461.97254,0.03445
1460.04381,0.03379
1458.11509,0.03401
1456.18637,0.03505
1454.25764,0.03564
1452.32892,0.03552
1450.40020,0.03512
1448.47147,0.03491
1446.54275,0.03526
1444.61403,0.03624
1442.68530,0.03767
1440.75658,0.03929
1438.82785,0.04092
1436.89913,0.04241
1434.97041,0.04346
1433.04168,0.04435
1431.11296,0.04610
1429.18424,0.04828
1427.25551,0.04907
1425.32679,0.04828
1423.39806,0.04738
1421.46934,0.04714
1419.54062,0.04724
1417.61189,0.04725
1415.68317,0.04692
1413.75445,0.04632
1411.82572,0.04566
1409.89700,0.04510
1407.96828,0.04471
1406.03955,0.04457
1404.11083,0.04460
1402.18210,0.04445
1400.25338,0.04387
1398.32466,0.04293
1396.39593,0.04183
1394.46721,0.04073
1392.53849,0.03970
1390.60976,0.03895
1388.68104,0.03882
1386.75232,0.03937
1384.82359,0.03957
1382.89487,0.03846
1380.96614,0.03646
1379.03742,0.03464
1377.10870,0.03333
1375.17997,0.03221
1373.25125,0.03107
1371.32253,0.02990
1369.39380,0.02869
1367.46508,0.02755
1365.53635,0.02658
1363.60763,0.02570
1361.67891,0.02479
1359.75018,0.02390
1357.82146,0.02307
1355.89274,0.02231
1353.96401,0.02162
1352.03529,0.02102
1350.10657,0.02052
1348.17784,0.02012
1346.24912,0.01980
1344.32039,0.01950
1342.39167,0.01922
1340.46295,0.01918
1338.53422,0.01946
1336.60550,0.01977
1334.67678,0.01991
1332.74805,0.02010
1330.81933,0.02060
1328.89061,0.02142
1326.96188,0.02255
1325.03316,0.02411
1323.10443,0.02630
1321.17571,0.02950
1319.24699,0.03430
1317.31826,0.04091
1315.38954,0.04912
1313.46082,0.05872
1311.53209,0.06928
1309.60337,0.08049
1307.67464,0.09396
1305.74592,0.11377
1303.81720,0.14151
1301.88847,0.16797
1299.95975,0.17975
1298.03103,0.17963
1296.10230,0.17978
1294.17358,0.18104
1292.24486,0.17706
1290.31613,0.16648
1288.38741,0.15183
1286.45868,0.13530
1284.52996,0.11871
1282.60124,0.10364
1280.67251,0.09099
1278.74379,0.08114
1276.81507,0.07420
1274.88634,0.07003
1272.95762,0.06819
1271.02890,0.06815
1269.10017,0.06957
1267.17145,0.07229
1265.24272,0.07626
1263.31400,0.08147
1261.38528,0.08776
1259.45655,0.09497
1257.52783,0.10299
1255.59911,0.11170
1253.67038,0.12078
1251.74166,0.12985
1249.81294,0.13865
1247.88421,0.14705
1245.95549,0.15495
1244.02676,0.16240
1242.09804,0.16950
1240.16932,0.17627
1238.24059,0.18268
1236.31187,0.18867
1234.38315,0.19435
1232.45442,0.19987
1230.52570,0.20531
1228.59697,0.21082
1226.66825,0.21657
1224.73953,0.22240
1222.81080,0.22792
1220.88208,0.23329
1218.95336,0.23907
1217.02463,0.24520
1215.09591,0.25102
1213.16719,0.25637
1211.23846,0.26189
1209.30974,0.26806
1207.38101,0.27494
1205.45229,0.28275
1203.52357,0.29204
1201.59484,0.30431
1199.66612,0.32239
1197.73740,0.34866
1195.80867,0.38239
1193.87995,0.41705
1191.95123,0.43996
1190.02250,0.44503
1188.09378,0.44432
1186.16505,0.44864
1184.23633,0.45132
1182.30761,0.44291
1180.37888,0.42655
1178.45016,0.40877
1176.52144,0.39176
1174.59271,0.37576
1172.66399,0.36099
1170.73526,0.34792
1168.80654,0.33679
1166.87782,0.32741
1164.94909,0.31963
1163.02037,0.31372
1161.09165,0.30964
1159.16292,0.30678
1157.23420,0.30500
1155.30548,0.30439
1153.37675,0.30466
1151.44803,0.30548
1149.51930,0.30662
1147.59058,0.30787
1145.66186,0.30923
1143.73313,0.31088
1141.80441,0.31297
1139.87569,0.31555
1137.94696,0.31828
1136.01824,0.32077
1134.08952,0.32316
1132.16079,0.32583
1130.23207,0.32903
1128.30334,0.33289
1126.37462,0.33765
1124.44590,0.34351
1122.51717,0.35066
1120.58845,0.35949
1118.65973,0.37023
1116.73100,0.38224
1114.80228,0.39345
1112.87355,0.40164
1110.94483,0.40697
1109.01611,0.41354
1107.08738,0.42509
1105.15866,0.43601
1103.22994,0.43847
1101.30121,0.43717
1099.37249,0.43853
1097.44377,0.44060
1095.51504,0.44055
1093.58632,0.43862
1091.65759,0.43537
1089.72887,0.43074
1087.80015,0.42542
1085.87142,0.42105
1083.94270,0.41809
1082.01398,0.41545
1080.08525,0.41233
1078.15653,0.40930
1076.22781,0.40712
1074.29908,0.40542
1072.37036,0.40327
1070.44163,0.40062
1068.51291,0.39796
1066.58419,0.39500
1064.65546,0.39131
1062.72674,0.38758
1060.79802,0.38420
1058.86929,0.38047
1056.94057,0.37607
1055.01184,0.37179
1053.08312,0.36808
1051.15440,0.36421
1049.22567,0.35961
1047.29695,0.35486
1045.36823,0.35089
1043.43950,0.34758
1041.51078,0.34410
1039.58206,0.34014
1037.65333,0.33606
1035.72461,0.33217
1033.79588,0.32842
1031.86716,0.32452
1029.93844,0.31997
1028.00971,0.31498
1026.08099,0.31035
1024.15227,0.30623
1022.22354,0.30227
1020.29482,0.29812
1018.36610,0.29377
1016.43737,0.28942
1014.50865,0.28513
1012.57992,0.28095
1010.65120,0.27669
1008.72248,0.27212
1006.79375,0.26756
1004.86503,0.26315
1002.93631,0.25855
1001.00758,0.25381
999.07886,0.24937
997.15013,0.24533
995.22141,0.24153
993.29269,0.23812
991.36396,0.23541
989.43524,0.23316
987.50652,0.23089
985.57779,0.22849
983.64907,0.22570
981.72035,0.22236
979.79162,0.21937
977.86290,0.21783
975.93417,0.21739
974.00545,0.21624
972.07673,0.21259
970.14800,0.20646
968.21928,0.19977
966.29056,0.19416
964.36183,0.18944
962.43311,0.18472
960.50439,0.17979
958.57566,0.17498
956.64694,0.17045
954.71821,0.16622
952.78949,0.16227
950.86077,0.15840
948.93204,0.15446
947.00332,0.15069
945.07460,0.14721
943.14587,0.14395
941.21715,0.14098
939.28842,0.13842
937.35970,0.13596
935.43098,0.13300
933.50225,0.12967
931.57353,0.12674
929.64481,0.12440
927.71608,0.12222
925.78736,0.11989
923.85864,0.11754
921.92991,0.11544
920.00119,0.11352
918.07246,0.11152
916.14374,0.10938
914.21502,0.10703
912.28629,0.10434
910.35757,0.10131
908.42885,0.09791
906.50012,0.09448
904.57140,0.09131
902.64268,0.08813
900.71395,0.08472
898.78523,0.08127
896.85650,0.07792
894.92778,0.07490
892.99906,0.07216
891.07033,0.06926
889.14161,0.06622
887.21289,0.06367
885.28416,0.06167
883.35544,0.05986
881.42671,0.05786
879.49799,0.05554
877.56927,0.05309
875.64054,0.05086
873.71182,0.04907
871.78310,0.04758
869.85437,0.04613
867.92565,0.04469
865.99693,0.04338
864.06820,0.04216
862.13948,0.04107
860.21075,0.04039
858.28203,0.04015
856.35331,0.03998
854.42458,0.03978
852.49586,0.03966
850.56714,0.03963
848.63841,0.03990
846.70969,0.04097
844.78097,0.04309
842.85224,0.04542
840.92352,0.04672
838.99479,0.04745
837.06607,0.04873
835.13735,0.05048
833.20862,0.05239
831.27990,0.05461
829.35118,0.05698
827.42245,0.05896
825.49373,0.06061
823.56501,0.06264
821.63628,0.06517
819.70756,0.06752
817.77883,0.06957
815.85011,0.07192
813.92139,0.07463
811.99266,0.07750
810.06394,0.08058
808.13522,0.08368
806.20649,0.08652
804.27777,0.08913
802.34904,0.09130
800.42032,0.09266
798.49160,0.09323
796.56287,0.09327
794.63415,0.09297
792.70543,0.09233
790.77670,0.09131
788.84798,0.09020
786.91926,0.08887
784.99053,0.08686
783.06181,0.08480
781.13308,0.08329
779.20436,0.08151
777.27564,0.07867
775.34691,0.07514
773.41819,0.07154
771.48947,0.06841
769.56074,0.06628
767.63202,0.06511
765.70330,0.06449
763.77457,0.06410
761.84585,0.06385
759.91712,0.06373
757.98840,0.06363
756.05968,0.06335
754.13095,0.06270
752.20223,0.06194
750.27351,0.06154
748.34478,0.06172
746.41606,0.06219
744.48733,0.06222
742.55861,0.06164
740.62989,0.06102
738.70116,0.06056
736.77244,0.06016
734.84372,0.06003
732.91499,0.06003
730.98627,0.05972
729.05755,0.05940
727.12882,0.05962
725.20010,0.06015
723.27137,0.06031
721.34265,0.05994
719.41393,0.05964
717.48520,0.05965
715.55648,0.05949
713.62776,0.05890
711.69903,0.05834
709.77031,0.05832
707.84159,0.05881
705.91286,0.05946
703.98414,0.06011
702.05541,0.06079
700.12669,0.06155
698.19797,0.06251
696.26924,0.06367
694.34052,0.06453
692.41180,0.06490
690.48307,0.06543
688.55435,0.06643
686.62562,0.06735
684.69690,0.06825
682.76818,0.07011
680.83945,0.07315
678.91073,0.07642
676.98201,0.07900
675.05328,0.08046
673.12456,0.08099
671.19584,0.08154
669.26711,0.08346
667.33839,0.08603
665.40966,0.08635
663.48094,0.08466
661.55222,0.08331
659.62349,0.08303
657.69477,0.08306
655.76605,0.08268
653.83732,0.08151
651.90860,0.07980
649.97988,0.07825
648.05115,0.07731
646.12243,0.07695
644.19370,0.07696
642.26498,0.07723
640.33626,0.07743
638.40753,0.07712
636.47881,0.07658
634.55009,0.07671
632.62136,0.07780
630.69264,0.07905
628.76391,0.07985
626.83519,0.08025
624.90647,0.08016
622.97774,0.07952
621.04902,0.07959
619.12030,0.08119
617.19157,0.08305
615.26285,0.08431
613.33413,0.08559
611.40540,0.08657
609.47668,0.08694
607.54795,0.08756
605.61923,0.08880
603.69051,0.09028
601.76178,0.09191
599.83306,0.09374
597.90434,0.09574
595.97561,0.09779
594.04689,0.09941
592.11817,0.10028
590.18944,0.10076
588.26072,0.10168
586.33199,0.10324
584.40327,0.10465
582.47455,0.10534
580.54582,0.10598
578.61710,0.10714
576.68838,0.10834
574.75965,0.10951
572.83093,0.11126
570.90220,0.11335
568.97348,0.11499
567.04476,0.11603
565.11603,0.11703
563.18731,0.11846
561.25859,0.12033
559.32986,0.12236
557.40114,0.12420
555.47242,0.12552
553.54369,0.12685
551.61497,0.12892
549.68624,0.13079
547.75752,0.13203
545.82880,0.13406
543.90007,0.13684
541.97135,0.13922
540.04263,0.14080
538.11390,0.14155
536.18518,0.14175
534.25646,0.14152
532.32773,0.14057
530.39901,0.13905
528.47028,0.13796
526.54156,0.13864
524.61284,0.14092
522.68411,0.14271
520.75539,0.14281
518.82667,0.14279
516.89794,0.14431
514.96922,0.14592
513.04049,0.14614
511.11177,0.14654
509.18305,0.14890
507.25432,0.15252
505.32560,0.15600
503.39688,0.16012
501.46815,0.16619
499.53943,0.17320
497.61071,0.17995
495.68198,0.18641
493.75326,0.19289
491.82453,0.20039
489.89581,0.20949
487.96709,0.21907
486.03836,0.22802
484.10964,0.23645
482.18092,0.24447
480.25219,0.25140
478.32347,0.25750
476.39475,0.26387
474.46602,0.26959
472.53730,0.27389
470.60857,0.27883
468.67985,0.28424
466.75113,0.28629
464.82240,0.28373
462.89368,0.27866
460.96496,0.27170
459.03623,0.26206
457.10751,0.25186
455.17878,0.24591
453.25006,0.24512
451.32134,0.24490
449.39261,0.24131
447.46389,0.23564
445.53517,0.23024
443.60644,0.22375
441.67772,0.21536
439.74900,0.20900
437.82027,0.20637
435.89155,0.20285
433.96282,0.19530
432.03410,0.18703
430.10538,0.18054
428.17665,0.17415
426.24793,0.16828
424.31921,0.16538
422.39048,0.16344
420.46176,0.15804
418.53304,0.15002
416.60431,0.14464
414.67559,0.14199
412.74686,0.13802
410.81814,0.13050
408.88942,0.12084
406.96069,0.11310
405.03197,0.11063
403.10325,0.11271
401.17452,0.11392
399.24580,0.10683
397.31708,0.09154
395.38835,0.07985
393.45963,0.07565
391.53090,0.07325
389.60218,0.07157
387.67346,0.07370
385.74473,0.07893
383.81601,0.08203
381.88729,0.07801
379.95856,0.06681
378.02984,0.05079
376.10111,0.02800
374.17239,0.00290
372.24367,0.00000
370.31494,-0.00615
368.38622,0.00000
