3996.31543,0.00000
3994.38671,0.00011
3992.45799,0.00037
3990.52926,0.00058
3988.60054,0.00064
3986.67182,0.00060
3984.74309,0.00059
3982.81437,0.00074
3980.88564,0.00098
3978.95692,0.00109
3977.02820,0.00102
3975.09947,0.00092
3973.17075,0.00095
3971.24203,0.00111
3969.31330,0.00129
3967.38458,0.00131
3965.45586,0.00112
3963.52713,0.00087
3961.59841,0.00068
3959.66968,0.00057
3957.74096,0.00063
3955.81224,0.00084
3953.88351,0.00100
3951.95479,0.00102
3950.02607,0.00102
3948.09734,0.00103
3946.16862,0.00100
3944.23990,0.00088
3942.31117,0.00076
3940.38245,0.00076
3938.45372,0.00084
3936.52500,0.00085
3934.59628,0.00075
3932.66755,0.00067
3930.73883,0.00069
3928.81011,0.00070
3926.88138,0.00068
3924.95266,0.00075
3923.02393,0.00083
3921.09521,0.00087
3919.16649,0.00090
3917.23776,0.00095
3915.30904,0.00095
3913.38032,0.00081
3911.45159,0.00050
3909.52287,0.00017
3907.59415,0.00001
3905.66542,0.00019
3903.73670,0.00063
3901.80797,0.00089
3899.87925,0.00080
3897.95053,0.00061
3896.02180,0.00047
3894.09308,0.00041
3892.16436,0.00047
3890.23563,0.00053
3888.30691,0.00040
3886.37819,0.00017
3884.44946,0.00017
3882.52074,0.00037
3880.59201,0.00049
3878.66329,0.00038
3876.73457,0.00019
3874.80584,0.00020
3872.87712,0.00040
3870.94840,0.00051
3869.01967,0.00040
3867.09095,0.00013
3865.16222,0.00000
3863.23350,0.00018
3861.30478,0.00038
3859.37605,0.00026
3857.44733,-0.00003
3855.51861,-0.00011
3853.58988,0.00019
3851.66116,0.00050
3849.73244,0.00041
3847.80371,0.00007
3845.87499,-0.00017
3843.94626,-0.00013
3842.01754,0.00011
3840.08882,0.00033
3838.16009,0.00047
3836.23137,0.00052
3834.30265,0.00045
3832.37392,0.00033
3830.44520,0.00029
3828.51648,0.00034
3826.58775,0.00043
3824.65903,0.00057
3822.73030,0.00085
3820.80158,0.00115
3818.87286,0.00105
3816.94413,0.00070
3815.01541,0.00057
3813.08669,0.00057
3811.15796,0.00045
3809.22924,0.00032
3807.30052,0.00044
3805.37179,0.00075
3803.44307,0.00111
3801.51434,0.00151
3799.58562,0.00173
3797.65690,0.00176
3795.72817,0.00180
3793.79945,0.00177
3791.87073,0.00161
3789.94200,0.00149
3788.01328,0.00158
3786.08455,0.00190
3784.15583,0.00230
3782.22711,0.00253
3780.29838,0.00263
3778.36966,0.00280
3776.44094,0.00305
3774.51221,0.00321
3772.58349,0.00334
3770.65477,0.00356
3768.72604,0.00378
3766.79732,0.00389
3764.86859,0.00405
3762.93987,0.00441
3761.01115,0.00493
3759.08242,0.00552
3757.15370,0.00600
3755.22498,0.00632
3753.29625,0.00669
3751.36753,0.00728
3749.43881,0.00799
3747.51008,0.00856
3745.58136,0.00915
3743.65263,0.00986
3741.72391,0.01036
3739.79519,0.01065
3737.86646,0.01130
3735.93774,0.01262
3734.00902,0.01409
3732.08029,0.01517
3730.15157,0.01600
3728.22284,0.01693
3726.29412,0.01809
3724.36540,0.01950
3722.43667,0.02128
3720.50795,0.02346
3718.57923,0.02575
3716.65050,0.02783
3714.72178,0.02983
3712.79306,0.03244
3710.86433,0.03591
3708.93561,0.03940
3707.00688,0.04234
3705.07816,0.04508
3703.14944,0.04828
3701.22071,0.05214
3699.29199,0.05602
3697.36327,0.05935
3695.43454,0.06212
3693.50582,0.06453
3691.57710,0.06729
3689.64837,0.07122
3687.71965,0.07580
3685.79092,0.07990
3683.86220,0.08353
3681.93348,0.08718
3680.00475,0.09103
3678.07603,0.09553
3676.14731,0.10138
3674.21858,0.10738
3672.28986,0.11191
3670.36113,0.11617
3668.43241,0.12095
3666.50369,0.12516
3664.57496,0.12885
3662.64624,0.13266
3660.71752,0.13652
3658.78879,0.14037
3656.86007,0.14452
3654.93135,0.14857
3653.00262,0.15181
3651.07390,0.15503
3649.14517,0.15931
3647.21645,0.16377
3645.28773,0.16702
3643.35900,0.16938
3641.43028,0.17185
3639.50156,0.17479
3637.57283,0.17782
3635.64411,0.18046
3633.71539,0.18262
3631.78666,0.18472
3629.85794,0.18752
3627.92921,0.19103
3626.00049,0.19392
3624.07177,0.19578
3622.14304,0.19725
3620.21432,0.19886
3618.28560,0.20052
3616.35687,0.20177
3614.42815,0.20275
3612.49942,0.20381
3610.57070,0.20498
3608.64198,0.20626
3606.71325,0.20769
3604.78453,0.20908
3602.85581,0.21032
3600.92708,0.21151
3598.99836,0.21265
3597.06964,0.21383
3595.14091,0.21509
3593.21219,0.21627
3591.28346,0.21724
3589.35474,0.21830
3587.42602,0.21982
3585.49729,0.22147
3583.56857,0.22276
3581.63985,0.22381
3579.71112,0.22485
3577.78240,0.22585
3575.85368,0.22680
3573.92495,0.22786
3571.99623,0.22908
3570.06750,0.23026
3568.13878,0.23132
3566.21006,0.23238
3564.28133,0.23341
3562.35261,0.23436
3560.42389,0.23529
3558.49516,0.23619
3556.56644,0.23697
3554.63771,0.23780
3552.70899,0.23888
3550.78027,0.24005
3548.85154,0.24110
3546.92282,0.24210
3544.99410,0.24317
3543.06537,0.24428
3541.13665,0.24521
3539.20793,0.24591
3537.27920,0.24663
3535.35048,0.24752
3533.42175,0.24838
3531.49303,0.24916
3529.56431,0.24998
3527.63558,0.25078
3525.70686,0.25147
3523.77814,0.25218
3521.84941,0.25304
3519.92069,0.25393
3517.99197,0.25478
3516.06324,0.25564
3514.13452,0.25652
3512.20579,0.25728
3510.27707,0.25794
3508.34835,0.25862
3506.41962,0.25934
3504.49090,0.26005
3502.56218,0.26076
3500.63345,0.26148
3498.70473,0.26220
3496.77600,0.26294
3494.84728,0.26369
3492.91856,0.26448
3490.98983,0.26534
3489.06111,0.26615
3487.13239,0.26673
3485.20366,0.26721
3483.27494,0.26775
3481.34622,0.26836
3479.41749,0.26901
3477.48877,0.26968
3475.56004,0.27032
3473.63132,0.27098
3471.70260,0.27167
3469.77387,0.27232
3467.84515,0.27287
3465.91643,0.27333
3463.98770,0.27383
3462.05898,0.27442
3460.13026,0.27507
3458.20153,0.27566
3456.27281,0.27607
3454.34408,0.27628
3452.41536,0.27650
3450.48664,0.27680
3448.55791,0.27708
3446.62919,0.27743
3444.70047,0.27795
3442.77174,0.27855
3440.84302,0.27912
3438.91429,0.27946
3436.98557,0.27962
3435.05685,0.27990
3433.12812,0.28032
3431.19940,0.28070
3429.27068,0.28093
3427.34195,0.28099
3425.41323,0.28096
3423.48451,0.28104
3421.55578,0.28122
3419.62706,0.28145
3417.69833,0.28176
3415.76961,0.28217
3413.84089,0.28257
3411.91216,0.28272
3409.98344,0.28259
3408.05472,0.28242
3406.12599,0.28239
3404.19727,0.28247
3402.26855,0.28257
3400.33982,0.28260
3398.41110,0.28253
3396.48237,0.28247
3394.55365,0.28244
3392.62493,0.28239
3390.69620,0.28213
3388.76748,0.28169
3386.83876,0.28143
3384.91003,0.28140
3382.98131,0.28120
3381.05259,0.28072
3379.12386,0.28039
3377.19514,0.28042
3375.26641,0.28052
3373.33769,0.28041
3371.40897,0.28010
3369.48024,0.27966
3367.55152,0.27923
3365.62280,0.27890
3363.69407,0.27856
3361.76535,0.27814
3359.83662,0.27763
3357.90790,0.27710
3355.97918,0.27665
3354.05045,0.27626
3352.12173,0.27587
3350.19301,0.27551
3348.26428,0.27519
3346.33556,0.27482
3344.40684,0.27438
3342.47811,0.27395
3340.54939,0.27358
3338.62066,0.27316
3336.69194,0.27263
3334.76322,0.27221
3332.83449,0.27199
3330.90577,0.27166
3328.97705,0.27099
3327.04832,0.27032
3325.11960,0.26990
3323.19088,0.26952
3321.26215,0.26900
3319.33343,0.26849
3317.40470,0.26809
3315.47598,0.26772
3313.54726,0.26725
3311.61853,0.26675
3309.68981,0.26628
3307.76109,0.26583
3305.83236,0.26537
3303.90364,0.26498
3301.97491,0.26472
3300.04619,0.26442
3298.11747,0.26400
3296.18874,0.26351
3294.26002,0.26301
3292.33130,0.26262
3290.40257,0.26227
3288.47385,0.26181
3286.54513,0.26139
3284.61640,0.26106
3282.68768,0.26063
3280.75895,0.25999
3278.83023,0.25925
3276.90151,0.25867
3274.97278,0.25832
3273.04406,0.25796
3271.11534,0.25737
3269.18661,0.25679
3267.25789,0.25646
3265.32917,0.25621
3263.40044,0.25572
3261.47172,0.25508
3259.54299,0.25442
3257.61427,0.25378
3255.68555,0.25313
3253.75682,0.25243
3251.82810,0.25182
3249.89938,0.25132
3247.97065,0.25068
3246.04193,0.24990
3244.11320,0.24933
3242.18448,0.24905
3240.25576,0.24871
3238.32703,0.24809
3236.39831,0.24739
3234.46959,0.24680
3232.54086,0.24622
3230.61214,0.24552
3228.68342,0.24481
3226.75469,0.24424
3224.82597,0.24370
3222.89724,0.24300
3220.96852,0.24220
3219.03980,0.24143
3217.11107,0.24066
3215.18235,0.23977
3213.25363,0.23890
3211.32490,0.23820
3209.39618,0.23756
3207.46746,0.23682
3205.53873,0.23590
3203.61001,0.23490
3201.68128,0.23400
3199.75256,0.23319
3197.82384,0.23235
3195.89511,0.23151
3193.96639,0.23069
3192.03767,0.22973
3190.10894,0.22863
3188.18022,0.22760
3186.25149,0.22666
3184.32277,0.22579
3182.39405,0.22502
3180.46532,0.22419
3178.53660,0.22315
3176.60788,0.22214
3174.67915,0.22137
3172.75043,0.22060
3170.82171,0.21958
3168.89298,0.21842
3166.96426,0.21729
3165.03553,0.21625
3163.10681,0.21532
3161.17809,0.21442
3159.24936,0.21343
3157.32064,0.21244
3155.39192,0.21155
3153.46319,0.21073
3151.53447,0.20994
3149.60575,0.20912
3147.67702,0.20812
3145.74830,0.20700
3143.81957,0.20596
3141.89085,0.20500
3139.96213,0.20406
3138.03340,0.20311
3136.10468,0.20216
3134.17596,0.20138
3132.24723,0.20072
3130.31851,0.19985
3128.38978,0.19872
3126.46106,0.19759
3124.53234,0.19658
3122.60361,0.19572
3120.67489,0.19495
3118.74617,0.19410
3116.81744,0.19318
3114.88872,0.19225
3112.96000,0.19128
3111.03127,0.19027
3109.10255,0.18925
3107.17382,0.18829
3105.24510,0.18743
3103.31638,0.18663
3101.38765,0.18579
3099.45893,0.18487
3097.53021,0.18391
3095.60148,0.18293
3093.67276,0.18194
3091.74404,0.18097
3089.81531,0.18007
3087.88659,0.17925
3085.95786,0.17842
3084.02914,0.17756
3082.10042,0.17667
3080.17169,0.17570
3078.24297,0.17471
3076.31425,0.17380
3074.38552,0.17288
3072.45680,0.17186
3070.52807,0.17078
3068.59935,0.16970
3066.67063,0.16870
3064.74190,0.16779
3062.81318,0.16687
3060.88446,0.16596
3058.95573,0.16513
3057.02701,0.16432
3055.09829,0.16339
3053.16956,0.16228
3051.24084,0.16100
3049.31211,0.15976
3047.38339,0.15879
3045.45467,0.15800
3043.52594,0.15716
3041.59722,0.15627
3039.66850,0.15536
3037.73977,0.15442
3035.81105,0.15345
3033.88233,0.15250
3031.95360,0.15165
3030.02488,0.15086
3028.09615,0.15002
3026.16743,0.14911
3024.23871,0.14813
3022.30998,0.14714
3020.38126,0.14627
3018.45254,0.14549
3016.52381,0.14471
3014.59509,0.14391
3012.66636,0.14313
3010.73764,0.14242
3008.80892,0.14169
3006.88019,0.14087
3004.95147,0.14009
3003.02275,0.13943
3001.09402,0.13888
2999.16530,0.13844
2997.23658,0.13803
2995.30785,0.13747
2993.37913,0.13683
2991.45040,0.13624
2989.52168,0.13568
2987.59296,0.13522
2985.66423,0.13496
2983.73551,0.13484
2981.80679,0.13471
2979.87806,0.13447
2977.94934,0.13420
2976.02062,0.13403
2974.09189,0.13386
2972.16317,0.13360
2970.23444,0.13340
2968.30572,0.13337
2966.37700,0.13339
2964.44827,0.13334
2962.51955,0.13316
2960.59083,0.13287
2958.66210,0.13256
2956.73338,0.13220
2954.80466,0.13173
2952.87593,0.13124
2950.94721,0.13088
2949.01848,0.13061
2947.08976,0.13043
2945.16104,0.13036
2943.23231,0.13035
2941.30359,0.13045
2939.37487,0.13064
2937.44614,0.13084
2935.51742,0.13098
2933.58869,0.13104
2931.65997,0.13104
2929.73125,0.13096
2927.80252,0.13065
2925.87380,0.12998
2923.94508,0.12901
2922.01635,0.12784
2920.08763,0.12650
2918.15891,0.12497
2916.23018,0.12322
2914.30146,0.12141
2912.37273,0.11969
2910.44401,0.11799
2908.51529,0.11635
2906.58656,0.11487
2904.65784,0.11346
2902.72912,0.11216
2900.80039,0.11106
2898.87167,0.11005
2896.94295,0.10901
2895.01422,0.10794
2893.08550,0.10683
2891.15677,0.10570
2889.22805,0.10470
2887.29933,0.10380
2885.37060,0.10292
2883.44188,0.10210
2881.51316,0.10137
2879.58443,0.10066
2877.65571,0.09995
2875.72698,0.09933
2873.79826,0.09880
2871.86954,0.09816
2869.94081,0.09734
2868.01209,0.09655
2866.08337,0.09602
2864.15464,0.09568
2862.22592,0.09539
2860.29720,0.09523
2858.36847,0.09526
2856.43975,0.09530
2854.51102,0.09516
2852.58230,0.09456
2850.65358,0.09333
2848.72485,0.09150
2846.79613,0.08932
2844.86741,0.08711
2842.93868,0.08513
2841.00996,0.08340
2839.08124,0.08182
2837.15251,0.08033
2835.22379,0.07904
2833.29506,0.07796
2831.36634,0.07694
2829.43762,0.07590
2827.50889,0.07494
2825.58017,0.07408
2823.65145,0.07324
2821.72272,0.07240
2819.79400,0.07158
2817.86527,0.07082
2815.93655,0.07009
2814.00783,0.06936
2812.07910,0.06868
2810.15038,0.06805
2808.22166,0.06740
2806.29293,0.06673
2804.36421,0.06605
2802.43549,0.06532
2800.50676,0.06466
2798.57804,0.06408
2796.64931,0.06350
2794.72059,0.06290
2792.79187,0.06227
2790.86314,0.06169
2788.93442,0.06115
2787.00570,0.06048
2785.07697,0.05973
2783.14825,0.05909
2781.21953,0.05855
2779.29080,0.05797
2777.36208,0.05740
2775.43335,0.05692
2773.50463,0.05639
2771.57591,0.05581
2769.64718,0.05532
2767.71846,0.05479
2765.78974,0.05415
2763.86101,0.05354
2761.93229,0.05307
2760.00356,0.05267
2758.07484,0.05222
2756.14612,0.05167
2754.21739,0.05112
2752.28867,0.05065
2750.35995,0.05022
2748.43122,0.04976
2746.50250,0.04924
2744.57378,0.04871
2742.64505,0.04824
2740.71633,0.04783
2738.78760,0.04740
2736.85888,0.04688
2734.93016,0.04632
2733.00143,0.04582
2731.07271,0.04541
2729.14399,0.04505
2727.21526,0.04472
2725.28654,0.04435
2723.35782,0.04388
2721.42909,0.04336
2719.50037,0.04287
2717.57164,0.04243
2715.64292,0.04197
2713.71420,0.04148
2711.78547,0.04101
2709.85675,0.04061
2707.92803,0.04016
2705.99930,0.03964
2704.07058,0.03922
2702.14185,0.03887
2700.21313,0.03845
2698.28441,0.03807
2696.35568,0.03777
2694.42696,0.03743
2692.49824,0.03696
2690.56951,0.03642
2688.64079,0.03590
2686.71207,0.03547
2684.78334,0.03517
2682.85462,0.03492
2680.92589,0.03455
2678.99717,0.03406
2677.06845,0.03363
2675.13972,0.03331
2673.21100,0.03298
2671.28228,0.03260
2669.35355,0.03221
2667.42483,0.03183
2665.49611,0.03143
2663.56738,0.03101
2661.63866,0.03061
2659.70993,0.03025
2657.78121,0.02997
2655.85249,0.02971
2653.92376,0.02937
2651.99504,0.02899
2650.06632,0.02862
2648.13759,0.02828
2646.20887,0.02791
2644.28014,0.02751
2642.35142,0.02713
2640.42270,0.02683
2638.49397,0.02655
2636.56525,0.02622
2634.63653,0.02581
2632.70780,0.02544
2630.77908,0.02514
2628.85036,0.02484
2626.92163,0.02456
2624.99291,0.02425
2623.06418,0.02390
2621.13546,0.02357
2619.20674,0.02327
2617.27801,0.02295
2615.34929,0.02263
2613.42057,0.02232
2611.49184,0.02203
2609.56312,0.02172
2607.63440,0.02138
2605.70567,0.02108
2603.77695,0.02084
2601.84822,0.02061
2599.91950,0.02037
2597.99078,0.02004
2596.06205,0.01970
2594.13333,0.01945
2592.20461,0.01927
2590.27588,0.01906
2588.34716,0.01879
2586.41843,0.01851
2584.48971,0.01826
2582.56099,0.01801
2580.63226,0.01775
2578.70354,0.01748
2576.77482,0.01720
2574.84609,0.01689
2572.91737,0.01657
2570.98865,0.01635
2569.05992,0.01623
2567.13120,0.01605
2565.20247,0.01575
2563.27375,0.01549
2561.34503,0.01529
2559.41630,0.01504
2557.48758,0.01476
2555.55886,0.01456
2553.63013,0.01442
2551.70141,0.01425
2549.77269,0.01406
2547.84396,0.01387
2545.91524,0.01366
2543.98651,0.01341
2542.05779,0.01313
2540.12907,0.01283
2538.20034,0.01263
2536.27162,0.01251
2534.34290,0.01232
2532.41417,0.01207
2530.48545,0.01189
2528.55673,0.01174
2526.62800,0.01160
2524.69928,0.01144
2522.77055,0.01122
2520.84183,0.01101
2518.91311,0.01085
2516.98438,0.01075
2515.05566,0.01067
2513.12694,0.01046
2511.19821,0.01013
2509.26949,0.00985
2507.34076,0.00970
2505.41204,0.00961
2503.48332,0.00950
2501.55459,0.00939
2499.62587,0.00924
2497.69715,0.00898
2495.76842,0.00865
2493.83970,0.00841
2491.91098,0.00832
2489.98225,0.00829
2488.05353,0.00820
2486.12480,0.00801
2484.19608,0.00773
2482.26736,0.00749
2480.33863,0.00732
2478.40991,0.00719
2476.48119,0.00706
2474.55246,0.00691
2472.62374,0.00672
2470.69502,0.00658
2468.76629,0.00644
2466.83757,0.00622
2464.90884,0.00601
2462.98012,0.00591
2461.05140,0.00584
2459.12267,0.00571
2457.19395,0.00556
2455.26523,0.00540
2453.33650,0.00517
2451.40778,0.00495
2449.47905,0.00483
2447.55033,0.00476
2445.62161,0.00465
2443.69288,0.00449
2441.76416,0.00433
2439.83544,0.00424
2437.90671,0.00419
2435.97799,0.00408
2434.04927,0.00395
2432.12054,0.00384
2430.19182,0.00372
2428.26309,0.00358
2426.33437,0.00345
2424.40565,0.00333
2422.47692,0.00321
2420.54820,0.00309
2418.61948,0.00296
2416.69075,0.00283
2414.76203,0.00269
2412.83331,0.00250
2410.90458,0.00231
2408.97586,0.00219
2407.04713,0.00216
2405.11841,0.00215
2403.18969,0.00214
2401.26096,0.00211
2399.33224,0.00202
2397.40352,0.00189
2395.47479,0.00175
2393.54607,0.00162
2391.61734,0.00151
2389.68862,0.00144
2387.75990,0.00138
2385.83117,0.00137
2383.90245,0.00141
2381.97373,0.00147
2380.04500,0.00152
2378.11628,0.00154
2376.18756,0.00154
2374.25883,0.00155
2372.33011,0.00159
2370.40138,0.00167
2368.47266,0.00178
2366.54394,0.00192
2364.61521,0.00207
2362.68649,0.00217
2360.75777,0.00210
2358.82904,0.00188
2356.90032,0.00163
2354.97160,0.00148
2353.04287,0.00140
2351.11415,0.00128
2349.18542,0.00112
2347.25670,0.00103
2345.32798,0.00109
2343.39925,0.00125
2341.47053,0.00134
2339.54181,0.00129
2337.61308,0.00118
2335.68436,0.00110
2333.75563,0.00099
2331.82691,0.00088
2329.89819,0.00088
2327.96946,0.00099
2326.04074,0.00105
2324.11202,0.00096
2322.18329,0.00081
2320.25457,0.00069
2318.32585,0.00061
2316.39712,0.00055
2314.46840,0.00052
2312.53967,0.00047
2310.61095,0.00037
2308.68223,0.00026
2306.75350,0.00021
2304.82478,0.00018
2302.89606,0.00015
2300.96733,0.00016
2299.03861,0.00021
2297.10989,0.00026
2295.18116,0.00026
2293.25244,0.00020
2291.32371,0.00017
2289.39499,0.00020
2287.46627,0.00020
2285.53754,0.00014
2283.60882,0.00008
2281.68010,0.00003
2279.75137,0.00000
2277.82265,0.00000
2275.89392,0.00004
2273.96520,0.00008
2272.03648,0.00008
2270.10775,0.00006
2268.17903,0.00003
2266.25031,0.00004
2264.32158,0.00009
2262.39286,0.00012
2260.46414,0.00012
2258.53541,0.00011
2256.60669,0.00010
2254.67796,0.00013
2252.74924,0.00020
2250.82052,0.00022
2248.89179,0.00018
2246.96307,0.00014
2245.03435,0.00012
2243.10562,0.00015
2241.17690,0.00024
2239.24818,0.00031
2237.31945,0.00029
2235.39073,0.00027
2233.46200,0.00029
2231.53328,0.00026
2229.60456,0.00017
2227.67583,0.00016
2225.74711,0.00021
2223.81839,0.00025
2221.88966,0.00020
2219.96094,0.00013
2218.03221,0.00012
2216.10349,0.00016
2214.17477,0.00016
2212.24604,0.00012
2210.31732,0.00007
2208.38860,0.00002
2206.45987,0.00000
2204.53115,-0.00003
2202.60243,-0.00009
2200.67370,-0.00011
2198.74498,-0.00006
2196.81625,0.00002
2194.88753,0.00006
2192.95881,0.00003
2191.03008,-0.00002
2189.10136,-0.00004
2187.17264,-0.00005
2185.24391,-0.00007
2183.31519,-0.00009
2181.38647,-0.00011
2179.45774,-0.00014
2177.52902,-0.00018
2175.60029,-0.00018
2173.67157,-0.00013
2171.74285,-0.00010
2169.81412,-0.00011
2167.88540,-0.00007
2165.95668,0.00006
2164.02795,0.00018
2162.09923,0.00021
2160.17050,0.00020
2158.24178,0.00021
2156.31306,0.00019
2154.38433,0.00014
2152.45561,0.00012
2150.52689,0.00013
2148.59816,0.00018
2146.66944,0.00024
2144.74072,0.00031
2142.81199,0.00034
2140.88327,0.00030
2138.95454,0.00022
2137.02582,0.00018
2135.09710,0.00013
2133.16837,0.00007
2131.23965,0.00010
2129.31093,0.00019
2127.38220,0.00018
2125.45348,0.00010
2123.52476,0.00009
2121.59603,0.00015
2119.66731,0.00018
2117.73858,0.00013
2115.80986,0.00006
2113.88114,0.00002
2111.95241,-0.00003
2110.02369,-0.00008
2108.09497,-0.00008
2106.16624,-0.00009
2104.23752,-0.00013
2102.30880,-0.00015
2100.38007,-0.00014
2098.45135,-0.00011
2096.52262,-0.00005
2094.59390,0.00000
2092.66518,-0.00012
2090.73645,-0.00025
2088.80773,-0.00032
2086.87901,-0.00036
2084.95028,-0.00041
2083.02156,-0.00047
2081.09283,-0.00054
2079.16411,-0.00066
2077.23539,-0.00077
2075.30666,-0.00083
2073.37794,-0.00088
2071.44922,-0.00093
2069.52049,-0.00092
2067.59177,-0.00086
2065.66305,-0.00080
2063.73432,-0.00077
2061.80560,-0.00076
2059.87687,-0.00073
2057.94815,-0.00069
2056.01943,-0.00063
2054.09070,-0.00056
2052.16198,-0.00047
2050.23326,-0.00034
2048.30453,-0.00018
2046.37581,-0.00001
2044.44709,0.00015
2042.51836,0.00034
2040.58964,0.00058
2038.66091,0.00086
2036.73219,0.00115
2034.80347,0.00142
2032.87474,0.00162
2030.94602,0.00178
2029.01730,0.00193
2027.08857,0.00210
2025.15985,0.00224
2023.23112,0.00238
2021.30240,0.00261
2019.37368,0.00284
2017.44495,0.00297
2015.51623,0.00312
2013.58751,0.00339
2011.65878,0.00369
2009.73006,0.00390
2007.80134,0.00398
2005.87261,0.00397
2003.94389,0.00396
2002.01516,0.00401
2000.08644,0.00411
1998.15772,0.00418
1996.22899,0.00418
1994.30027,0.00417
1992.37155,0.00415
1990.44282,0.00406
1988.51410,0.00390
1986.58538,0.00376
1984.65665,0.00369
1982.72793,0.00368
1980.79920,0.00365
1978.87048,0.00353
1976.94176,0.00335
1975.01303,0.00321
1973.08431,0.00309
1971.15559,0.00295
1969.22686,0.00277
1967.29814,0.00257
1965.36941,0.00234
1963.44069,0.00210
1961.51197,0.00190
1959.58324,0.00169
1957.65452,0.00143
1955.72580,0.00120
1953.79707,0.00107
1951.86835,0.00098
1949.93963,0.00089
1948.01090,0.00075
1946.08218,0.00055
1944.15345,0.00040
1942.22473,0.00038
1940.29601,0.00035
1938.36728,0.00022
1936.43856,0.00006
1934.50984,-0.00004
1932.58111,-0.00009
1930.65239,-0.00008
1928.72367,-0.00003
1926.79494,0.00000
1924.86622,-0.00003
1922.93749,0.00004
1921.00877,0.00017
1919.08005,0.00032
1917.15132,0.00055
1915.22260,0.00086
1913.29388,0.00123
1911.36515,0.00170
1909.43643,0.00224
1907.50770,0.00276
1905.57898,0.00324
1903.65026,0.00376
1901.72153,0.00433
1899.79281,0.00490
1897.86409,0.00542
1895.93536,0.00594
1894.00664,0.00648
1892.07792,0.00699
1890.14919,0.00744
1888.22047,0.00785
1886.29174,0.00823
1884.36302,0.00857
1882.43430,0.00885
1880.50557,0.00904
1878.57685,0.00915
1876.64813,0.00920
1874.71940,0.00920
1872.79068,0.00912
1870.86196,0.00892
1868.93323,0.00867
1867.00451,0.00847
1865.07578,0.00826
1863.14706,0.00792
1861.21834,0.00743
1859.28961,0.00686
1857.36089,0.00625
1855.43217,0.00556
1853.50344,0.00485
1851.57472,0.00418
1849.64599,0.00351
1847.71727,0.00283
1845.78855,0.00223
1843.85982,0.00180
1841.93110,0.00147
1840.00238,0.00113
1838.07365,0.00083
1836.14493,0.00055
1834.21621,0.00026
1832.28748,0.00000
1830.35876,-0.00017
1828.43003,-0.00017
1826.50131,-0.00017
1824.57259,-0.00020
1822.64386,-0.00023
1820.71514,-0.00027
1818.78642,-0.00026
1816.85769,-0.00016
1814.92897,0.00000
1813.00025,0.00019
1811.07152,0.00045
1809.14280,0.00076
1807.21407,0.00104
1805.28535,0.00134
1803.35663,0.00175
1801.42790,0.00237
1799.49918,0.00308
1797.57046,0.00372
1795.64173,0.00425
1793.71301,0.00492
1791.78428,0.00589
1789.85556,0.00689
1787.92684,0.00765
1785.99811,0.00836
1784.06939,0.00923
1782.14067,0.01024
1780.21194,0.01131
1778.28322,0.01230
1776.35450,0.01314
1774.42577,0.01402
1772.49705,0.01523
1770.56832,0.01656
1768.63960,0.01765
1766.71088,0.01850
1764.78215,0.01925
1762.85343,0.02008
1760.92471,0.02109
1758.99598,0.02214
1757.06726,0.02318
1755.13854,0.02412
1753.20981,0.02497
1751.28109,0.02610
1749.35236,0.02762
1747.42364,0.02914
1745.49492,0.03051
1743.56619,0.03192
1741.63747,0.03352
1739.70875,0.03523
1737.78002,0.03679
1735.85130,0.03845
1733.92257,0.04082
1731.99385,0.04342
1730.06513,0.04562
1728.13640,0.04762
1726.20768,0.04964
1724.27896,0.05175
1722.35023,0.05379
1720.42151,0.05566
1718.49279,0.05788
1716.56406,0.06074
1714.63534,0.06349
1712.70661,0.06565
1710.77789,0.06753
1708.84917,0.06952
1706.92044,0.07183
1704.99172,0.07419
1703.06300,0.07626
1701.13427,0.07855
1699.20555,0.08155
1697.27683,0.08481
1695.34810,0.08807
1693.41938,0.09092
1691.49065,0.09331
1689.56193,0.09575
1687.63321,0.09826
1685.70448,0.10118
1683.77576,0.10500
1681.84704,0.10860
1679.91831,0.11121
1677.98959,0.11343
1676.06087,0.11592
1674.13214,0.11863
1672.20342,0.12107
1670.27469,0.12357
1668.34597,0.12640
1666.41725,0.12889
1664.48852,0.13105
1662.55980,0.13345
1660.63108,0.13578
1658.70235,0.13750
1656.77363,0.13874
1654.84490,0.14024
1652.91618,0.14243
1650.98746,0.14423
1649.05873,0.14525
1647.13001,0.14637
1645.20129,0.14765
1643.27256,0.14844
1641.34384,0.14883
1639.41512,0.14907
1637.48639,0.14932
1635.55767,0.14969
1633.62894,0.14993
1631.70022,0.14981
1629.77150,0.14939
1627.84277,0.14872
1625.91405,0.14767
1623.98533,0.14629
1622.05660,0.14473
1620.12788,0.14308
1618.19916,0.14109
1616.27043,0.13870
1614.34171,0.13637
1612.41298,0.13427
1610.48426,0.13201
1608.55554,0.12944
1606.62681,0.12677
1604.69809,0.12420
1602.76937,0.12174
1600.84064,0.11938
1598.91192,0.11709
1596.98319,0.11486
1595.05447,0.11270
1593.12575,0.11066
1591.19702,0.10871
1589.26830,0.10684
1587.33958,0.10501
1585.41085,0.10318
1583.48213,0.10135
1581.55341,0.09960
1579.62468,0.09793
1577.69596,0.09626
1575.76723,0.09462
1573.83851,0.09325
1571.90979,0.09203
1569.98106,0.09070
1568.05234,0.08933
1566.12362,0.08809
1564.19489,0.08694
1562.26617,0.08582
1560.33745,0.08456
1558.40872,0.08308
1556.48000,0.08166
1554.55127,0.08043
1552.62255,0.07929
1550.69383,0.07817
1548.76510,0.07701
1546.83638,0.07570
1544.90766,0.07413
1542.97893,0.07241
1541.05021,0.07083
1539.12148,0.06946
1537.19276,0.06821
1535.26404,0.06682
1533.33531,0.06522
1531.40659,0.06368
1529.47787,0.06228
1527.54914,0.06076
1525.62042,0.05907
1523.69170,0.05736
1521.76297,0.05583
1519.83425,0.05465
1517.90552,0.05357
1515.97680,0.05229
1514.04808,0.05079
1512.11935,0.04919
1510.19063,0.04749
1508.26191,0.04542
1506.33318,0.04307
1504.40446,0.04117
1502.47574,0.03970
1500.54701,0.03820
1498.61829,0.03660
1496.68956,0.03508
1494.76084,0.03381
1492.83212,0.03280
1490.90339,0.03198
1488.97467,0.03138
1487.04595,0.03105
1485.11722,0.03091
1483.18850,0.03093
1481.25977,0.03111
1479.33105,0.03138
1477.40233,0.03169
1475.47360,0.03228
1473.54488,0.03354
1471.61616,0.03540
1469.68743,0.03709
1467.75871,0.03836
1465.82999,0.03945
1463.90126,0.04036
1461.97254,0.04084
1460.04381,0.04117
1458.11509,0.04192
1456.18637,0.04299
1454.25764,0.04360
1452.32892,0.04372
1450.40020,0.04379
1448.47147,0.04399
1446.54275,0.04425
1444.61403,0.04454
1442.68530,0.04486
1440.75658,0.04516
1438.82785,0.04540
1436.89913,0.04577
1434.97041,0.04625
1433.04168,0.04660
1431.11296,0.04686
1429.18424,0.04720
1427.25551,0.04758
1425.32679,0.04789
1423.39806,0.04811
1421.46934,0.04837
1419.54062,0.04883
1417.61189,0.04933
1415.68317,0.04960
1413.75445,0.04971
1411.82572,0.04983
1409.89700,0.05004
1407.96828,0.05034
1406.03955,0.05065
1404.11083,0.05083
1402.18210,0.05079
1400.25338,0.05047
1398.32466,0.04980
1396.39593,0.04878
1394.46721,0.04764
1392.53849,0.04662
1390.60976,0.04577
1388.68104,0.04515
1386.75232,0.04480
1384.82359,0.04447
1382.89487,0.04382
1380.96614,0.04282
1379.03742,0.04174
1377.10870,0.04079
1375.17997,0.03993
1373.25125,0.03896
1371.32253,0.03788
1369.39380,0.03683
1367.46508,0.03584
1365.53635,0.03485
1363.60763,0.03392
1361.67891,0.03316
1359.75018,0.03249
1357.82146,0.03180
1355.89274,0.03114
1353.96401,0.03053
1352.03529,0.02990
1350.10657,0.02927
1348.17784,0.02872
1346.24912,0.02829
1344.32039,0.02790
1342.39167,0.02752
1340.46295,0.02723
1338.53422,0.02710
1336.60550,0.02704
1334.67678,0.02695
1332.74805,0.02686
1330.81933,0.02681
1328.89061,0.02683
1326.96188,0.02699
1325.03316,0.02724
1323.10443,0.02750
1321.17571,0.02775
1319.24699,0.02805
1317.31826,0.02840
1315.38954,0.02871
1313.46082,0.02890
1311.53209,0.02905
1309.60337,0.02929
1307.67464,0.02960
1305.74592,0.02997
1303.81720,0.03050
1301.88847,0.03128
1299.95975,0.03221
1298.03103,0.03310
1296.10230,0.03398
1294.17358,0.03503
1292.24486,0.03635
1290.31613,0.03783
1288.38741,0.03927
1286.45868,0.04081
1284.52996,0.04278
1282.60124,0.04512
1280.67251,0.04753
1278.74379,0.05000
1276.81507,0.05276
1274.88634,0.05590
1272.95762,0.05948
1271.02890,0.06364
1269.10017,0.06837
1267.17145,0.07360
1265.24272,0.07935
1263.31400,0.08573
1261.38528,0.09295
1259.45655,0.10103
1257.52783,0.10976
1255.59911,0.11898
1253.67038,0.12840
1251.74166,0.13772
1249.81294,0.14670
1247.88421,0.15516
1245.95549,0.16298
1244.02676,0.17017
1242.09804,0.17679
1240.16932,0.18290
1238.24059,0.18851
1236.31187,0.19354
1234.38315,0.19818
1232.45442,0.20255
1230.52570,0.20656
1228.59697,0.21032
1226.66825,0.21383
1224.73953,0.21691
1222.81080,0.21975
1220.88208,0.22253
1218.95336,0.22528
1217.02463,0.22809
1215.09591,0.23101
1213.16719,0.23375
1211.23846,0.23617
1209.30974,0.23839
1207.38101,0.24059
1205.45229,0.24292
1203.52357,0.24544
1201.59484,0.24792
1199.66612,0.25025
1197.73740,0.25255
1195.80867,0.25475
1193.87995,0.25676
1191.95123,0.25868
1190.02250,0.26067
1188.09378,0.26278
1186.16505,0.26493
1184.23633,0.26712
1182.30761,0.26940
1180.37888,0.27156
1178.45016,0.27339
1176.52144,0.27524
1174.59271,0.27748
1172.66399,0.27977
1170.73526,0.28183
1168.80654,0.28369
1166.87782,0.28557
1164.94909,0.28776
1163.02037,0.29013
1161.09165,0.29218
1159.16292,0.29387
1157.23420,0.29555
1155.30548,0.29720
1153.37675,0.29856
1151.44803,0.29960
1149.51930,0.30063
1147.59058,0.30223
1145.66186,0.30439
1143.73313,0.30644
1141.80441,0.30822
1139.87569,0.31003
1137.94696,0.31195
1136.01824,0.31382
1134.08952,0.31568
1132.16079,0.31791
1130.23207,0.32070
1128.30334,0.32380
1126.37462,0.32712
1124.44590,0.33065
1122.51717,0.33413
1120.58845,0.33778
1118.65973,0.34179
1116.73100,0.34591
1114.80228,0.35028
1112.87355,0.35505
1110.94483,0.36013
1109.01611,0.36563
1107.08738,0.37123
1105.15866,0.37604
1103.22994,0.37995
1101.30121,0.38353
1099.37249,0.38691
1097.44377,0.38972
1095.51504,0.39174
1093.58632,0.39299
1091.65759,0.39356
1089.72887,0.39358
1087.80015,0.39318
1085.87142,0.39249
1083.94270,0.39180
1082.01398,0.39129
1080.08525,0.39061
1078.15653,0.38947
1076.22781,0.38819
1074.29908,0.38664
1072.37036,0.38461
1070.44163,0.38266
1068.51291,0.38073
1066.58419,0.37828
1064.65546,0.37533
1062.72674,0.37194
1060.79802,0.36824
1058.86929,0.36499
1056.94057,0.36211
1055.01184,0.35882
1053.08312,0.35516
1051.15440,0.35122
1049.22567,0.34695
1047.29695,0.34277
1045.36823,0.33859
1043.43950,0.33416
1041.51078,0.32998
1039.58206,0.32586
1037.65333,0.32110
1035.72461,0.31624
1033.79588,0.31164
1031.86716,0.30666
1029.93844,0.30148
1028.00971,0.29669
1026.08099,0.29211
1024.15227,0.28750
1022.22354,0.28281
1020.29482,0.27798
1018.36610,0.27317
1016.43737,0.26867
1014.50865,0.26450
1012.57992,0.26031
1010.65120,0.25590
1008.72248,0.25143
1006.79375,0.24688
1004.86503,0.24224
1002.93631,0.23776
1001.00758,0.23344
999.07886,0.22897
997.15013,0.22429
995.22141,0.21956
993.29269,0.21481
991.36396,0.20993
989.43524,0.20510
987.50652,0.20070
985.57779,0.19669
983.64907,0.19281
981.72035,0.18916
979.79162,0.18590
977.86290,0.18288
975.93417,0.17993
974.00545,0.17718
972.07673,0.17460
970.14800,0.17190
968.21928,0.16916
966.29056,0.16670
964.36183,0.16461
962.43311,0.16290
960.50439,0.16138
958.57566,0.15973
956.64694,0.15776
954.71821,0.15583
952.78949,0.15438
950.86077,0.15301
948.93204,0.15116
947.00332,0.14889
945.07460,0.14638
943.14587,0.14377
941.21715,0.14120
939.28842,0.13868
937.35970,0.13598
935.43098,0.13309
933.50225,0.13031
931.57353,0.12780
929.64481,0.12524
927.71608,0.12236
925.78736,0.11947
923.85864,0.11697
921.92991,0.11455
920.00119,0.11173
918.07246,0.10882
916.14374,0.10649
914.21502,0.10445
912.28629,0.10173
910.35757,0.09814
908.42885,0.09435
906.50012,0.09072
904.57140,0.08719
902.64268,0.08371
900.71395,0.08034
898.78523,0.07691
896.85650,0.07335
894.92778,0.07003
892.99906,0.06715
891.07033,0.06434
889.14161,0.06136
887.21289,0.05834
885.28416,0.05555
883.35544,0.05303
881.42671,0.05054
879.49799,0.04791
877.56927,0.04565
875.64054,0.04403
873.71182,0.04236
871.78310,0.04038
869.85437,0.03840
867.92565,0.03651
865.99693,0.03477
864.06820,0.03332
862.13948,0.03213
860.21075,0.03107
858.28203,0.02996
856.35331,0.02871
854.42458,0.02766
852.49586,0.02700
850.56714,0.02672
848.63841,0.02702
846.70969,0.02803
844.78097,0.02947
842.85224,0.03103
840.92352,0.03294
838.99479,0.03543
837.06607,0.03829
835.13735,0.04130
833.20862,0.04450
831.27990,0.04792
829.35118,0.05126
827.42245,0.05432
825.49373,0.05735
823.56501,0.06045
821.63628,0.06363
819.70756,0.06693
817.77883,0.07019
815.85011,0.07345
813.92139,0.07708
811.99266,0.08074
810.06394,0.08364
808.13522,0.08605
806.20649,0.08869
804.27777,0.09149
802.34904,0.09390
800.42032,0.09544
798.49160,0.09618
796.56287,0.09649
794.63415,0.09631
792.70543,0.09518
790.77670,0.09313
788.84798,0.09099
786.91926,0.08925
784.99053,0.08745
783.06181,0.08498
781.13308,0.08198
779.20436,0.07902
777.27564,0.07585
775.34691,0.07185
773.41819,0.06749
771.48947,0.06379
769.56074,0.06129
767.63202,0.05996
765.70330,0.05910
763.77457,0.05839
761.84585,0.05811
759.91712,0.05817
757.98840,0.05801
756.05968,0.05747
754.13095,0.05685
752.20223,0.05634
750.27351,0.05594
748.34478,0.05553
746.41606,0.05504
744.48733,0.05457
742.55861,0.05413
740.62989,0.05363
738.70116,0.05307
736.77244,0.05252
734.84372,0.05216
732.91499,0.05217
730.98627,0.05231
729.05755,0.05211
727.12882,0.05169
725.20010,0.05152
723.27137,0.05166
721.34265,0.05191
719.41393,0.05196
717.48520,0.05151
715.55648,0.05084
713.62776,0.05071
711.69903,0.05121
709.77031,0.05161
707.84159,0.05177
705.91286,0.05216
703.98414,0.05264
702.05541,0.05293
700.12669,0.05328
698.19797,0.05396
696.26924,0.05477
694.34052,0.05524
692.41180,0.05520
690.48307,0.05511
688.55435,0.05561
686.62562,0.05642
684.69690,0.05672
682.76818,0.05640
680.83945,0.05622
678.91073,0.05651
676.98201,0.05678
675.05328,0.05669
673.12456,0.05636
671.19584,0.05604
669.26711,0.05636
667.33839,0.05749
665.40966,0.05827
663.48094,0.05800
661.55222,0.05734
659.62349,0.05733
657.69477,0.05830
655.76605,0.05961
653.83732,0.06064
651.90860,0.06151
649.97988,0.06269
648.05115,0.06411
646.12243,0.06526
644.19370,0.06587
642.26498,0.06614
640.33626,0.06653
638.40753,0.06710
636.47881,0.06739
634.55009,0.06723
632.62136,0.06736
630.69264,0.06830
628.76391,0.06951
626.83519,0.07021
624.90647,0.07054
622.97774,0.07077
621.04902,0.07096
619.12030,0.07129
617.19157,0.07218
615.26285,0.07367
613.33413,0.07530
611.40540,0.07669
609.47668,0.07793
607.54795,0.07921
605.61923,0.08051
603.69051,0.08169
601.76178,0.08285
599.83306,0.08435
597.90434,0.08607
595.97561,0.08728
594.04689,0.08803
592.11817,0.08933
590.18944,0.09121
588.26072,0.09284
586.33199,0.09406
584.40327,0.09502
582.47455,0.09582
580.54582,0.09663
578.61710,0.09741
576.68838,0.09785
574.75965,0.09845
572.83093,0.09962
570.90220,0.10043
568.97348,0.10055
567.04476,0.10103
565.11603,0.10225
563.18731,0.10370
561.25859,0.10531
559.32986,0.10674
557.40114,0.10732
555.47242,0.10760
553.54369,0.10884
551.61497,0.11130
549.68624,0.11366
547.75752,0.11480
545.82880,0.11582
543.90007,0.11809
541.97135,0.12083
540.04263,0.12253
538.11390,0.12269
536.18518,0.12180
534.25646,0.12097
532.32773,0.12071
530.39901,0.12078
528.47028,0.12094
526.54156,0.12091
524.61284,0.12111
522.68411,0.12176
520.75539,0.12157
518.82667,0.12027
516.89794,0.11945
514.96922,0.12044
513.04049,0.12286
511.11177,0.12538
509.18305,0.12785
507.25432,0.13125
505.32560,0.13593
503.39688,0.14213
501.46815,0.14952
499.53943,0.15598
497.61071,0.16111
495.68198,0.16713
493.75326,0.17430
491.82453,0.18078
489.89581,0.18661
487.96709,0.19347
486.03836,0.20081
484.10964,0.20657
482.18092,0.21132
480.25219,0.21703
478.32347,0.22408
476.39475,0.23338
474.46602,0.24538
472.53730,0.25560
470.60857,0.25867
468.67985,0.25683
466.75113,0.25631
464.82240,0.25792
462.89368,0.25762
460.96496,0.25353
459.03623,0.24775
457.10751,0.24349
455.17878,0.24179
453.25006,0.24033
451.32134,0.23621
449.39261,0.22787
447.46389,0.21596
445.53517,0.20512
443.60644,0.20096
441.67772,0.20251
439.74900,0.20334
437.82027,0.19954
435.89155,0.19190
433.96282,0.18360
432.03410,0.17601
430.10538,0.16730
428.17665,0.15681
426.24793,0.14765
424.31921,0.14269
422.39048,0.14017
420.46176,0.13661
418.53304,0.13103
416.60431,0.12488
414.67559,0.12054
412.74686,0.11767
410.81814,0.11243
408.88942,0.10238
406.96069,0.09025
405.03197,0.08082
403.10325,0.07907
401.17452,0.08819
399.24580,0.10035
397.31708,0.09999
395.38835,0.08672
393.45963,0.07364
391.53090,0.06925
389.60218,0.07086
387.67346,0.06829
385.74473,0.06403
383.81601,0.06747
381.88729,0.06688
379.95856,0.04744
378.02984,0.01797
376.10111,0.00000
374.17239,-0.02003
372.24367,0.00138
370.31494,0.02225
368.38622,0.00000
