3996.31543,0.00000
3994.38671,0.00016
3992.45799,0.00041
3990.52926,0.00060
3988.60054,0.00052
3986.67182,0.00032
3984.74309,0.00026
3982.81437,0.00037
3980.88564,0.00055
3978.95692,0.00075
3977.02820,0.00098
3975.09947,0.00110
3973.17075,0.00104
3971.24203,0.00095
3969.31330,0.00097
3967.38458,0.00108
3965.45586,0.00113
3963.52713,0.00101
3961.59841,0.00077
3959.66968,0.00060
3957.74096,0.00064
3955.81224,0.00077
3953.88351,0.00088
3951.95479,0.00096
3950.02607,0.00102
3948.09734,0.00110
3946.16862,0.00125
3944.23990,0.00134
3942.31117,0.00119
3940.38245,0.00096
3938.45372,0.00090
3936.52500,0.00105
3934.59628,0.00124
3932.66755,0.00129
3930.73883,0.00113
3928.81011,0.00092
3926.88138,0.00080
3924.95266,0.00074
3923.02393,0.00079
3921.09521,0.00102
3919.16649,0.00125
3917.23776,0.00119
3915.30904,0.00091
3913.38032,0.00071
3911.45159,0.00072
3909.52287,0.00089
3907.59415,0.00121
3905.66542,0.00150
3903.73670,0.00155
3901.80797,0.00127
3899.87925,0.00077
3897.95053,0.00042
3896.02180,0.00065
3894.09308,0.00125
3892.16436,0.00152
3890.23563,0.00135
3888.30691,0.00133
3886.37819,0.00153
3884.44946,0.00163
3882.52074,0.00171
3880.59201,0.00160
3878.66329,0.00129
3876.73457,0.00127
3874.80584,0.00161
3872.87712,0.00200
3870.94840,0.00205
3869.01967,0.00162
3867.09095,0.00129
3865.16222,0.00123
3863.23350,0.00103
3861.30478,0.00085
3859.37605,0.00120
3857.44733,0.00205
3855.51861,0.00270
3853.58988,0.00225
3851.66116,0.00114
3849.73244,0.00080
3847.80371,0.00136
3845.87499,0.00221
3843.94626,0.00280
3842.01754,0.00303
3840.08882,0.00297
3838.16009,0.00255
3836.23137,0.00200
3834.30265,0.00175
3832.37392,0.00173
3830.44520,0.00176
3828.51648,0.00191
3826.58775,0.00225
3824.65903,0.00275
3822.73030,0.00310
3820.80158,0.00288
3818.87286,0.00243
3816.94413,0.00209
3815.01541,0.00177
3813.08669,0.00181
3811.15796,0.00237
3809.22924,0.00304
3807.30052,0.00338
3805.37179,0.00356
3803.44307,0.00387
3801.51434,0.00392
3799.58562,0.00362
3797.65690,0.00347
3795.72817,0.00348
3793.79945,0.00354
3791.87073,0.00363
3789.94200,0.00376
3788.01328,0.00393
3786.08455,0.00415
3784.15583,0.00447
3782.22711,0.00489
3780.29838,0.00518
3778.36966,0.00523
3776.44094,0.00538
3774.51221,0.00592
3772.58349,0.00667
3770.65477,0.00712
3768.72604,0.00711
3766.79732,0.00704
3764.86859,0.00727
3762.93987,0.00781
3761.01115,0.00847
3759.08242,0.00891
3757.15370,0.00916
3755.22498,0.00968
3753.29625,0.01059
3751.36753,0.01140
3749.43881,0.01182
3747.51008,0.01229
3745.58136,0.01287
3743.65263,0.01322
3741.72391,0.01369
3739.79519,0.01475
3737.86646,0.01619
3735.93774,0.01731
3734.00902,0.01778
3732.08029,0.01822
3730.15157,0.01922
3728.22284,0.02066
3726.29412,0.02224
3724.36540,0.02381
3722.43667,0.02542
3720.50795,0.02708
3718.57923,0.02893
3716.65050,0.03118
3714.72178,0.03395
3712.79306,0.03710
3710.86433,0.04029
3708.93561,0.04329
3707.00688,0.04637
3705.07816,0.04981
3703.14944,0.05347
3701.22071,0.05708
3699.29199,0.06051
3697.36327,0.06383
3695.43454,0.06721
3693.50582,0.07076
3691.57710,0.07456
3689.64837,0.07851
3687.71965,0.08231
3685.79092,0.08583
3683.86220,0.08937
3681.93348,0.09324
3680.00475,0.09748
3678.07603,0.10213
3676.14731,0.10719
3674.21858,0.11190
3672.28986,0.11570
3670.36113,0.11933
3668.43241,0.12310
3666.50369,0.12664
3664.57496,0.12998
3662.64624,0.13315
3660.71752,0.13611
3658.78879,0.13909
3656.86007,0.14242
3654.93135,0.14583
3653.00262,0.14880
3651.07390,0.15146
3649.14517,0.15402
3647.21645,0.15632
3645.28773,0.15841
3643.35900,0.16055
3641.43028,0.16278
3639.50156,0.16497
3637.57283,0.16704
3635.64411,0.16906
3633.71539,0.17107
3631.78666,0.17303
3629.85794,0.17497
3627.92921,0.17692
3626.00049,0.17867
3624.07177,0.18020
3622.14304,0.18156
3620.21432,0.18264
3618.28560,0.18343
3616.35687,0.18420
3614.42815,0.18509
3612.49942,0.18595
3610.57070,0.18677
3608.64198,0.18759
3606.71325,0.18839
3604.78453,0.18927
3602.85581,0.19029
3600.92708,0.19136
3598.99836,0.19235
3597.06964,0.19317
3595.14091,0.19398
3593.21219,0.19487
3591.28346,0.19572
3589.35474,0.19645
3587.42602,0.19718
3585.49729,0.19800
3583.56857,0.19886
3581.63985,0.19968
3579.71112,0.20044
3577.78240,0.20128
3575.85368,0.20224
3573.92495,0.20314
3571.99623,0.20385
3570.06750,0.20451
3568.13878,0.20530
3566.21006,0.20620
3564.28133,0.20707
3562.35261,0.20784
3560.42389,0.20842
3558.49516,0.20891
3556.56644,0.20950
3554.63771,0.21012
3552.70899,0.21059
3550.78027,0.21101
3548.85154,0.21154
3546.92282,0.21214
3544.99410,0.21267
3543.06537,0.21302
3541.13665,0.21325
3539.20793,0.21359
3537.27920,0.21409
3535.35048,0.21452
3533.42175,0.21483
3531.49303,0.21522
3529.56431,0.21568
3527.63558,0.21614
3525.70686,0.21666
3523.77814,0.21719
3521.84941,0.21762
3519.92069,0.21798
3517.99197,0.21832
3516.06324,0.21868
3514.13452,0.21909
3512.20579,0.21957
3510.27707,0.22004
3508.34835,0.22048
3506.41962,0.22090
3504.49090,0.22129
3502.56218,0.22174
3500.63345,0.22242
3498.70473,0.22328
3496.77600,0.22392
3494.84728,0.22415
3492.91856,0.22422
3490.98983,0.22452
3489.06111,0.22504
3487.13239,0.22549
3485.20366,0.22589
3483.27494,0.22644
3481.34622,0.22708
3479.41749,0.22757
3477.48877,0.22791
3475.56004,0.22821
3473.63132,0.22852
3471.70260,0.22877
3469.77387,0.22902
3467.84515,0.22946
3465.91643,0.23010
3463.98770,0.23072
3462.05898,0.23106
3460.13026,0.23111
3458.20153,0.23116
3456.27281,0.23143
3454.34408,0.23191
3452.41536,0.23242
3450.48664,0.23279
3448.55791,0.23304
3446.62919,0.23327
3444.70047,0.23353
3442.77174,0.23378
3440.84302,0.23394
3438.91429,0.23403
3436.98557,0.23420
3435.05685,0.23449
3433.12812,0.23477
3431.19940,0.23499
3429.27068,0.23520
3427.34195,0.23539
3425.41323,0.23552
3423.48451,0.23563
3421.55578,0.23570
3419.62706,0.23575
3417.69833,0.23580
3415.76961,0.23585
3413.84089,0.23588
3411.91216,0.23585
3409.98344,0.23572
3408.05472,0.23561
3406.12599,0.23567
3404.19727,0.23574
3402.26855,0.23560
3400.33982,0.23544
3398.41110,0.23545
3396.48237,0.23554
3394.55365,0.23559
3392.62493,0.23555
3390.69620,0.23538
3388.76748,0.23518
3386.83876,0.23497
3384.91003,0.23465
3382.98131,0.23435
3381.05259,0.23412
3379.12386,0.23383
3377.19514,0.23348
3375.26641,0.23321
3373.33769,0.23293
3371.40897,0.23250
3369.48024,0.23206
3367.55152,0.23178
3365.62280,0.23156
3363.69407,0.23112
3361.76535,0.23056
3359.83662,0.23021
3357.90790,0.22993
3355.97918,0.22939
3354.05045,0.22887
3352.12173,0.22863
3350.19301,0.22847
3348.26428,0.22818
3346.33556,0.22779
3344.40684,0.22731
3342.47811,0.22672
3340.54939,0.22614
3338.62066,0.22576
3336.69194,0.22552
3334.76322,0.22522
3332.83449,0.22476
3330.90577,0.22425
3328.97705,0.22377
3327.04832,0.22329
3325.11960,0.22281
3323.19088,0.22248
3321.26215,0.22226
3319.33343,0.22194
3317.40470,0.22145
3315.47598,0.22092
3313.54726,0.22050
3311.61853,0.22012
3309.68981,0.21962
3307.76109,0.21903
3305.83236,0.21854
3303.90364,0.21830
3301.97491,0.21817
3300.04619,0.21790
3298.11747,0.21740
3296.18874,0.21693
3294.26002,0.21662
3292.33130,0.21633
3290.40257,0.21588
3288.47385,0.21537
3286.54513,0.21486
3284.61640,0.21434
3282.68768,0.21388
3280.75895,0.21357
3278.83023,0.21334
3276.90151,0.21303
3274.97278,0.21269
3273.04406,0.21236
3271.11534,0.21195
3269.18661,0.21150
3267.25789,0.21117
3265.32917,0.21087
3263.40044,0.21049
3261.47172,0.21007
3259.54299,0.20966
3257.61427,0.20924
3255.68555,0.20881
3253.75682,0.20836
3251.82810,0.20791
3249.89938,0.20743
3247.97065,0.20692
3246.04193,0.20652
3244.11320,0.20627
3242.18448,0.20604
3240.25576,0.20565
3238.32703,0.20509
3236.39831,0.20452
3234.46959,0.20405
3232.54086,0.20370
3230.61214,0.20335
3228.68342,0.20279
3226.75469,0.20193
3224.82597,0.20109
3222.89724,0.20058
3220.96852,0.20019
3219.03980,0.19970
3217.11107,0.19922
3215.18235,0.19883
3213.25363,0.19840
3211.32490,0.19780
3209.39618,0.19711
3207.46746,0.19638
3205.53873,0.19559
3203.61001,0.19476
3201.68128,0.19402
3199.75256,0.19340
3197.82384,0.19285
3195.89511,0.19233
3193.96639,0.19178
3192.03767,0.19108
3190.10894,0.19024
3188.18022,0.18938
3186.25149,0.18859
3184.32277,0.18788
3182.39405,0.18718
3180.46532,0.18655
3178.53660,0.18602
3176.60788,0.18544
3174.67915,0.18464
3172.75043,0.18375
3170.82171,0.18294
3168.89298,0.18216
3166.96426,0.18137
3165.03553,0.18071
3163.10681,0.18014
3161.17809,0.17945
3159.24936,0.17867
3157.32064,0.17785
3155.39192,0.17702
3153.46319,0.17633
3151.53447,0.17589
3149.60575,0.17543
3147.67702,0.17458
3145.74830,0.17342
3143.81957,0.17236
3141.89085,0.17155
3139.96213,0.17085
3138.03340,0.17017
3136.10468,0.16953
3134.17596,0.16892
3132.24723,0.16823
3130.31851,0.16745
3128.38978,0.16661
3126.46106,0.16577
3124.53234,0.16503
3122.60361,0.16443
3120.67489,0.16386
3118.74617,0.16320
3116.81744,0.16242
3114.88872,0.16157
3112.96000,0.16068
3111.03127,0.15977
3109.10255,0.15892
3107.17382,0.15812
3105.24510,0.15730
3103.31638,0.15647
3101.38765,0.15568
3099.45893,0.15496
3097.53021,0.15430
3095.60148,0.15353
3093.67276,0.15261
3091.74404,0.15173
3089.81531,0.15097
3087.88659,0.15020
3085.95786,0.14930
3084.02914,0.14833
3082.10042,0.14745
3080.17169,0.14674
3078.24297,0.14612
3076.31425,0.14542
3074.38552,0.14456
3072.45680,0.14369
3070.52807,0.14291
3068.59935,0.14212
3066.67063,0.14123
3064.74190,0.14033
3062.81318,0.13953
3060.88446,0.13883
3058.95573,0.13806
3057.02701,0.13717
3055.09829,0.13632
3053.16956,0.13562
3051.24084,0.13494
3049.31211,0.13414
3047.38339,0.13327
3045.45467,0.13250
3043.52594,0.13184
3041.59722,0.13118
3039.66850,0.13041
3037.73977,0.12956
3035.81105,0.12868
3033.88233,0.12785
3031.95360,0.12713
3030.02488,0.12648
3028.09615,0.12582
3026.16743,0.12511
3024.23871,0.12442
3022.30998,0.12383
3020.38126,0.12327
3018.45254,0.12264
3016.52381,0.12185
3014.59509,0.12100
3012.66636,0.12029
3010.73764,0.11967
3008.80892,0.11891
3006.88019,0.11800
3004.95147,0.11722
3003.02275,0.11664
3001.09402,0.11604
2999.16530,0.11537
2997.23658,0.11480
2995.30785,0.11425
2993.37913,0.11360
2991.45040,0.11300
2989.52168,0.11258
2987.59296,0.11219
2985.66423,0.11169
2983.73551,0.11115
2981.80679,0.11061
2979.87806,0.11010
2977.94934,0.10962
2976.02062,0.10923
2974.09189,0.10895
2972.16317,0.10866
2970.23444,0.10832
2968.30572,0.10797
2966.37700,0.10759
2964.44827,0.10728
2962.51955,0.10701
2960.59083,0.10654
2958.66210,0.10595
2956.73338,0.10543
2954.80466,0.10490
2952.87593,0.10429
2950.94721,0.10366
2949.01848,0.10301
2947.08976,0.10238
2945.16104,0.10191
2943.23231,0.10166
2941.30359,0.10149
2939.37487,0.10130
2937.44614,0.10107
2935.51742,0.10078
2933.58869,0.10038
2931.65997,0.09987
2929.73125,0.09931
2927.80252,0.09861
2925.87380,0.09765
2923.94508,0.09642
2922.01635,0.09503
2920.08763,0.09366
2918.15891,0.09246
2916.23018,0.09152
2914.30146,0.09083
2912.37273,0.09020
2910.44401,0.08941
2908.51529,0.08849
2906.58656,0.08758
2904.65784,0.08670
2902.72912,0.08579
2900.80039,0.08488
2898.87167,0.08397
2896.94295,0.08309
2895.01422,0.08228
2893.08550,0.08149
2891.15677,0.08066
2889.22805,0.07990
2887.29933,0.07922
2885.37060,0.07856
2883.44188,0.07790
2881.51316,0.07730
2879.58443,0.07674
2877.65571,0.07614
2875.72698,0.07556
2873.79826,0.07509
2871.86954,0.07463
2869.94081,0.07403
2868.01209,0.07338
2866.08337,0.07280
2864.15464,0.07226
2862.22592,0.07174
2860.29720,0.07124
2858.36847,0.07073
2856.43975,0.07028
2854.51102,0.06997
2852.58230,0.06954
2850.65358,0.06870
2848.72485,0.06753
2846.79613,0.06632
2844.86741,0.06512
2842.93868,0.06390
2841.00996,0.06276
2839.08124,0.06177
2837.15251,0.06081
2835.22379,0.05989
2833.29506,0.05907
2831.36634,0.05830
2829.43762,0.05751
2827.50889,0.05675
2825.58017,0.05608
2823.65145,0.05546
2821.72272,0.05483
2819.79400,0.05420
2817.86527,0.05356
2815.93655,0.05289
2814.00783,0.05230
2812.07910,0.05178
2810.15038,0.05126
2808.22166,0.05070
2806.29293,0.05012
2804.36421,0.04955
2802.43549,0.04898
2800.50676,0.04840
2798.57804,0.04790
2796.64931,0.04748
2794.72059,0.04700
2792.79187,0.04644
2790.86314,0.04589
2788.93442,0.04540
2787.00570,0.04489
2785.07697,0.04437
2783.14825,0.04387
2781.21953,0.04336
2779.29080,0.04282
2777.36208,0.04234
2775.43335,0.04189
2773.50463,0.04136
2771.57591,0.04079
2769.64718,0.04025
2767.71846,0.03975
2765.78974,0.03931
2763.86101,0.03889
2761.93229,0.03842
2760.00356,0.03790
2758.07484,0.03737
2756.14612,0.03687
2754.21739,0.03644
2752.28867,0.03605
2750.35995,0.03569
2748.43122,0.03531
2746.50250,0.03482
2744.57378,0.03423
2742.64505,0.03365
2740.71633,0.03322
2738.78760,0.03297
2736.85888,0.03268
2734.93016,0.03225
2733.00143,0.03179
2731.07271,0.03138
2729.14399,0.03093
2727.21526,0.03043
2725.28654,0.02993
2723.35782,0.02946
2721.42909,0.02904
2719.50037,0.02863
2717.57164,0.02820
2715.64292,0.02780
2713.71420,0.02744
2711.78547,0.02708
2709.85675,0.02671
2707.92803,0.02638
2705.99930,0.02607
2704.07058,0.02570
2702.14185,0.02526
2700.21313,0.02483
2698.28441,0.02443
2696.35568,0.02404
2694.42696,0.02365
2692.49824,0.02326
2690.56951,0.02288
2688.64079,0.02250
2686.71207,0.02209
2684.78334,0.02170
2682.85462,0.02142
2680.92589,0.02122
2678.99717,0.02093
2677.06845,0.02055
2675.13972,0.02019
2673.21100,0.01982
2671.28228,0.01941
2669.35355,0.01905
2667.42483,0.01874
2665.49611,0.01848
2663.56738,0.01823
2661.63866,0.01792
2659.70993,0.01755
2657.78121,0.01718
2655.85249,0.01683
2653.92376,0.01649
2651.99504,0.01616
2650.06632,0.01584
2648.13759,0.01556
2646.20887,0.01531
2644.28014,0.01510
2642.35142,0.01486
2640.42270,0.01446
2638.49397,0.01399
2636.56525,0.01362
2634.63653,0.01334
2632.70780,0.01309
2630.77908,0.01288
2628.85036,0.01264
2626.92163,0.01236
2624.99291,0.01209
2623.06418,0.01194
2621.13546,0.01186
2619.20674,0.01173
2617.27801,0.01147
2615.34929,0.01099
2613.42057,0.01047
2611.49184,0.01014
2609.56312,0.00997
2607.63440,0.00979
2605.70567,0.00955
2603.77695,0.00926
2601.84822,0.00895
2599.91950,0.00873
2597.99078,0.00859
2596.06205,0.00846
2594.13333,0.00832
2592.20461,0.00813
2590.27588,0.00785
2588.34716,0.00756
2586.41843,0.00734
2584.48971,0.00714
2582.56099,0.00691
2580.63226,0.00665
2578.70354,0.00639
2576.77482,0.00614
2574.84609,0.00589
2572.91737,0.00571
2570.98865,0.00559
2569.05992,0.00547
2567.13120,0.00533
2565.20247,0.00516
2563.27375,0.00495
2561.34503,0.00473
2559.41630,0.00455
2557.48758,0.00446
2555.55886,0.00442
2553.63013,0.00438
2551.70141,0.00425
2549.77269,0.00401
2547.84396,0.00377
2545.91524,0.00359
2543.98651,0.00341
2542.05779,0.00326
2540.12907,0.00318
2538.20034,0.00313
2536.27162,0.00307
2534.34290,0.00296
2532.41417,0.00276
2530.48545,0.00254
2528.55673,0.00238
2526.62800,0.00228
2524.69928,0.00218
2522.77055,0.00200
2520.84183,0.00178
2518.91311,0.00166
2516.98438,0.00174
2515.05566,0.00187
2513.12694,0.00186
2511.19821,0.00172
2509.26949,0.00148
2507.34076,0.00126
2505.41204,0.00113
2503.48332,0.00108
2501.55459,0.00111
2499.62587,0.00118
2497.69715,0.00110
2495.76842,0.00089
2493.83970,0.00072
2491.91098,0.00065
2489.98225,0.00063
2488.05353,0.00062
2486.12480,0.00058
2484.19608,0.00051
2482.26736,0.00048
2480.33863,0.00045
2478.40991,0.00044
2476.48119,0.00045
2474.55246,0.00044
2472.62374,0.00033
2470.69502,0.00017
2468.76629,0.00004
2466.83757,0.00000
2464.90884,0.00004
2462.98012,0.00008
2461.05140,0.00006
2459.12267,-0.00004
2457.19395,-0.00010
2455.26523,-0.00008
2453.33650,-0.00006
2451.40778,-0.00005
2449.47905,0.00001
2447.55033,0.00002
2445.62161,-0.00003
2443.69288,-0.00008
2441.76416,-0.00010
2439.83544,-0.00010
2437.90671,-0.00008
2435.97799,-0.00003
2434.04927,0.00000
2432.12054,-0.00001
2430.19182,0.00000
2428.26309,0.00009
2426.33437,0.00019
2424.40565,0.00017
2422.47692,0.00013
2420.54820,0.00009
2418.61948,0.00001
2416.69075,-0.00007
2414.76203,-0.00013
2412.83331,-0.00019
2410.90458,-0.00023
2408.97586,-0.00026
2407.04713,-0.00029
2405.11841,-0.00032
2403.18969,-0.00035
2401.26096,-0.00035
2399.33224,-0.00030
2397.40352,-0.00025
2395.47479,-0.00026
2393.54607,-0.00030
2391.61734,-0.00033
2389.68862,-0.00034
2387.75990,-0.00030
2385.83117,-0.00023
2383.90245,-0.00014
2381.97373,-0.00004
2380.04500,0.00004
2378.11628,0.00010
2376.18756,0.00008
2374.25883,0.00000
2372.33011,-0.00004
2370.40138,0.00000
2368.47266,0.00004
2366.54394,-0.00002
2364.61521,-0.00017
2362.68649,-0.00033
2360.75777,-0.00042
2358.82904,-0.00045
2356.90032,-0.00048
2354.97160,-0.00045
2353.04287,-0.00018
2351.11415,0.00040
2349.18542,0.00081
2347.25670,0.00061
2345.32798,0.00020
2343.39925,0.00013
2341.47053,0.00027
2339.54181,0.00036
2337.61308,0.00037
2335.68436,0.00028
2333.75563,0.00022
2331.82691,0.00034
2329.89819,0.00047
2327.96946,0.00042
2326.04074,0.00030
2324.11202,0.00026
2322.18329,0.00031
2320.25457,0.00038
2318.32585,0.00047
2316.39712,0.00050
2314.46840,0.00045
2312.53967,0.00038
2310.61095,0.00038
2308.68223,0.00044
2306.75350,0.00048
2304.82478,0.00051
2302.89606,0.00054
2300.96733,0.00058
2299.03861,0.00060
2297.10989,0.00060
2295.18116,0.00060
2293.25244,0.00057
2291.32371,0.00057
2289.39499,0.00066
2287.46627,0.00080
2285.53754,0.00088
2283.60882,0.00086
2281.68010,0.00079
2279.75137,0.00076
2277.82265,0.00077
2275.89392,0.00083
2273.96520,0.00085
2272.03648,0.00081
2270.10775,0.00078
2268.17903,0.00077
2266.25031,0.00076
2264.32158,0.00076
2262.39286,0.00078
2260.46414,0.00084
2258.53541,0.00088
2256.60669,0.00087
2254.67796,0.00084
2252.74924,0.00083
2250.82052,0.00082
2248.89179,0.00083
2246.96307,0.00089
2245.03435,0.00093
2243.10562,0.00094
2241.17690,0.00097
2239.24818,0.00096
2237.31945,0.00082
2235.39073,0.00067
2233.46200,0.00062
2231.53328,0.00063
2229.60456,0.00065
2227.67583,0.00068
2225.74711,0.00070
2223.81839,0.00069
2221.88966,0.00070
2219.96094,0.00069
2218.03221,0.00060
2216.10349,0.00050
2214.17477,0.00048
2212.24604,0.00050
2210.31732,0.00047
2208.38860,0.00033
2206.45987,0.00018
2204.53115,0.00016
2202.60243,0.00022
2200.67370,0.00026
2198.74498,0.00027
2196.81625,0.00027
2194.88753,0.00027
2192.95881,0.00027
2191.03008,0.00027
2189.10136,0.00024
2187.17264,0.00022
2185.24391,0.00017
2183.31519,0.00010
2181.38647,0.00006
2179.45774,0.00007
2177.52902,0.00010
2175.60029,0.00011
2173.67157,0.00011
2171.74285,0.00012
2169.81412,0.00014
2167.88540,0.00019
2165.95668,0.00028
2164.02795,0.00032
2162.09923,0.00031
2160.17050,0.00028
2158.24178,0.00028
2156.31306,0.00030
2154.38433,0.00031
2152.45561,0.00031
2150.52689,0.00034
2148.59816,0.00039
2146.66944,0.00041
2144.74072,0.00040
2142.81199,0.00039
2140.88327,0.00039
2138.95454,0.00038
2137.02582,0.00035
2135.09710,0.00029
2133.16837,0.00023
2131.23965,0.00019
2129.31093,0.00016
2127.38220,0.00015
2125.45348,0.00021
2123.52476,0.00025
2121.59603,0.00019
2119.66731,0.00010
2117.73858,0.00005
2115.80986,0.00001
2113.88114,0.00001
2111.95241,0.00003
2110.02369,0.00003
2108.09497,0.00001
2106.16624,-0.00002
2104.23752,-0.00004
2102.30880,-0.00006
2100.38007,-0.00006
2098.45135,0.00000
2096.52262,0.00005
2094.59390,0.00000
2092.66518,-0.00014
2090.73645,-0.00026
2088.80773,-0.00035
2086.87901,-0.00038
2084.95028,-0.00034
2083.02156,-0.00024
2081.09283,-0.00016
2079.16411,-0.00020
2077.23539,-0.00029
2075.30666,-0.00032
2073.37794,-0.00031
2071.44922,-0.00030
2069.52049,-0.00024
2067.59177,-0.00013
2065.66305,-0.00001
2063.73432,0.00009
2061.80560,0.00017
2059.87687,0.00023
2057.94815,0.00032
2056.01943,0.00047
2054.09070,0.00069
2052.16198,0.00090
2050.23326,0.00105
2048.30453,0.00121
2046.37581,0.00146
2044.44709,0.00174
2042.51836,0.00203
2040.58964,0.00236
2038.66091,0.00274
2036.73219,0.00311
2034.80347,0.00343
2032.87474,0.00371
2030.94602,0.00401
2029.01730,0.00433
2027.08857,0.00459
2025.15985,0.00480
2023.23112,0.00502
2021.30240,0.00525
2019.37368,0.00546
2017.44495,0.00567
2015.51623,0.00587
2013.58751,0.00605
2011.65878,0.00625
2009.73006,0.00648
2007.80134,0.00668
2005.87261,0.00677
2003.94389,0.00680
2002.01516,0.00684
2000.08644,0.00695
1998.15772,0.00707
1996.22899,0.00713
1994.30027,0.00715
1992.37155,0.00711
1990.44282,0.00702
1988.51410,0.00690
1986.58538,0.00682
1984.65665,0.00674
1982.72793,0.00658
1980.79920,0.00637
1978.87048,0.00621
1976.94176,0.00608
1975.01303,0.00588
1973.08431,0.00562
1971.15559,0.00541
1969.22686,0.00521
1967.29814,0.00491
1965.36941,0.00457
1963.44069,0.00431
1961.51197,0.00413
1959.58324,0.00394
1957.65452,0.00373
1955.72580,0.00353
1953.79707,0.00331
1951.86835,0.00308
1949.93963,0.00290
1948.01090,0.00273
1946.08218,0.00254
1944.15345,0.00232
1942.22473,0.00209
1940.29601,0.00193
1938.36728,0.00186
1936.43856,0.00181
1934.50984,0.00174
1932.58111,0.00168
1930.65239,0.00167
1928.72367,0.00174
1926.79494,0.00189
1924.86622,0.00206
1922.93749,0.00223
1921.00877,0.00245
1919.08005,0.00275
1917.15132,0.00308
1915.22260,0.00344
1913.29388,0.00390
1911.36515,0.00450
1909.43643,0.00520
1907.50770,0.00591
1905.57898,0.00659
1903.65026,0.00726
1901.72153,0.00796
1899.79281,0.00866
1897.86409,0.00939
1895.93536,0.01012
1894.00664,0.01083
1892.07792,0.01147
1890.14919,0.01203
1888.22047,0.01254
1886.29174,0.01306
1884.36302,0.01353
1882.43430,0.01388
1880.50557,0.01411
1878.57685,0.01426
1876.64813,0.01439
1874.71940,0.01452
1872.79068,0.01459
1870.86196,0.01451
1868.93323,0.01417
1867.00451,0.01369
1865.07578,0.01327
1863.14706,0.01287
1861.21834,0.01236
1859.28961,0.01168
1857.36089,0.01087
1855.43217,0.01001
1853.50344,0.00915
1851.57472,0.00834
1849.64599,0.00758
1847.71727,0.00687
1845.78855,0.00610
1843.85982,0.00518
1841.93110,0.00431
1840.00238,0.00369
1838.07365,0.00325
1836.14493,0.00290
1834.21621,0.00263
1832.28748,0.00236
1830.35876,0.00196
1828.43003,0.00152
1826.50131,0.00117
1824.57259,0.00083
1822.64386,0.00050
1820.71514,0.00031
1818.78642,0.00021
1816.85769,0.00009
1814.92897,0.00000
1813.00025,-0.00009
1811.07152,-0.00016
1809.14280,-0.00023
1807.21407,-0.00027
1805.28535,-0.00027
1803.35663,-0.00025
1801.42790,-0.00026
1799.49918,-0.00028
1797.57046,-0.00020
1795.64173,-0.00001
1793.71301,0.00017
1791.78428,0.00027
1789.85556,0.00033
1787.92684,0.00047
1785.99811,0.00063
1784.06939,0.00077
1782.14067,0.00089
1780.21194,0.00105
1778.28322,0.00131
1776.35450,0.00170
1774.42577,0.00211
1772.49705,0.00231
1770.56832,0.00229
1768.63960,0.00228
1766.71088,0.00237
1764.78215,0.00259
1762.85343,0.00288
1760.92471,0.00314
1758.99598,0.00334
1757.06726,0.00353
1755.13854,0.00377
1753.20981,0.00409
1751.28109,0.00446
1749.35236,0.00480
1747.42364,0.00511
1745.49492,0.00547
1743.56619,0.00590
1741.63747,0.00637
1739.70875,0.00694
1737.78002,0.00765
1735.85130,0.00857
1733.92257,0.00972
1731.99385,0.01093
1730.06513,0.01206
1728.13640,0.01318
1726.20768,0.01439
1724.27896,0.01577
1722.35023,0.01727
1720.42151,0.01889
1718.49279,0.02080
1716.56406,0.02285
1714.63534,0.02462
1712.70661,0.02625
1710.77789,0.02801
1708.84917,0.02996
1706.92044,0.03210
1704.99172,0.03432
1703.06300,0.03646
1701.13427,0.03875
1699.20555,0.04142
1697.27683,0.04415
1695.34810,0.04685
1693.41938,0.04935
1691.49065,0.05171
1689.56193,0.05418
1687.63321,0.05673
1685.70448,0.05952
1683.77576,0.06268
1681.84704,0.06545
1679.91831,0.06764
1677.98959,0.06976
1676.06087,0.07212
1674.13214,0.07456
1672.20342,0.07675
1670.27469,0.07885
1668.34597,0.08102
1666.41725,0.08302
1664.48852,0.08498
1662.55980,0.08718
1660.63108,0.08932
1658.70235,0.09105
1656.77363,0.09247
1654.84490,0.09403
1652.91618,0.09592
1650.98746,0.09756
1649.05873,0.09884
1647.13001,0.10003
1645.20129,0.10103
1643.27256,0.10179
1641.34384,0.10254
1639.41512,0.10336
1637.48639,0.10401
1635.55767,0.10423
1633.62894,0.10407
1631.70022,0.10384
1629.77150,0.10355
1627.84277,0.10302
1625.91405,0.10211
1623.98533,0.10072
1622.05660,0.09905
1620.12788,0.09742
1618.19916,0.09538
1616.27043,0.09254
1614.34171,0.08970
1612.41298,0.08730
1610.48426,0.08473
1608.55554,0.08175
1606.62681,0.07865
1604.69809,0.07565
1602.76937,0.07270
1600.84064,0.06987
1598.91192,0.06732
1596.98319,0.06501
1595.05447,0.06275
1593.12575,0.06047
1591.19702,0.05826
1589.26830,0.05617
1587.33958,0.05424
1585.41085,0.05247
1583.48213,0.05081
1581.55341,0.04935
1579.62468,0.04809
1577.69596,0.04672
1575.76723,0.04506
1573.83851,0.04367
1571.90979,0.04275
1569.98106,0.04181
1568.05234,0.04070
1566.12362,0.03974
1564.19489,0.03909
1562.26617,0.03869
1560.33745,0.03808
1558.40872,0.03678
1556.48000,0.03543
1554.55127,0.03462
1552.62255,0.03402
1550.69383,0.03330
1548.76510,0.03241
1546.83638,0.03163
1544.90766,0.03107
1542.97893,0.03050
1541.05021,0.02943
1539.12148,0.02788
1537.19276,0.02673
1535.26404,0.02595
1533.33531,0.02500
1531.40659,0.02394
1529.47787,0.02308
1527.54914,0.02224
1525.62042,0.02128
1523.69170,0.02017
1521.76297,0.01875
1519.83425,0.01717
1517.90552,0.01585
1515.97680,0.01483
1514.04808,0.01406
1512.11935,0.01339
1510.19063,0.01252
1508.26191,0.01094
1506.33318,0.00868
1504.40446,0.00703
1502.47574,0.00627
1500.54701,0.00559
1498.61829,0.00455
1496.68956,0.00335
1494.76084,0.00249
1492.83212,0.00205
1490.90339,0.00162
1488.97467,0.00097
1487.04595,0.00035
1485.11722,0.00000
1483.18850,-0.00015
1481.25977,-0.00011
1479.33105,0.00010
1477.40233,0.00049
1475.47360,0.00100
1473.54488,0.00151
1471.61616,0.00204
1469.68743,0.00279
1467.75871,0.00368
1465.82999,0.00445
1463.90126,0.00499
1461.97254,0.00545
1460.04381,0.00602
1458.11509,0.00664
1456.18637,0.00700
1454.25764,0.00710
1452.32892,0.00718
1450.40020,0.00732
1448.47147,0.00748
1446.54275,0.00769
1444.61403,0.00798
1442.68530,0.00828
1440.75658,0.00858
1438.82785,0.00892
1436.89913,0.00928
1434.97041,0.00961
1433.04168,0.00990
1431.11296,0.01020
1429.18424,0.01050
1427.25551,0.01081
1425.32679,0.01114
1423.39806,0.01150
1421.46934,0.01192
1419.54062,0.01243
1417.61189,0.01300
1415.68317,0.01354
1413.75445,0.01408
1411.82572,0.01470
1409.89700,0.01542
1407.96828,0.01621
1406.03955,0.01700
1404.11083,0.01764
1402.18210,0.01789
1400.25338,0.01759
1398.32466,0.01678
1396.39593,0.01563
1394.46721,0.01429
1392.53849,0.01301
1390.60976,0.01208
1388.68104,0.01165
1386.75232,0.01159
1384.82359,0.01127
1382.89487,0.01013
1380.96614,0.00842
1379.03742,0.00690
1377.10870,0.00587
1375.17997,0.00507
1373.25125,0.00426
1371.32253,0.00349
1369.39380,0.00284
1367.46508,0.00233
1365.53635,0.00195
1363.60763,0.00156
1361.67891,0.00101
1359.75018,0.00042
1357.82146,0.00000
1355.89274,-0.00025
1353.96401,-0.00039
1352.03529,-0.00056
1350.10657,-0.00081
1348.17784,-0.00112
1346.24912,-0.00138
1344.32039,-0.00153
1342.39167,-0.00152
1340.46295,-0.00135
1338.53422,-0.00121
1336.60550,-0.00124
1334.67678,-0.00134
1332.74805,-0.00134
1330.81933,-0.00122
1328.89061,-0.00102
1326.96188,-0.00085
1325.03316,-0.00073
1323.10443,-0.00055
1321.17571,-0.00018
1319.24699,0.00028
1317.31826,0.00061
1315.38954,0.00076
1313.46082,0.00087
1311.53209,0.00105
1309.60337,0.00130
1307.67464,0.00159
1305.74592,0.00190
1303.81720,0.00227
1301.88847,0.00282
1299.95975,0.00366
1298.03103,0.00469
1296.10230,0.00579
1294.17358,0.00695
1292.24486,0.00819
1290.31613,0.00956
1288.38741,0.01103
1286.45868,0.01261
1284.52996,0.01443
1282.60124,0.01656
1280.67251,0.01895
1278.74379,0.02156
1276.81507,0.02434
1274.88634,0.02717
1272.95762,0.03012
1271.02890,0.03349
1269.10017,0.03739
1267.17145,0.04167
1265.24272,0.04623
1263.31400,0.05132
1261.38528,0.05712
1259.45655,0.06336
1257.52783,0.06969
1255.59911,0.07610
1253.67038,0.08270
1251.74166,0.08933
1249.81294,0.09570
1247.88421,0.10161
1245.95549,0.10709
1244.02676,0.11214
1242.09804,0.11671
1240.16932,0.12083
1238.24059,0.12467
1236.31187,0.12836
1234.38315,0.13187
1232.45442,0.13505
1230.52570,0.13781
1228.59697,0.14034
1226.66825,0.14291
1224.73953,0.14554
1222.81080,0.14800
1220.88208,0.15023
1218.95336,0.15234
1217.02463,0.15450
1215.09591,0.15681
1213.16719,0.15918
1211.23846,0.16132
1209.30974,0.16320
1207.38101,0.16516
1205.45229,0.16725
1203.52357,0.16920
1201.59484,0.17094
1199.66612,0.17272
1197.73740,0.17457
1195.80867,0.17624
1193.87995,0.17778
1191.95123,0.17930
1190.02250,0.18091
1188.09378,0.18272
1186.16505,0.18460
1184.23633,0.18642
1182.30761,0.18809
1180.37888,0.18973
1178.45016,0.19163
1176.52144,0.19374
1174.59271,0.19582
1172.66399,0.19797
1170.73526,0.20018
1168.80654,0.20210
1166.87782,0.20372
1164.94909,0.20537
1163.02037,0.20715
1161.09165,0.20881
1159.16292,0.21026
1157.23420,0.21179
1155.30548,0.21355
1153.37675,0.21519
1151.44803,0.21650
1149.51930,0.21763
1147.59058,0.21871
1145.66186,0.21983
1143.73313,0.22106
1141.80441,0.22231
1139.87569,0.22362
1137.94696,0.22500
1136.01824,0.22628
1134.08952,0.22752
1132.16079,0.22895
1130.23207,0.23072
1128.30334,0.23280
1126.37462,0.23476
1124.44590,0.23646
1122.51717,0.23830
1120.58845,0.24040
1118.65973,0.24267
1116.73100,0.24523
1114.80228,0.24814
1112.87355,0.25107
1110.94483,0.25383
1109.01611,0.25658
1107.08738,0.25911
1105.15866,0.26113
1103.22994,0.26309
1101.30121,0.26517
1099.37249,0.26686
1097.44377,0.26818
1095.51504,0.26934
1093.58632,0.27006
1091.65759,0.27023
1089.72887,0.27017
1087.80015,0.27004
1085.87142,0.27015
1083.94270,0.27070
1082.01398,0.27119
1080.08525,0.27111
1078.15653,0.27073
1076.22781,0.27061
1074.29908,0.27055
1072.37036,0.27010
1070.44163,0.26937
1068.51291,0.26904
1066.58419,0.26955
1064.65546,0.27026
1062.72674,0.27052
1060.79802,0.27061
1058.86929,0.27108
1056.94057,0.27187
1055.01184,0.27248
1053.08312,0.27288
1051.15440,0.27319
1049.22567,0.27327
1047.29695,0.27318
1045.36823,0.27321
1043.43950,0.27333
1041.51078,0.27323
1039.58206,0.27280
1037.65333,0.27216
1035.72461,0.27153
1033.79588,0.27069
1031.86716,0.26926
1029.93844,0.26750
1028.00971,0.26559
1026.08099,0.26354
1024.15227,0.26161
1022.22354,0.25957
1020.29482,0.25731
1018.36610,0.25508
1016.43737,0.25264
1014.50865,0.24982
1012.57992,0.24677
1010.65120,0.24339
1008.72248,0.23970
1006.79375,0.23601
1004.86503,0.23230
1002.93631,0.22838
1001.00758,0.22440
999.07886,0.22039
997.15013,0.21622
995.22141,0.21207
993.29269,0.20811
991.36396,0.20424
989.43524,0.20028
987.50652,0.19629
985.57779,0.19242
983.64907,0.18889
981.72035,0.18601
979.79162,0.18354
977.86290,0.18094
975.93417,0.17813
974.00545,0.17539
972.07673,0.17290
970.14800,0.17070
968.21928,0.16865
966.29056,0.16651
964.36183,0.16433
962.43311,0.16232
960.50439,0.16044
958.57566,0.15858
956.64694,0.15672
954.71821,0.15508
952.78949,0.15350
950.86077,0.15152
948.93204,0.14932
947.00332,0.14719
945.07460,0.14495
943.14587,0.14235
941.21715,0.13965
939.28842,0.13712
937.35970,0.13465
935.43098,0.13211
933.50225,0.12950
931.57353,0.12697
929.64481,0.12469
927.71608,0.12246
925.78736,0.12004
923.85864,0.11758
921.92991,0.11519
920.00119,0.11279
918.07246,0.11044
916.14374,0.10826
914.21502,0.10604
912.28629,0.10346
910.35757,0.10037
908.42885,0.09685
906.50012,0.09337
904.57140,0.09030
902.64268,0.08736
900.71395,0.08426
898.78523,0.08108
896.85650,0.07791
894.92778,0.07492
892.99906,0.07237
891.07033,0.06995
889.14161,0.06712
887.21289,0.06409
885.28416,0.06159
883.35544,0.05965
881.42671,0.05773
879.49799,0.05560
877.56927,0.05354
875.64054,0.05180
873.71182,0.05027
871.78310,0.04878
869.85437,0.04721
867.92565,0.04545
865.99693,0.04355
864.06820,0.04185
862.13948,0.04050
860.21075,0.03914
858.28203,0.03772
856.35331,0.03657
854.42458,0.03563
852.49586,0.03478
850.56714,0.03429
848.63841,0.03438
846.70969,0.03492
844.78097,0.03592
842.85224,0.03754
840.92352,0.03965
838.99479,0.04194
837.06607,0.04434
835.13735,0.04691
833.20862,0.04954
831.27990,0.05196
829.35118,0.05408
827.42245,0.05614
825.49373,0.05837
823.56501,0.06086
821.63628,0.06349
819.70756,0.06601
817.77883,0.06843
815.85011,0.07082
813.92139,0.07303
811.99266,0.07510
810.06394,0.07714
808.13522,0.07930
806.20649,0.08181
804.27777,0.08445
802.34904,0.08660
800.42032,0.08809
798.49160,0.08880
796.56287,0.08851
794.63415,0.08763
792.70543,0.08675
790.77670,0.08584
788.84798,0.08476
786.91926,0.08367
784.99053,0.08243
783.06181,0.08067
781.13308,0.07845
779.20436,0.07591
777.27564,0.07283
775.34691,0.06926
773.41819,0.06582
771.48947,0.06303
769.56074,0.06089
767.63202,0.05911
765.70330,0.05756
763.77457,0.05626
761.84585,0.05530
759.91712,0.05488
757.98840,0.05467
756.05968,0.05397
754.13095,0.05284
752.20223,0.05196
750.27351,0.05191
748.34478,0.05229
746.41606,0.05232
744.48733,0.05184
742.55861,0.05105
740.62989,0.05011
738.70116,0.04939
736.77244,0.04905
734.84372,0.04873
732.91499,0.04806
730.98627,0.04727
729.05755,0.04682
727.12882,0.04666
725.20010,0.04649
723.27137,0.04619
721.34265,0.04574
719.41393,0.04534
717.48520,0.04519
715.55648,0.04514
713.62776,0.04491
711.69903,0.04436
709.77031,0.04365
707.84159,0.04314
705.91286,0.04307
703.98414,0.04341
702.05541,0.04399
700.12669,0.04472
698.19797,0.04555
696.26924,0.04641
694.34052,0.04692
692.41180,0.04688
690.48307,0.04671
688.55435,0.04682
686.62562,0.04704
684.69690,0.04706
682.76818,0.04676
680.83945,0.04625
678.91073,0.04579
676.98201,0.04540
675.05328,0.04515
673.12456,0.04514
671.19584,0.04447
669.26711,0.04301
667.33839,0.04302
665.40966,0.04448
663.48094,0.04517
661.55222,0.04497
659.62349,0.04461
657.69477,0.04443
655.76605,0.04479
653.83732,0.04567
651.90860,0.04683
649.97988,0.04817
648.05115,0.04936
646.12243,0.05005
644.19370,0.05024
642.26498,0.04997
640.33626,0.04955
638.40753,0.04966
636.47881,0.05031
634.55009,0.05084
632.62136,0.05116
630.69264,0.05150
628.76391,0.05167
626.83519,0.05167
624.90647,0.05189
622.97774,0.05203
621.04902,0.05218
619.12030,0.05287
617.19157,0.05400
615.26285,0.05514
613.33413,0.05590
611.40540,0.05626
609.47668,0.05675
607.54795,0.05755
605.61923,0.05855
603.69051,0.05996
601.76178,0.06170
599.83306,0.06309
597.90434,0.06426
595.97561,0.06612
594.04689,0.06828
592.11817,0.06962
590.18944,0.07013
588.26072,0.07047
586.33199,0.07117
584.40327,0.07249
582.47455,0.07388
580.54582,0.07456
578.61710,0.07511
576.68838,0.07652
574.75965,0.07797
572.83093,0.07863
570.90220,0.07945
568.97348,0.08061
567.04476,0.08150
565.11603,0.08258
563.18731,0.08389
561.25859,0.08475
559.32986,0.08556
557.40114,0.08715
555.47242,0.08917
553.54369,0.09100
551.61497,0.09315
549.68624,0.09543
547.75752,0.09691
545.82880,0.09832
543.90007,0.10041
541.97135,0.10202
540.04263,0.10278
538.11390,0.10362
536.18518,0.10474
534.25646,0.10581
532.32773,0.10678
530.39901,0.10777
528.47028,0.10853
526.54156,0.10890
524.61284,0.10972
522.68411,0.11145
520.75539,0.11357
518.82667,0.11543
516.89794,0.11592
514.96922,0.11524
513.04049,0.11563
511.11177,0.11729
509.18305,0.11807
507.25432,0.11826
505.32560,0.12053
503.39688,0.12472
501.46815,0.12838
499.53943,0.13219
497.61071,0.13848
495.68198,0.14521
493.75326,0.14903
491.82453,0.15129
489.89581,0.15537
487.96709,0.16191
486.03836,0.16991
484.10964,0.17783
482.18092,0.18214
480.25219,0.18111
478.32347,0.17958
476.39475,0.18280
474.46602,0.18911
472.53730,0.19427
470.60857,0.19760
468.67985,0.20030
466.75113,0.20214
464.82240,0.20226
462.89368,0.20140
460.96496,0.20133
459.03623,0.20187
457.10751,0.20110
455.17878,0.19928
453.25006,0.19801
451.32134,0.19638
449.39261,0.19328
447.46389,0.18991
445.53517,0.18756
443.60644,0.18469
441.67772,0.17848
439.74900,0.17124
437.82027,0.16787
435.89155,0.16693
433.96282,0.16366
432.03410,0.15769
430.10538,0.15067
428.17665,0.14381
426.24793,0.13951
424.31921,0.13949
422.39048,0.14152
420.46176,0.14051
418.53304,0.13356
416.60431,0.12493
414.67559,0.12013
412.74686,0.11888
410.81814,0.11897
408.88942,0.11786
406.96069,0.11033
405.03197,0.09475
403.10325,0.07786
401.17452,0.06319
399.24580,0.05314
397.31708,0.06252
395.38835,0.08982
393.45963,0.09832
391.53090,0.07554
389.60218,0.04985
387.67346,0.04338
385.74473,0.04135
383.81601,0.02532
381.88729,0.01453
379.95856,0.02598
378.02984,0.04106
376.10111,0.04490
374.17239,0.03898
372.24367,0.02316
370.31494,0.00824
368.38622,0.00000
