3996.31543,0.00000
3994.38671,0.00011
3992.45799,0.00018
3990.52926,0.00027
3988.60054,0.00040
3986.67182,0.00044
3984.74309,0.00044
3982.81437,0.00056
3980.88564,0.00074
3978.95692,0.00075
3977.02820,0.00056
3975.09947,0.00049
3973.17075,0.00068
3971.24203,0.00093
3969.31330,0.00107
3967.38458,0.00109
3965.45586,0.00095
3963.52713,0.00072
3961.59841,0.00075
3959.66968,0.00106
3957.74096,0.00126
3955.81224,0.00132
3953.88351,0.00129
3951.95479,0.00113
3950.02607,0.00110
3948.09734,0.00152
3946.16862,0.00188
3944.23990,0.00162
3942.31117,0.00154
3940.38245,0.00188
3938.45372,0.00184
3936.52500,0.00147
3934.59628,0.00107
3932.66755,0.00107
3930.73883,0.00171
3928.81011,0.00210
3926.88138,0.00160
3924.95266,0.00127
3923.02393,0.00182
3921.09521,0.00213
3919.16649,0.00189
3917.23776,0.00193
3915.30904,0.00227
3913.38032,0.00224
3911.45159,0.00189
3909.52287,0.00163
3907.59415,0.00112
3905.66542,0.00055
3903.73670,0.00117
3901.80797,0.00253
3899.87925,0.00312
3897.95053,0.00330
3896.02180,0.00301
3894.09308,0.00189
3892.16436,0.00134
3890.23563,0.00235
3888.30691,0.00265
3886.37819,0.00170
3884.44946,0.00202
3882.52074,0.00243
3880.59201,0.00229
3878.66329,0.00308
3876.73457,0.00296
3874.80584,0.00188
3872.87712,0.00169
3870.94840,0.00192
3869.01967,0.00293
3867.09095,0.00354
3865.16222,0.00264
3863.23350,0.00266
3861.30478,0.00359
3859.37605,0.00371
3857.44733,0.00230
3855.51861,0.00000
3853.58988,0.00008
3851.66116,0.00373
3849.73244,0.00537
3847.80371,0.00408
3845.87499,0.00226
3843.94626,0.00149
3842.01754,0.00178
3840.08882,0.00204
3838.16009,0.00265
3836.23137,0.00374
3834.30265,0.00387
3832.37392,0.00325
3830.44520,0.00308
3828.51648,0.00292
3826.58775,0.00277
3824.65903,0.00273
3822.73030,0.00185
3820.80158,0.00223
3818.87286,0.00386
3816.94413,0.00350
3815.01541,0.00341
3813.08669,0.00406
3811.15796,0.00344
3809.22924,0.00213
3807.30052,0.00201
3805.37179,0.00335
3803.44307,0.00327
3801.51434,0.00301
3799.58562,0.00458
3797.65690,0.00484
3795.72817,0.00438
3793.79945,0.00447
3791.87073,0.00415
3789.94200,0.00371
3788.01328,0.00360
3786.08455,0.00378
3784.15583,0.00438
3782.22711,0.00472
3780.29838,0.00457
3778.36966,0.00535
3776.44094,0.00637
3774.51221,0.00629
3772.58349,0.00550
3770.65477,0.00519
3768.72604,0.00621
3766.79732,0.00726
3764.86859,0.00794
3762.93987,0.00837
3761.01115,0.00798
3759.08242,0.00836
3757.15370,0.00990
3755.22498,0.01043
3753.29625,0.00958
3751.36753,0.01015
3749.43881,0.01325
3747.51008,0.01496
3745.58136,0.01438
3743.65263,0.01579
3741.72391,0.01812
3739.79519,0.01780
3737.86646,0.01647
3735.93774,0.01721
3734.00902,0.02048
3732.08029,0.02372
3730.15157,0.02551
3728.22284,0.02591
3726.29412,0.02651
3724.36540,0.02857
3722.43667,0.03118
3720.50795,0.03376
3718.57923,0.03621
3716.65050,0.03833
3714.72178,0.03987
3712.79306,0.04201
3710.86433,0.04672
3708.93561,0.05219
3707.00688,0.05574
3705.07816,0.05773
3703.14944,0.06003
3701.22071,0.06421
3699.29199,0.06913
3697.36327,0.07287
3695.43454,0.07591
3693.50582,0.07859
3691.57710,0.08139
3689.64837,0.08631
3687.71965,0.09325
3685.79092,0.09887
3683.86220,0.10219
3681.93348,0.10511
3680.00475,0.10855
3678.07603,0.11234
3676.14731,0.11808
3674.21858,0.12665
3672.28986,0.13243
3670.36113,0.13584
3668.43241,0.14177
3666.50369,0.14723
3664.57496,0.15025
3662.64624,0.15307
3660.71752,0.15652
3658.78879,0.15983
3656.86007,0.16362
3654.93135,0.16839
3653.00262,0.17132
3651.07390,0.17280
3649.14517,0.17777
3647.21645,0.18506
3645.28773,0.18970
3643.35900,0.19144
3641.43028,0.19293
3639.50156,0.19534
3637.57283,0.19813
3635.64411,0.20076
3633.71539,0.20320
3631.78666,0.20505
3629.85794,0.20718
3627.92921,0.21234
3626.00049,0.21745
3624.07177,0.21905
3622.14304,0.21902
3620.21432,0.22018
3618.28560,0.22359
3616.35687,0.22678
3614.42815,0.22809
3612.49942,0.22937
3610.57070,0.23123
3608.64198,0.23326
3606.71325,0.23584
3604.78453,0.23779
3602.85581,0.23848
3600.92708,0.23941
3598.99836,0.24127
3597.06964,0.24310
3595.14091,0.24488
3593.21219,0.24712
3591.28346,0.24876
3589.35474,0.24953
3587.42602,0.25157
3585.49729,0.25492
3583.56857,0.25684
3581.63985,0.25741
3579.71112,0.25833
3577.78240,0.25991
3575.85368,0.26158
3573.92495,0.26314
3571.99623,0.26440
3570.06750,0.26497
3568.13878,0.26583
3566.21006,0.26856
3564.28133,0.27161
3562.35261,0.27301
3560.42389,0.27367
3558.49516,0.27462
3556.56644,0.27560
3554.63771,0.27647
3552.70899,0.27783
3550.78027,0.27969
3548.85154,0.28089
3546.92282,0.28151
3544.99410,0.28269
3543.06537,0.28432
3541.13665,0.28566
3539.20793,0.28664
3537.27920,0.28769
3535.35048,0.28906
3533.42175,0.29035
3531.49303,0.29124
3529.56431,0.29203
3527.63558,0.29307
3525.70686,0.29433
3523.77814,0.29570
3521.84941,0.29715
3519.92069,0.29829
3517.99197,0.29912
3516.06324,0.30008
3514.13452,0.30104
3512.20579,0.30176
3510.27707,0.30252
3508.34835,0.30370
3506.41962,0.30480
3504.49090,0.30550
3502.56218,0.30654
3500.63345,0.30791
3498.70473,0.30885
3496.77600,0.30958
3494.84728,0.31065
3492.91856,0.31174
3490.98983,0.31240
3489.06111,0.31290
3487.13239,0.31369
3485.20366,0.31450
3483.27494,0.31505
3481.34622,0.31592
3479.41749,0.31709
3477.48877,0.31787
3475.56004,0.31837
3473.63132,0.31900
3471.70260,0.31967
3469.77387,0.32023
3467.84515,0.32080
3465.91643,0.32151
3463.98770,0.32217
3462.05898,0.32276
3460.13026,0.32341
3458.20153,0.32389
3456.27281,0.32419
3454.34408,0.32468
3452.41536,0.32550
3450.48664,0.32622
3448.55791,0.32634
3446.62919,0.32646
3444.70047,0.32695
3442.77174,0.32732
3440.84302,0.32772
3438.91429,0.32821
3436.98557,0.32859
3435.05685,0.32886
3433.12812,0.32907
3431.19940,0.32949
3429.27068,0.33008
3427.34195,0.33044
3425.41323,0.33057
3423.48451,0.33068
3421.55578,0.33089
3419.62706,0.33127
3417.69833,0.33164
3415.76961,0.33181
3413.84089,0.33190
3411.91216,0.33193
3409.98344,0.33197
3408.05472,0.33202
3406.12599,0.33210
3404.19727,0.33220
3402.26855,0.33230
3400.33982,0.33225
3398.41110,0.33194
3396.48237,0.33175
3394.55365,0.33188
3392.62493,0.33211
3390.69620,0.33206
3388.76748,0.33160
3386.83876,0.33127
3384.91003,0.33140
3382.98131,0.33162
3381.05259,0.33156
3379.12386,0.33141
3377.19514,0.33129
3375.26641,0.33103
3373.33769,0.33065
3371.40897,0.33028
3369.48024,0.33004
3367.55152,0.32998
3365.62280,0.33001
3363.69407,0.32985
3361.76535,0.32941
3359.83662,0.32896
3357.90790,0.32861
3355.97918,0.32844
3354.05045,0.32835
3352.12173,0.32810
3350.19301,0.32777
3348.26428,0.32747
3346.33556,0.32709
3344.40684,0.32666
3342.47811,0.32628
3340.54939,0.32589
3338.62066,0.32542
3336.69194,0.32490
3334.76322,0.32448
3332.83449,0.32413
3330.90577,0.32375
3328.97705,0.32339
3327.04832,0.32308
3325.11960,0.32274
3323.19088,0.32229
3321.26215,0.32165
3319.33343,0.32101
3317.40470,0.32061
3315.47598,0.32034
3313.54726,0.32002
3311.61853,0.31969
3309.68981,0.31938
3307.76109,0.31901
3305.83236,0.31858
3303.90364,0.31821
3301.97491,0.31792
3300.04619,0.31754
3298.11747,0.31719
3296.18874,0.31694
3294.26002,0.31654
3292.33130,0.31592
3290.40257,0.31554
3288.47385,0.31544
3286.54513,0.31523
3284.61640,0.31482
3282.68768,0.31431
3280.75895,0.31361
3278.83023,0.31278
3276.90151,0.31214
3274.97278,0.31177
3273.04406,0.31144
3271.11534,0.31091
3269.18661,0.31028
3267.25789,0.30981
3265.32917,0.30958
3263.40044,0.30936
3261.47172,0.30881
3259.54299,0.30796
3257.61427,0.30720
3255.68555,0.30669
3253.75682,0.30623
3251.82810,0.30563
3249.89938,0.30487
3247.97065,0.30409
3246.04193,0.30343
3244.11320,0.30296
3242.18448,0.30249
3240.25576,0.30187
3238.32703,0.30113
3236.39831,0.30039
3234.46959,0.29976
3232.54086,0.29915
3230.61214,0.29845
3228.68342,0.29774
3226.75469,0.29707
3224.82597,0.29635
3222.89724,0.29551
3220.96852,0.29462
3219.03980,0.29381
3217.11107,0.29307
3215.18235,0.29225
3213.25363,0.29140
3211.32490,0.29061
3209.39618,0.28982
3207.46746,0.28897
3205.53873,0.28805
3203.61001,0.28714
3201.68128,0.28628
3199.75256,0.28544
3197.82384,0.28461
3195.89511,0.28385
3193.96639,0.28304
3192.03767,0.28206
3190.10894,0.28093
3188.18022,0.27990
3186.25149,0.27901
3184.32277,0.27806
3182.39405,0.27694
3180.46532,0.27581
3178.53660,0.27483
3176.60788,0.27395
3174.67915,0.27301
3172.75043,0.27199
3170.82171,0.27092
3168.89298,0.26981
3166.96426,0.26875
3165.03553,0.26772
3163.10681,0.26659
3161.17809,0.26539
3159.24936,0.26431
3157.32064,0.26349
3155.39192,0.26276
3153.46319,0.26189
3151.53447,0.26080
3149.60575,0.25965
3147.67702,0.25856
3145.74830,0.25743
3143.81957,0.25628
3141.89085,0.25520
3139.96213,0.25418
3138.03340,0.25319
3136.10468,0.25219
3134.17596,0.25119
3132.24723,0.25029
3130.31851,0.24932
3128.38978,0.24816
3126.46106,0.24699
3124.53234,0.24587
3122.60361,0.24484
3120.67489,0.24390
3118.74617,0.24294
3116.81744,0.24197
3114.88872,0.24098
3112.96000,0.23984
3111.03127,0.23866
3109.10255,0.23755
3107.17382,0.23648
3105.24510,0.23543
3103.31638,0.23438
3101.38765,0.23340
3099.45893,0.23246
3097.53021,0.23130
3095.60148,0.23000
3093.67276,0.22878
3091.74404,0.22765
3089.81531,0.22656
3087.88659,0.22536
3085.95786,0.22409
3084.02914,0.22297
3082.10042,0.22200
3080.17169,0.22098
3078.24297,0.21984
3076.31425,0.21858
3074.38552,0.21727
3072.45680,0.21600
3070.52807,0.21486
3068.59935,0.21385
3066.67063,0.21288
3064.74190,0.21177
3062.81318,0.21048
3060.88446,0.20915
3058.95573,0.20786
3057.02701,0.20666
3055.09829,0.20552
3053.16956,0.20439
3051.24084,0.20325
3049.31211,0.20211
3047.38339,0.20098
3045.45467,0.19989
3043.52594,0.19879
3041.59722,0.19755
3039.66850,0.19621
3037.73977,0.19498
3035.81105,0.19393
3033.88233,0.19289
3031.95360,0.19174
3030.02488,0.19060
3028.09615,0.18949
3026.16743,0.18841
3024.23871,0.18739
3022.30998,0.18645
3020.38126,0.18555
3018.45254,0.18462
3016.52381,0.18361
3014.59509,0.18267
3012.66636,0.18185
3010.73764,0.18096
3008.80892,0.17994
3006.88019,0.17895
3004.95147,0.17815
3003.02275,0.17755
3001.09402,0.17693
2999.16530,0.17617
2997.23658,0.17534
2995.30785,0.17452
2993.37913,0.17374
2991.45040,0.17305
2989.52168,0.17248
2987.59296,0.17206
2985.66423,0.17168
2983.73551,0.17132
2981.80679,0.17110
2979.87806,0.17092
2977.94934,0.17065
2976.02062,0.17037
2974.09189,0.17026
2972.16317,0.17036
2970.23444,0.17048
2968.30572,0.17046
2966.37700,0.17053
2964.44827,0.17082
2962.51955,0.17101
2960.59083,0.17098
2958.66210,0.17081
2956.73338,0.17052
2954.80466,0.17011
2952.87593,0.16962
2950.94721,0.16916
2949.01848,0.16882
2947.08976,0.16871
2945.16104,0.16896
2943.23231,0.16958
2941.30359,0.17031
2939.37487,0.17103
2937.44614,0.17186
2935.51742,0.17281
2933.58869,0.17378
2931.65997,0.17463
2929.73125,0.17518
2927.80252,0.17538
2925.87380,0.17522
2923.94508,0.17456
2922.01635,0.17321
2920.08763,0.17119
2918.15891,0.16857
2916.23018,0.16550
2914.30146,0.16219
2912.37273,0.15893
2910.44401,0.15596
2908.51529,0.15336
2906.58656,0.15107
2904.65784,0.14908
2902.72912,0.14733
2900.80039,0.14571
2898.87167,0.14419
2896.94295,0.14267
2895.01422,0.14107
2893.08550,0.13947
2891.15677,0.13800
2889.22805,0.13664
2887.29933,0.13528
2885.37060,0.13394
2883.44188,0.13272
2881.51316,0.13174
2879.58443,0.13091
2877.65571,0.13014
2875.72698,0.12945
2873.79826,0.12880
2871.86954,0.12802
2869.94081,0.12716
2868.01209,0.12641
2866.08337,0.12586
2864.15464,0.12563
2862.22592,0.12584
2860.29720,0.12642
2858.36847,0.12714
2856.43975,0.12764
2854.51102,0.12764
2852.58230,0.12690
2850.65358,0.12508
2848.72485,0.12216
2846.79613,0.11862
2844.86741,0.11503
2842.93868,0.11179
2841.00996,0.10910
2839.08124,0.10678
2837.15251,0.10471
2835.22379,0.10286
2833.29506,0.10117
2831.36634,0.09968
2829.43762,0.09843
2827.50889,0.09735
2825.58017,0.09633
2823.65145,0.09526
2821.72272,0.09408
2819.79400,0.09292
2817.86527,0.09191
2815.93655,0.09097
2814.00783,0.09001
2812.07910,0.08911
2810.15038,0.08828
2808.22166,0.08745
2806.29293,0.08657
2804.36421,0.08564
2802.43549,0.08471
2800.50676,0.08387
2798.57804,0.08309
2796.64931,0.08230
2794.72059,0.08149
2792.79187,0.08074
2790.86314,0.08009
2788.93442,0.07942
2787.00570,0.07855
2785.07697,0.07760
2783.14825,0.07674
2781.21953,0.07597
2779.29080,0.07522
2777.36208,0.07452
2775.43335,0.07389
2773.50463,0.07321
2771.57591,0.07240
2769.64718,0.07159
2767.71846,0.07089
2765.78974,0.07025
2763.86101,0.06961
2761.93229,0.06892
2760.00356,0.06826
2758.07484,0.06763
2756.14612,0.06694
2754.21739,0.06620
2752.28867,0.06555
2750.35995,0.06500
2748.43122,0.06444
2746.50250,0.06378
2744.57378,0.06308
2742.64505,0.06242
2740.71633,0.06179
2738.78760,0.06118
2736.85888,0.06060
2734.93016,0.06003
2733.00143,0.05941
2731.07271,0.05878
2729.14399,0.05822
2727.21526,0.05769
2725.28654,0.05709
2723.35782,0.05636
2721.42909,0.05560
2719.50037,0.05492
2717.57164,0.05438
2715.64292,0.05387
2713.71420,0.05326
2711.78547,0.05264
2709.85675,0.05211
2707.92803,0.05156
2705.99930,0.05094
2704.07058,0.05030
2702.14185,0.04967
2700.21313,0.04913
2698.28441,0.04866
2696.35568,0.04814
2694.42696,0.04755
2692.49824,0.04696
2690.56951,0.04643
2688.64079,0.04601
2686.71207,0.04563
2684.78334,0.04519
2682.85462,0.04466
2680.92589,0.04408
2678.99717,0.04351
2677.06845,0.04304
2675.13972,0.04262
2673.21100,0.04213
2671.28228,0.04158
2669.35355,0.04102
2667.42483,0.04052
2665.49611,0.04004
2663.56738,0.03954
2661.63866,0.03907
2659.70993,0.03870
2657.78121,0.03833
2655.85249,0.03785
2653.92376,0.03733
2651.99504,0.03682
2650.06632,0.03629
2648.13759,0.03575
2646.20887,0.03530
2644.28014,0.03488
2642.35142,0.03443
2640.42270,0.03398
2638.49397,0.03361
2636.56525,0.03327
2634.63653,0.03283
2632.70780,0.03234
2630.77908,0.03188
2628.85036,0.03144
2626.92163,0.03105
2624.99291,0.03070
2623.06418,0.03031
2621.13546,0.02992
2619.20674,0.02952
2617.27801,0.02909
2615.34929,0.02865
2613.42057,0.02825
2611.49184,0.02788
2609.56312,0.02753
2607.63440,0.02721
2605.70567,0.02688
2603.77695,0.02653
2601.84822,0.02618
2599.91950,0.02586
2597.99078,0.02556
2596.06205,0.02521
2594.13333,0.02484
2592.20461,0.02448
2590.27588,0.02413
2588.34716,0.02381
2586.41843,0.02348
2584.48971,0.02312
2582.56099,0.02278
2580.63226,0.02251
2578.70354,0.02218
2576.77482,0.02179
2574.84609,0.02141
2572.91737,0.02107
2570.98865,0.02079
2569.05992,0.02063
2567.13120,0.02047
2565.20247,0.02018
2563.27375,0.01984
2561.34503,0.01962
2559.41630,0.01949
2557.48758,0.01929
2555.55886,0.01901
2553.63013,0.01873
2551.70141,0.01847
2549.77269,0.01820
2547.84396,0.01796
2545.91524,0.01773
2543.98651,0.01747
2542.05779,0.01721
2540.12907,0.01694
2538.20034,0.01664
2536.27162,0.01640
2534.34290,0.01623
2532.41417,0.01607
2530.48545,0.01584
2528.55673,0.01559
2526.62800,0.01538
2524.69928,0.01521
2522.77055,0.01500
2520.84183,0.01476
2518.91311,0.01454
2516.98438,0.01432
2515.05566,0.01407
2513.12694,0.01381
2511.19821,0.01359
2509.26949,0.01335
2507.34076,0.01306
2505.41204,0.01285
2503.48332,0.01274
2501.55459,0.01257
2499.62587,0.01230
2497.69715,0.01210
2495.76842,0.01202
2493.83970,0.01192
2491.91098,0.01168
2489.98225,0.01135
2488.05353,0.01110
2486.12480,0.01094
2484.19608,0.01074
2482.26736,0.01052
2480.33863,0.01034
2478.40991,0.01017
2476.48119,0.01000
2474.55246,0.00986
2472.62374,0.00968
2470.69502,0.00944
2468.76629,0.00919
2466.83757,0.00898
2464.90884,0.00877
2462.98012,0.00855
2461.05140,0.00837
2459.12267,0.00822
2457.19395,0.00807
2455.26523,0.00792
2453.33650,0.00778
2451.40778,0.00761
2449.47905,0.00741
2447.55033,0.00724
2445.62161,0.00711
2443.69288,0.00696
2441.76416,0.00676
2439.83544,0.00661
2437.90671,0.00654
2435.97799,0.00645
2434.04927,0.00628
2432.12054,0.00602
2430.19182,0.00575
2428.26309,0.00557
2426.33437,0.00547
2424.40565,0.00533
2422.47692,0.00515
2420.54820,0.00497
2418.61948,0.00478
2416.69075,0.00457
2414.76203,0.00441
2412.83331,0.00431
2410.90458,0.00420
2408.97586,0.00404
2407.04713,0.00389
2405.11841,0.00378
2403.18969,0.00369
2401.26096,0.00360
2399.33224,0.00351
2397.40352,0.00341
2395.47479,0.00329
2393.54607,0.00314
2391.61734,0.00300
2389.68862,0.00289
2387.75990,0.00278
2385.83117,0.00268
2383.90245,0.00259
2381.97373,0.00253
2380.04500,0.00249
2378.11628,0.00248
2376.18756,0.00247
2374.25883,0.00245
2372.33011,0.00247
2370.40138,0.00253
2368.47266,0.00263
2366.54394,0.00275
2364.61521,0.00288
2362.68649,0.00307
2360.75777,0.00327
2358.82904,0.00322
2356.90032,0.00299
2354.97160,0.00290
2353.04287,0.00318
2351.11415,0.00352
2349.18542,0.00314
2347.25670,0.00205
2345.32798,0.00132
2343.39925,0.00149
2341.47053,0.00188
2339.54181,0.00209
2337.61308,0.00217
2335.68436,0.00215
2333.75563,0.00213
2331.82691,0.00215
2329.89819,0.00217
2327.96946,0.00210
2326.04074,0.00193
2324.11202,0.00170
2322.18329,0.00148
2320.25457,0.00138
2318.32585,0.00136
2316.39712,0.00127
2314.46840,0.00113
2312.53967,0.00099
2310.61095,0.00084
2308.68223,0.00073
2306.75350,0.00066
2304.82478,0.00059
2302.89606,0.00050
2300.96733,0.00047
2299.03861,0.00047
2297.10989,0.00037
2295.18116,0.00022
2293.25244,0.00011
2291.32371,0.00008
2289.39499,0.00006
2287.46627,0.00006
2285.53754,0.00007
2283.60882,0.00009
2281.68010,0.00006
2279.75137,0.00001
2277.82265,0.00003
2275.89392,0.00007
2273.96520,0.00005
2272.03648,-0.00005
2270.10775,-0.00019
2268.17903,-0.00026
2266.25031,-0.00016
2264.32158,0.00004
2262.39286,0.00014
2260.46414,0.00009
2258.53541,0.00000
2256.60669,-0.00004
2254.67796,-0.00002
2252.74924,-0.00001
2250.82052,-0.00002
2248.89179,-0.00002
2246.96307,0.00001
2245.03435,0.00004
2243.10562,0.00003
2241.17690,-0.00001
2239.24818,-0.00004
2237.31945,-0.00007
2235.39073,-0.00008
2233.46200,-0.00005
2231.53328,-0.00006
2229.60456,-0.00011
2227.67583,-0.00011
2225.74711,-0.00005
2223.81839,-0.00005
2221.88966,-0.00009
2219.96094,-0.00010
2218.03221,-0.00009
2216.10349,-0.00008
2214.17477,-0.00006
2212.24604,-0.00004
2210.31732,0.00001
2208.38860,0.00007
2206.45987,0.00006
2204.53115,0.00000
2202.60243,-0.00005
2200.67370,0.00002
2198.74498,0.00009
2196.81625,0.00009
2194.88753,0.00005
2192.95881,0.00003
2191.03008,0.00006
2189.10136,0.00012
2187.17264,0.00017
2185.24391,0.00016
2183.31519,0.00013
2181.38647,0.00011
2179.45774,0.00008
2177.52902,0.00006
2175.60029,0.00008
2173.67157,0.00006
2171.74285,0.00004
2169.81412,0.00010
2167.88540,0.00020
2165.95668,0.00023
2164.02795,0.00019
2162.09923,0.00014
2160.17050,0.00010
2158.24178,0.00013
2156.31306,0.00021
2154.38433,0.00029
2152.45561,0.00032
2150.52689,0.00029
2148.59816,0.00025
2146.66944,0.00025
2144.74072,0.00025
2142.81199,0.00026
2140.88327,0.00032
2138.95454,0.00038
2137.02582,0.00040
2135.09710,0.00040
2133.16837,0.00038
2131.23965,0.00031
2129.31093,0.00022
2127.38220,0.00021
2125.45348,0.00025
2123.52476,0.00025
2121.59603,0.00024
2119.66731,0.00019
2117.73858,0.00011
2115.80986,0.00006
2113.88114,0.00003
2111.95241,-0.00003
2110.02369,-0.00007
2108.09497,-0.00004
2106.16624,0.00001
2104.23752,0.00002
2102.30880,0.00001
2100.38007,0.00003
2098.45135,0.00006
2096.52262,0.00004
2094.59390,0.00000
2092.66518,-0.00012
2090.73645,-0.00020
2088.80773,-0.00023
2086.87901,-0.00028
2084.95028,-0.00041
2083.02156,-0.00052
2081.09283,-0.00056
2079.16411,-0.00055
2077.23539,-0.00057
2075.30666,-0.00060
2073.37794,-0.00061
2071.44922,-0.00061
2069.52049,-0.00059
2067.59177,-0.00059
2065.66305,-0.00062
2063.73432,-0.00051
2061.80560,-0.00041
2059.87687,-0.00045
2057.94815,-0.00049
2056.01943,-0.00046
2054.09070,-0.00038
2052.16198,-0.00023
2050.23326,-0.00007
2048.30453,0.00004
2046.37581,0.00017
2044.44709,0.00033
2042.51836,0.00051
2040.58964,0.00076
2038.66091,0.00100
2036.73219,0.00113
2034.80347,0.00128
2032.87474,0.00154
2030.94602,0.00186
2029.01730,0.00212
2027.08857,0.00228
2025.15985,0.00244
2023.23112,0.00265
2021.30240,0.00290
2019.37368,0.00307
2017.44495,0.00323
2015.51623,0.00355
2013.58751,0.00372
2011.65878,0.00367
2009.73006,0.00372
2007.80134,0.00387
2005.87261,0.00403
2003.94389,0.00410
2002.01516,0.00408
2000.08644,0.00404
1998.15772,0.00408
1996.22899,0.00416
1994.30027,0.00402
1992.37155,0.00386
1990.44282,0.00413
1988.51410,0.00429
1986.58538,0.00415
1984.65665,0.00399
1982.72793,0.00380
1980.79920,0.00363
1978.87048,0.00349
1976.94176,0.00340
1975.01303,0.00334
1973.08431,0.00328
1971.15559,0.00319
1969.22686,0.00290
1967.29814,0.00264
1965.36941,0.00272
1963.44069,0.00260
1961.51197,0.00221
1959.58324,0.00196
1957.65452,0.00180
1955.72580,0.00161
1953.79707,0.00146
1951.86835,0.00131
1949.93963,0.00114
1948.01090,0.00101
1946.08218,0.00088
1944.15345,0.00054
1942.22473,0.00040
1940.29601,0.00066
1938.36728,0.00055
1936.43856,0.00021
1934.50984,0.00007
1932.58111,0.00003
1930.65239,-0.00002
1928.72367,-0.00004
1926.79494,0.00000
1924.86622,-0.00013
1922.93749,-0.00005
1921.00877,0.00043
1919.08005,0.00049
1917.15132,0.00075
1915.22260,0.00146
1913.29388,0.00174
1911.36515,0.00182
1909.43643,0.00220
1907.50770,0.00288
1905.57898,0.00345
1903.65026,0.00385
1901.72153,0.00435
1899.79281,0.00494
1897.86409,0.00543
1895.93536,0.00591
1894.00664,0.00661
1892.07792,0.00708
1890.14919,0.00723
1888.22047,0.00785
1886.29174,0.00852
1884.36302,0.00871
1882.43430,0.00886
1880.50557,0.00907
1878.57685,0.00925
1876.64813,0.00943
1874.71940,0.00964
1872.79068,0.00967
1870.86196,0.00913
1868.93323,0.00868
1867.00451,0.00909
1865.07578,0.00928
1863.14706,0.00860
1861.21834,0.00767
1859.28961,0.00696
1857.36089,0.00639
1855.43217,0.00581
1853.50344,0.00524
1851.57472,0.00474
1849.64599,0.00423
1847.71727,0.00366
1845.78855,0.00287
1843.85982,0.00254
1841.93110,0.00299
1840.00238,0.00276
1838.07365,0.00183
1836.14493,0.00135
1834.21621,0.00120
1832.28748,0.00065
1830.35876,0.00016
1828.43003,0.00062
1826.50131,0.00076
1824.57259,0.00033
1822.64386,0.00031
1820.71514,0.00017
1818.78642,-0.00018
1816.85769,-0.00021
1814.92897,0.00000
1813.00025,-0.00021
1811.07152,-0.00038
1809.14280,-0.00010
1807.21407,0.00017
1805.28535,0.00013
1803.35663,-0.00012
1801.42790,-0.00013
1799.49918,0.00054
1797.57046,0.00133
1795.64173,0.00141
1793.71301,0.00099
1791.78428,0.00155
1789.85556,0.00319
1787.92684,0.00390
1785.99811,0.00377
1784.06939,0.00416
1782.14067,0.00484
1780.21194,0.00564
1778.28322,0.00680
1776.35450,0.00748
1774.42577,0.00744
1772.49705,0.00799
1770.56832,0.00993
1768.63960,0.01139
1766.71088,0.01207
1764.78215,0.01233
1762.85343,0.01224
1760.92471,0.01316
1758.99598,0.01444
1757.06726,0.01532
1755.13854,0.01661
1753.20981,0.01737
1751.28109,0.01778
1749.35236,0.01959
1747.42364,0.02205
1745.49492,0.02378
1743.56619,0.02497
1741.63747,0.02631
1739.70875,0.02837
1737.78002,0.03063
1735.85130,0.03125
1733.92257,0.03253
1731.99385,0.03635
1730.06513,0.03897
1728.13640,0.04033
1726.20768,0.04160
1724.27896,0.04311
1722.35023,0.04504
1720.42151,0.04608
1718.49279,0.04670
1716.56406,0.04981
1714.63534,0.05386
1712.70661,0.05624
1710.77789,0.05741
1708.84917,0.05846
1706.92044,0.06028
1704.99172,0.06353
1703.06300,0.06648
1701.13427,0.06832
1699.20555,0.07231
1697.27683,0.07696
1695.34810,0.08093
1693.41938,0.08504
1691.49065,0.08762
1689.56193,0.08991
1687.63321,0.09261
1685.70448,0.09493
1683.77576,0.09997
1681.84704,0.10714
1679.91831,0.11131
1677.98959,0.11320
1676.06087,0.11547
1674.13214,0.11963
1672.20342,0.12361
1670.27469,0.12656
1668.34597,0.13095
1666.41725,0.13482
1664.48852,0.13630
1662.55980,0.13814
1660.63108,0.14169
1658.70235,0.14446
1656.77363,0.14496
1654.84490,0.14424
1652.91618,0.14712
1650.98746,0.15305
1649.05873,0.15394
1647.13001,0.15259
1645.20129,0.15445
1643.27256,0.15658
1641.34384,0.15678
1639.41512,0.15609
1637.48639,0.15492
1635.55767,0.15515
1633.62894,0.15730
1631.70022,0.15771
1629.77150,0.15590
1627.84277,0.15421
1625.91405,0.15279
1623.98533,0.15065
1622.05660,0.14911
1620.12788,0.14728
1618.19916,0.14311
1616.27043,0.13909
1614.34171,0.13698
1612.41298,0.13421
1610.48426,0.13032
1608.55554,0.12668
1606.62681,0.12361
1604.69809,0.12054
1602.76937,0.11736
1600.84064,0.11443
1598.91192,0.11176
1596.98319,0.10907
1595.05447,0.10641
1593.12575,0.10387
1591.19702,0.10132
1589.26830,0.09879
1587.33958,0.09641
1585.41085,0.09414
1583.48213,0.09211
1581.55341,0.09043
1579.62468,0.08843
1577.69596,0.08542
1575.76723,0.08361
1573.83851,0.08383
1571.90979,0.08242
1569.98106,0.07970
1568.05234,0.07879
1566.12362,0.07843
1564.19489,0.07767
1562.26617,0.07597
1560.33745,0.07230
1558.40872,0.07125
1556.48000,0.07377
1554.55127,0.07356
1552.62255,0.07159
1550.69383,0.06972
1548.76510,0.06861
1546.83638,0.06750
1544.90766,0.06551
1542.97893,0.06319
1541.05021,0.06068
1539.12148,0.06024
1537.19276,0.06084
1535.26404,0.05816
1533.33531,0.05444
1531.40659,0.05302
1529.47787,0.05136
1527.54914,0.04843
1525.62042,0.04599
1523.69170,0.04354
1521.76297,0.04082
1519.83425,0.03937
1517.90552,0.03724
1515.97680,0.03442
1514.04808,0.03236
1512.11935,0.03022
1510.19063,0.02712
1508.26191,0.02256
1506.33318,0.01963
1504.40446,0.01980
1502.47574,0.01846
1500.54701,0.01494
1498.61829,0.01145
1496.68956,0.00950
1494.76084,0.00908
1492.83212,0.00784
1490.90339,0.00534
1488.97467,0.00417
1487.04595,0.00467
1485.11722,0.00498
1483.18850,0.00469
1481.25977,0.00475
1479.33105,0.00560
1477.40233,0.00650
1475.47360,0.00759
1473.54488,0.00974
1471.61616,0.01378
1469.68743,0.01772
1467.75871,0.01897
1465.82999,0.01905
1463.90126,0.02060
1461.97254,0.02245
1460.04381,0.02201
1458.11509,0.02097
1456.18637,0.02293
1454.25764,0.02554
1452.32892,0.02580
1450.40020,0.02491
1448.47147,0.02445
1446.54275,0.02501
1444.61403,0.02573
1442.68530,0.02598
1440.75658,0.02608
1438.82785,0.02564
1436.89913,0.02553
1434.97041,0.02717
1433.04168,0.02829
1431.11296,0.02811
1429.18424,0.02851
1427.25551,0.02944
1425.32679,0.02986
1423.39806,0.03040
1421.46934,0.03080
1419.54062,0.03087
1417.61189,0.03238
1415.68317,0.03411
1413.75445,0.03453
1411.82572,0.03464
1409.89700,0.03526
1407.96828,0.03591
1406.03955,0.03624
1404.11083,0.03689
1402.18210,0.03741
1400.25338,0.03665
1398.32466,0.03527
1396.39593,0.03359
1394.46721,0.03171
1392.53849,0.03038
1390.60976,0.02888
1388.68104,0.02694
1386.75232,0.02580
1384.82359,0.02537
1382.89487,0.02433
1380.96614,0.02281
1379.03742,0.02141
1377.10870,0.01998
1375.17997,0.01827
1373.25125,0.01700
1371.32253,0.01601
1369.39380,0.01462
1367.46508,0.01337
1365.53635,0.01211
1363.60763,0.01048
1361.67891,0.00942
1359.75018,0.00890
1357.82146,0.00798
1355.89274,0.00676
1353.96401,0.00581
1352.03529,0.00516
1350.10657,0.00460
1348.17784,0.00414
1346.24912,0.00378
1344.32039,0.00347
1342.39167,0.00298
1340.46295,0.00236
1338.53422,0.00227
1336.60550,0.00254
1334.67678,0.00241
1332.74805,0.00190
1330.81933,0.00151
1328.89061,0.00143
1326.96188,0.00148
1325.03316,0.00158
1323.10443,0.00175
1321.17571,0.00187
1319.24699,0.00202
1317.31826,0.00239
1315.38954,0.00277
1313.46082,0.00310
1311.53209,0.00362
1309.60337,0.00421
1307.67464,0.00476
1305.74592,0.00544
1303.81720,0.00628
1301.88847,0.00729
1299.95975,0.00846
1298.03103,0.00975
1296.10230,0.01120
1294.17358,0.01280
1292.24486,0.01452
1290.31613,0.01640
1288.38741,0.01855
1286.45868,0.02109
1284.52996,0.02396
1282.60124,0.02704
1280.67251,0.03035
1278.74379,0.03393
1276.81507,0.03778
1274.88634,0.04206
1272.95762,0.04688
1271.02890,0.05243
1269.10017,0.05875
1267.17145,0.06576
1265.24272,0.07344
1263.31400,0.08187
1261.38528,0.09135
1259.45655,0.10210
1257.52783,0.11376
1255.59911,0.12594
1253.67038,0.13868
1251.74166,0.15178
1249.81294,0.16480
1247.88421,0.17726
1245.95549,0.18883
1244.02676,0.19946
1242.09804,0.20927
1240.16932,0.21815
1238.24059,0.22608
1236.31187,0.23332
1234.38315,0.23997
1232.45442,0.24598
1230.52570,0.25141
1228.59697,0.25637
1226.66825,0.26092
1224.73953,0.26513
1222.81080,0.26907
1220.88208,0.27272
1218.95336,0.27612
1217.02463,0.27944
1215.09591,0.28263
1213.16719,0.28552
1211.23846,0.28821
1209.30974,0.29100
1207.38101,0.29392
1205.45229,0.29682
1203.52357,0.29967
1201.59484,0.30243
1199.66612,0.30508
1197.73740,0.30765
1195.80867,0.31024
1193.87995,0.31299
1191.95123,0.31579
1190.02250,0.31836
1188.09378,0.32074
1186.16505,0.32307
1184.23633,0.32550
1182.30761,0.32796
1180.37888,0.33027
1178.45016,0.33231
1176.52144,0.33426
1174.59271,0.33658
1172.66399,0.33934
1170.73526,0.34208
1168.80654,0.34442
1166.87782,0.34659
1164.94909,0.34903
1163.02037,0.35157
1161.09165,0.35382
1159.16292,0.35589
1157.23420,0.35802
1155.30548,0.36014
1153.37675,0.36215
1151.44803,0.36407
1149.51930,0.36608
1147.59058,0.36814
1145.66186,0.37013
1143.73313,0.37233
1141.80441,0.37479
1139.87569,0.37720
1137.94696,0.37964
1136.01824,0.38238
1134.08952,0.38532
1132.16079,0.38837
1130.23207,0.39169
1128.30334,0.39521
1126.37462,0.39904
1124.44590,0.40341
1122.51717,0.40802
1120.58845,0.41277
1118.65973,0.41804
1116.73100,0.42412
1114.80228,0.43093
1112.87355,0.43833
1110.94483,0.44609
1109.01611,0.45391
1107.08738,0.46121
1105.15866,0.46773
1103.22994,0.47379
1101.30121,0.47936
1099.37249,0.48448
1097.44377,0.48911
1095.51504,0.49251
1093.58632,0.49430
1091.65759,0.49476
1089.72887,0.49474
1087.80015,0.49451
1085.87142,0.49334
1083.94270,0.49104
1082.01398,0.48849
1080.08525,0.48626
1078.15653,0.48381
1076.22781,0.48048
1074.29908,0.47619
1072.37036,0.47143
1070.44163,0.46672
1068.51291,0.46209
1066.58419,0.45715
1064.65546,0.45171
1062.72674,0.44591
1060.79802,0.43981
1058.86929,0.43354
1056.94057,0.42665
1055.01184,0.41874
1053.08312,0.41050
1051.15440,0.40236
1049.22567,0.39428
1047.29695,0.38642
1045.36823,0.37848
1043.43950,0.37010
1041.51078,0.36139
1039.58206,0.35260
1037.65333,0.34385
1035.72461,0.33516
1033.79588,0.32653
1031.86716,0.31818
1029.93844,0.31026
1028.00971,0.30287
1026.08099,0.29587
1024.15227,0.28876
1022.22354,0.28155
1020.29482,0.27472
1018.36610,0.26833
1016.43737,0.26225
1014.50865,0.25671
1012.57992,0.25179
1010.65120,0.24711
1008.72248,0.24229
1006.79375,0.23745
1004.86503,0.23297
1002.93631,0.22889
1001.00758,0.22500
999.07886,0.22106
997.15013,0.21713
995.22141,0.21350
993.29269,0.21020
991.36396,0.20714
989.43524,0.20424
987.50652,0.20142
985.57779,0.19859
983.64907,0.19611
981.72035,0.19433
979.79162,0.19300
977.86290,0.19182
975.93417,0.19078
974.00545,0.18991
972.07673,0.18910
970.14800,0.18820
968.21928,0.18745
966.29056,0.18704
964.36183,0.18666
962.43311,0.18617
960.50439,0.18581
958.57566,0.18546
956.64694,0.18483
954.71821,0.18375
952.78949,0.18220
950.86077,0.18050
948.93204,0.17891
947.00332,0.17738
945.07460,0.17559
943.14587,0.17328
941.21715,0.17076
939.28842,0.16832
937.35970,0.16570
935.43098,0.16265
933.50225,0.15931
931.57353,0.15602
929.64481,0.15288
927.71608,0.14960
925.78736,0.14587
923.85864,0.14179
921.92991,0.13756
920.00119,0.13330
918.07246,0.12916
916.14374,0.12531
914.21502,0.12165
912.28629,0.11771
910.35757,0.11351
908.42885,0.10944
906.50012,0.10537
904.57140,0.10104
902.64268,0.09660
900.71395,0.09222
898.78523,0.08798
896.85650,0.08405
894.92778,0.08050
892.99906,0.07705
891.07033,0.07337
889.14161,0.06955
887.21289,0.06592
885.28416,0.06251
883.35544,0.05929
881.42671,0.05646
879.49799,0.05387
877.56927,0.05125
875.64054,0.04862
873.71182,0.04593
871.78310,0.04345
869.85437,0.04156
867.92565,0.04005
865.99693,0.03846
864.06820,0.03675
862.13948,0.03497
860.21075,0.03301
858.28203,0.03106
856.35331,0.02949
854.42458,0.02830
852.49586,0.02740
850.56714,0.02666
848.63841,0.02614
846.70969,0.02623
844.78097,0.02699
842.85224,0.02831
840.92352,0.03026
838.99479,0.03258
837.06607,0.03501
835.13735,0.03789
833.20862,0.04146
831.27990,0.04512
829.35118,0.04833
827.42245,0.05130
825.49373,0.05438
823.56501,0.05781
821.63628,0.06162
819.70756,0.06556
817.77883,0.06930
815.85011,0.07286
813.92139,0.07646
811.99266,0.08018
810.06394,0.08372
808.13522,0.08681
806.20649,0.08965
804.27777,0.09244
802.34904,0.09472
800.42032,0.09612
798.49160,0.09682
796.56287,0.09681
794.63415,0.09609
792.70543,0.09509
790.77670,0.09382
788.84798,0.09206
786.91926,0.09001
784.99053,0.08772
783.06181,0.08474
781.13308,0.08082
779.20436,0.07632
777.27564,0.07193
775.34691,0.06791
773.41819,0.06419
771.48947,0.06092
769.56074,0.05833
767.63202,0.05635
765.70330,0.05484
763.77457,0.05364
761.84585,0.05288
759.91712,0.05251
757.98840,0.05200
756.05968,0.05134
754.13095,0.05082
752.20223,0.05033
750.27351,0.05020
748.34478,0.05057
746.41606,0.05076
744.48733,0.05048
742.55861,0.05014
740.62989,0.04972
738.70116,0.04904
736.77244,0.04854
734.84372,0.04864
732.91499,0.04920
730.98627,0.04974
729.05755,0.05006
727.12882,0.05037
725.20010,0.05047
723.27137,0.05024
721.34265,0.05009
719.41393,0.05029
717.48520,0.05054
715.55648,0.05073
713.62776,0.05104
711.69903,0.05150
709.77031,0.05208
707.84159,0.05278
705.91286,0.05362
703.98414,0.05445
702.05541,0.05492
700.12669,0.05517
698.19797,0.05575
696.26924,0.05661
694.34052,0.05760
692.41180,0.05874
690.48307,0.05961
688.55435,0.05978
686.62562,0.05944
684.69690,0.05907
682.76818,0.05901
680.83945,0.05917
678.91073,0.05908
676.98201,0.05875
675.05328,0.05889
673.12456,0.05955
671.19584,0.05939
669.26711,0.05805
667.33839,0.05775
665.40966,0.05881
663.48094,0.05942
661.55222,0.05982
659.62349,0.06079
657.69477,0.06210
655.76605,0.06356
653.83732,0.06523
651.90860,0.06716
649.97988,0.06921
648.05115,0.07098
646.12243,0.07262
644.19370,0.07462
642.26498,0.07668
640.33626,0.07845
638.40753,0.07997
636.47881,0.08088
634.55009,0.08113
632.62136,0.08174
630.69264,0.08353
628.76391,0.08582
626.83519,0.08715
624.90647,0.08753
622.97774,0.08815
621.04902,0.08921
619.12030,0.09035
617.19157,0.09158
615.26285,0.09310
613.33413,0.09473
611.40540,0.09619
609.47668,0.09769
607.54795,0.09917
605.61923,0.10011
603.69051,0.10112
601.76178,0.10340
599.83306,0.10647
597.90434,0.10852
595.97561,0.10934
594.04689,0.11028
592.11817,0.11166
590.18944,0.11265
588.26072,0.11316
586.33199,0.11430
584.40327,0.11645
582.47455,0.11848
580.54582,0.11914
578.61710,0.11829
576.68838,0.11762
574.75965,0.11853
572.83093,0.11966
570.90220,0.11980
568.97348,0.11975
567.04476,0.12005
565.11603,0.12006
563.18731,0.11973
561.25859,0.12009
559.32986,0.12109
557.40114,0.12143
555.47242,0.12097
553.54369,0.12108
551.61497,0.12234
549.68624,0.12387
547.75752,0.12505
545.82880,0.12581
543.90007,0.12607
541.97135,0.12629
540.04263,0.12741
538.11390,0.12901
536.18518,0.12950
534.25646,0.12816
532.32773,0.12581
530.39901,0.12370
528.47028,0.12241
526.54156,0.12235
524.61284,0.12361
522.68411,0.12466
520.75539,0.12451
518.82667,0.12412
516.89794,0.12459
514.96922,0.12599
513.04049,0.12805
511.11177,0.13076
509.18305,0.13395
507.25432,0.13880
505.32560,0.14626
503.39688,0.15400
501.46815,0.16070
499.53943,0.16759
497.61071,0.17511
495.68198,0.18301
493.75326,0.19134
491.82453,0.20035
489.89581,0.20950
487.96709,0.21834
486.03836,0.22649
484.10964,0.23301
482.18092,0.23903
480.25219,0.24730
478.32347,0.25823
476.39475,0.26966
474.46602,0.27924
472.53730,0.28648
470.60857,0.29222
468.67985,0.29625
466.75113,0.29725
464.82240,0.29416
462.89368,0.28811
460.96496,0.28177
459.03623,0.27537
457.10751,0.26887
455.17878,0.26461
453.25006,0.26285
451.32134,0.26203
449.39261,0.25921
447.46389,0.25095
445.53517,0.23847
443.60644,0.22752
441.67772,0.22219
439.74900,0.22018
437.82027,0.21568
435.89155,0.20825
433.96282,0.20286
432.03410,0.19976
430.10538,0.19435
428.17665,0.18573
426.24793,0.17653
424.31921,0.16769
422.39048,0.15852
420.46176,0.14884
418.53304,0.13937
416.60431,0.13059
414.67559,0.12400
412.74686,0.12263
410.81814,0.12559
408.88942,0.12818
406.96069,0.12852
405.03197,0.12930
403.10325,0.13439
401.17452,0.14247
399.24580,0.14264
397.31708,0.12423
395.38835,0.09821
393.45963,0.08759
391.53090,0.09119
389.60218,0.08948
387.67346,0.07844
385.74473,0.06861
383.81601,0.06324
381.88729,0.05237
379.95856,0.03078
378.02984,0.00874
376.10111,0.00000
374.17239,0.01177
372.24367,0.03270
370.31494,0.03133
368.38622,0.00000
