3996.31543,0.00039
3994.38671,0.00062
3992.45799,0.00052
3990.52926,0.00031
3988.60054,0.00032
3986.67182,0.00047
3984.74309,0.00046
3982.81437,0.00021
3980.88564,0.00000
3978.95692,0.00001
3977.02820,0.00017
3975.09947,0.00035
3973.17075,0.00041
3971.24203,0.00041
3969.31330,0.00049
3967.38458,0.00059
3965.45586,0.00057
3963.52713,0.00050
3961.59841,0.00047
3959.66968,0.00044
3957.74096,0.00037
3955.81224,0.00030
3953.88351,0.00033
3951.95479,0.00042
3950.02607,0.00048
3948.09734,0.00049
3946.16862,0.00046
3944.23990,0.00047
3942.31117,0.00054
3940.38245,0.00048
3938.45372,0.00023
3936.52500,0.00000
3934.59628,0.00003
3932.66755,0.00031
3930.73883,0.00049
3928.81011,0.00035
3926.88138,0.00016
3924.95266,0.00022
3923.02393,0.00040
3921.09521,0.00051
3919.16649,0.00060
3917.23776,0.00071
3915.30904,0.00075
3913.38032,0.00066
3911.45159,0.00047
3909.52287,0.00030
3907.59415,0.00027
3905.66542,0.00043
3903.73670,0.00073
3901.80797,0.00095
3899.87925,0.00101
3897.95053,0.00096
3896.02180,0.00083
3894.09308,0.00073
3892.16436,0.00080
3890.23563,0.00085
3888.30691,0.00070
3886.37819,0.00054
3884.44946,0.00059
3882.52074,0.00073
3880.59201,0.00083
3878.66329,0.00075
3876.73457,0.00044
3874.80584,0.00011
3872.87712,0.00000
3870.94840,0.00013
3869.01967,0.00028
3867.09095,0.00023
3865.16222,0.00022
3863.23350,0.00042
3861.30478,0.00055
3859.37605,0.00044
3857.44733,0.00031
3855.51861,0.00050
3853.58988,0.00109
3851.66116,0.00143
3849.73244,0.00109
3847.80371,0.00055
3845.87499,0.00023
3843.94626,0.00016
3842.01754,0.00018
3840.08882,0.00023
3838.16009,0.00027
3836.23137,0.00025
3834.30265,0.00033
3832.37392,0.00058
3830.44520,0.00077
3828.51648,0.00079
3826.58775,0.00073
3824.65903,0.00069
3822.73030,0.00073
3820.80158,0.00088
3818.87286,0.00104
3816.94413,0.00114
3815.01541,0.00118
3813.08669,0.00102
3811.15796,0.00071
3809.22924,0.00057
3807.30052,0.00068
3805.37179,0.00074
3803.44307,0.00075
3801.51434,0.00106
3799.58562,0.00147
3797.65690,0.00161
3795.72817,0.00163
3793.79945,0.00168
3791.87073,0.00168
3789.94200,0.00164
3788.01328,0.00166
3786.08455,0.00179
3784.15583,0.00202
3782.22711,0.00225
3780.29838,0.00244
3778.36966,0.00258
3776.44094,0.00259
3774.51221,0.00253
3772.58349,0.00254
3770.65477,0.00265
3768.72604,0.00288
3766.79732,0.00316
3764.86859,0.00340
3762.93987,0.00353
3761.01115,0.00366
3759.08242,0.00393
3757.15370,0.00412
3755.22498,0.00409
3753.29625,0.00420
3751.36753,0.00475
3749.43881,0.00537
3747.51008,0.00572
3745.58136,0.00627
3743.65263,0.00709
3741.72391,0.00747
3739.79519,0.00740
3737.86646,0.00757
3735.93774,0.00832
3734.00902,0.00933
3732.08029,0.01022
3730.15157,0.01093
3728.22284,0.01162
3726.29412,0.01251
3724.36540,0.01357
3722.43667,0.01469
3720.50795,0.01587
3718.57923,0.01711
3716.65050,0.01828
3714.72178,0.01946
3712.79306,0.02112
3710.86433,0.02346
3708.93561,0.02584
3707.00688,0.02774
3705.07816,0.02944
3703.14944,0.03153
3701.22071,0.03422
3699.29199,0.03693
3697.36327,0.03916
3695.43454,0.04098
3693.50582,0.04270
3691.57710,0.04491
3689.64837,0.04806
3687.71965,0.05149
3685.79092,0.05428
3683.86220,0.05662
3681.93348,0.05905
3680.00475,0.06153
3678.07603,0.06409
3676.14731,0.06747
3674.21858,0.07149
3672.28986,0.07503
3670.36113,0.07863
3668.43241,0.08244
3666.50369,0.08538
3664.57496,0.08773
3662.64624,0.09027
3660.71752,0.09300
3658.78879,0.09587
3656.86007,0.09911
3654.93135,0.10226
3653.00262,0.10458
3651.07390,0.10701
3649.14517,0.11074
3647.21645,0.11466
3645.28773,0.11736
3643.35900,0.11942
3641.43028,0.12177
3639.50156,0.12445
3637.57283,0.12704
3635.64411,0.12928
3633.71539,0.13118
3631.78666,0.13304
3629.85794,0.13571
3627.92921,0.13914
3626.00049,0.14180
3624.07177,0.14344
3622.14304,0.14502
3620.21432,0.14715
3618.28560,0.14941
3616.35687,0.15098
3614.42815,0.15209
3612.49942,0.15344
3610.57070,0.15502
3608.64198,0.15670
3606.71325,0.15839
3604.78453,0.15986
3602.85581,0.16123
3600.92708,0.16265
3598.99836,0.16394
3597.06964,0.16503
3595.14091,0.16627
3593.21219,0.16764
3591.28346,0.16878
3589.35474,0.16984
3587.42602,0.17134
3585.49729,0.17306
3583.56857,0.17441
3581.63985,0.17541
3579.71112,0.17640
3577.78240,0.17748
3575.85368,0.17859
3573.92495,0.17969
3571.99623,0.18071
3570.06750,0.18168
3568.13878,0.18288
3566.21006,0.18439
3564.28133,0.18574
3562.35261,0.18683
3560.42389,0.18787
3558.49516,0.18879
3556.56644,0.18948
3554.63771,0.19022
3552.70899,0.19126
3550.78027,0.19234
3548.85154,0.19316
3546.92282,0.19399
3544.99410,0.19500
3543.06537,0.19586
3541.13665,0.19642
3539.20793,0.19705
3537.27920,0.19798
3535.35048,0.19893
3533.42175,0.19963
3531.49303,0.20028
3529.56431,0.20106
3527.63558,0.20180
3525.70686,0.20236
3523.77814,0.20294
3521.84941,0.20361
3519.92069,0.20426
3517.99197,0.20498
3516.06324,0.20577
3514.13452,0.20646
3512.20579,0.20700
3510.27707,0.20758
3508.34835,0.20828
3506.41962,0.20896
3504.49090,0.20963
3502.56218,0.21043
3500.63345,0.21127
3498.70473,0.21197
3496.77600,0.21251
3494.84728,0.21298
3492.91856,0.21346
3490.98983,0.21402
3489.06111,0.21470
3487.13239,0.21537
3485.20366,0.21589
3483.27494,0.21643
3481.34622,0.21714
3479.41749,0.21778
3477.48877,0.21816
3475.56004,0.21851
3473.63132,0.21910
3471.70260,0.21981
3469.77387,0.22043
3467.84515,0.22080
3465.91643,0.22097
3463.98770,0.22125
3462.05898,0.22179
3460.13026,0.22221
3458.20153,0.22232
3456.27281,0.22250
3454.34408,0.22300
3452.41536,0.22353
3450.48664,0.22386
3448.55791,0.22408
3446.62919,0.22448
3444.70047,0.22500
3442.77174,0.22536
3440.84302,0.22563
3438.91429,0.22600
3436.98557,0.22639
3435.05685,0.22660
3433.12812,0.22667
3431.19940,0.22669
3429.27068,0.22676
3427.34195,0.22701
3425.41323,0.22729
3423.48451,0.22742
3421.55578,0.22752
3419.62706,0.22774
3417.69833,0.22803
3415.76961,0.22822
3413.84089,0.22839
3411.91216,0.22861
3409.98344,0.22873
3408.05472,0.22855
3406.12599,0.22823
3404.19727,0.22815
3402.26855,0.22826
3400.33982,0.22817
3398.41110,0.22792
3396.48237,0.22769
3394.55365,0.22746
3392.62493,0.22718
3390.69620,0.22684
3388.76748,0.22649
3386.83876,0.22621
3384.91003,0.22594
3382.98131,0.22555
3381.05259,0.22509
3379.12386,0.22469
3377.19514,0.22432
3375.26641,0.22393
3373.33769,0.22361
3371.40897,0.22335
3369.48024,0.22304
3367.55152,0.22256
3365.62280,0.22198
3363.69407,0.22152
3361.76535,0.22104
3359.83662,0.22046
3357.90790,0.22003
3355.97918,0.21966
3354.05045,0.21921
3352.12173,0.21872
3350.19301,0.21826
3348.26428,0.21785
3346.33556,0.21746
3344.40684,0.21704
3342.47811,0.21640
3340.54939,0.21551
3338.62066,0.21462
3336.69194,0.21392
3334.76322,0.21334
3332.83449,0.21278
3330.90577,0.21221
3328.97705,0.21167
3327.04832,0.21122
3325.11960,0.21083
3323.19088,0.21025
3321.26215,0.20949
3319.33343,0.20879
3317.40470,0.20819
3315.47598,0.20763
3313.54726,0.20718
3311.61853,0.20681
3309.68981,0.20641
3307.76109,0.20590
3305.83236,0.20536
3303.90364,0.20480
3301.97491,0.20420
3300.04619,0.20355
3298.11747,0.20293
3296.18874,0.20239
3294.26002,0.20199
3292.33130,0.20162
3290.40257,0.20120
3288.47385,0.20075
3286.54513,0.20019
3284.61640,0.19949
3282.68768,0.19884
3280.75895,0.19840
3278.83023,0.19814
3276.90151,0.19791
3274.97278,0.19752
3273.04406,0.19698
3271.11534,0.19643
3269.18661,0.19583
3267.25789,0.19527
3265.32917,0.19487
3263.40044,0.19448
3261.47172,0.19397
3259.54299,0.19343
3257.61427,0.19298
3255.68555,0.19252
3253.75682,0.19205
3251.82810,0.19166
3249.89938,0.19122
3247.97065,0.19054
3246.04193,0.18983
3244.11320,0.18930
3242.18448,0.18886
3240.25576,0.18833
3238.32703,0.18768
3236.39831,0.18702
3234.46959,0.18646
3232.54086,0.18601
3230.61214,0.18550
3228.68342,0.18481
3226.75469,0.18407
3224.82597,0.18335
3222.89724,0.18261
3220.96852,0.18186
3219.03980,0.18117
3217.11107,0.18062
3215.18235,0.18007
3213.25363,0.17934
3211.32490,0.17856
3209.39618,0.17795
3207.46746,0.17732
3205.53873,0.17645
3203.61001,0.17543
3201.68128,0.17446
3199.75256,0.17362
3197.82384,0.17285
3195.89511,0.17203
3193.96639,0.17115
3192.03767,0.17030
3190.10894,0.16944
3188.18022,0.16853
3186.25149,0.16762
3184.32277,0.16678
3182.39405,0.16602
3180.46532,0.16528
3178.53660,0.16453
3176.60788,0.16374
3174.67915,0.16284
3172.75043,0.16190
3170.82171,0.16103
3168.89298,0.16012
3166.96426,0.15913
3165.03553,0.15825
3163.10681,0.15752
3161.17809,0.15675
3159.24936,0.15586
3157.32064,0.15490
3155.39192,0.15401
3153.46319,0.15318
3151.53447,0.15237
3149.60575,0.15160
3147.67702,0.15077
3145.74830,0.14982
3143.81957,0.14885
3141.89085,0.14798
3139.96213,0.14715
3138.03340,0.14628
3136.10468,0.14539
3134.17596,0.14455
3132.24723,0.14378
3130.31851,0.14305
3128.38978,0.14234
3126.46106,0.14165
3124.53234,0.14081
3122.60361,0.13977
3120.67489,0.13869
3118.74617,0.13782
3116.81744,0.13713
3114.88872,0.13641
3112.96000,0.13563
3111.03127,0.13487
3109.10255,0.13412
3107.17382,0.13330
3105.24510,0.13236
3103.31638,0.13144
3101.38765,0.13059
3099.45893,0.12967
3097.53021,0.12866
3095.60148,0.12780
3093.67276,0.12714
3091.74404,0.12652
3089.81531,0.12581
3087.88659,0.12498
3085.95786,0.12406
3084.02914,0.12313
3082.10042,0.12221
3080.17169,0.12129
3078.24297,0.12039
3076.31425,0.11952
3074.38552,0.11864
3072.45680,0.11788
3070.52807,0.11722
3068.59935,0.11643
3066.67063,0.11546
3064.74190,0.11453
3062.81318,0.11377
3060.88446,0.11307
3058.95573,0.11226
3057.02701,0.11147
3055.09829,0.11075
3053.16956,0.10997
3051.24084,0.10911
3049.31211,0.10831
3047.38339,0.10760
3045.45467,0.10683
3043.52594,0.10595
3041.59722,0.10510
3039.66850,0.10441
3037.73977,0.10383
3035.81105,0.10322
3033.88233,0.10242
3031.95360,0.10146
3030.02488,0.10061
3028.09615,0.09994
3026.16743,0.09931
3024.23871,0.09859
3022.30998,0.09784
3020.38126,0.09710
3018.45254,0.09636
3016.52381,0.09568
3014.59509,0.09511
3012.66636,0.09448
3010.73764,0.09365
3008.80892,0.09275
3006.88019,0.09195
3004.95147,0.09131
3003.02275,0.09078
3001.09402,0.09029
2999.16530,0.08974
2997.23658,0.08913
2995.30785,0.08853
2993.37913,0.08788
2991.45040,0.08714
2989.52168,0.08649
2987.59296,0.08607
2985.66423,0.08578
2983.73551,0.08551
2981.80679,0.08526
2979.87806,0.08498
2977.94934,0.08470
2976.02062,0.08456
2974.09189,0.08459
2972.16317,0.08464
2970.23444,0.08474
2968.30572,0.08500
2966.37700,0.08542
2964.44827,0.08580
2962.51955,0.08591
2960.59083,0.08572
2958.66210,0.08531
2956.73338,0.08471
2954.80466,0.08395
2952.87593,0.08308
2950.94721,0.08214
2949.01848,0.08134
2947.08976,0.08088
2945.16104,0.08072
2943.23231,0.08085
2941.30359,0.08122
2939.37487,0.08170
2937.44614,0.08235
2935.51742,0.08324
2933.58869,0.08421
2931.65997,0.08500
2929.73125,0.08556
2927.80252,0.08589
2925.87380,0.08581
2923.94508,0.08510
2922.01635,0.08367
2920.08763,0.08175
2918.15891,0.07963
2916.23018,0.07754
2914.30146,0.07565
2912.37273,0.07405
2910.44401,0.07260
2908.51529,0.07122
2906.58656,0.06991
2904.65784,0.06871
2902.72912,0.06763
2900.80039,0.06659
2898.87167,0.06544
2896.94295,0.06416
2895.01422,0.06291
2893.08550,0.06183
2891.15677,0.06088
2889.22805,0.05999
2887.29933,0.05925
2885.37060,0.05867
2883.44188,0.05817
2881.51316,0.05760
2879.58443,0.05706
2877.65571,0.05672
2875.72698,0.05658
2873.79826,0.05647
2871.86954,0.05616
2869.94081,0.05571
2868.01209,0.05535
2866.08337,0.05513
2864.15464,0.05504
2862.22592,0.05525
2860.29720,0.05579
2858.36847,0.05644
2856.43975,0.05692
2854.51102,0.05687
2852.58230,0.05605
2850.65358,0.05455
2848.72485,0.05258
2846.79613,0.05045
2844.86741,0.04844
2842.93868,0.04669
2841.00996,0.04525
2839.08124,0.04409
2837.15251,0.04308
2835.22379,0.04215
2833.29506,0.04131
2831.36634,0.04055
2829.43762,0.03983
2827.50889,0.03912
2825.58017,0.03845
2823.65145,0.03782
2821.72272,0.03722
2819.79400,0.03665
2817.86527,0.03617
2815.93655,0.03576
2814.00783,0.03538
2812.07910,0.03500
2810.15038,0.03460
2808.22166,0.03411
2806.29293,0.03362
2804.36421,0.03323
2802.43549,0.03288
2800.50676,0.03244
2798.57804,0.03191
2796.64931,0.03142
2794.72059,0.03105
2792.79187,0.03071
2790.86314,0.03036
2788.93442,0.02996
2787.00570,0.02953
2785.07697,0.02913
2783.14825,0.02877
2781.21953,0.02841
2779.29080,0.02806
2777.36208,0.02776
2775.43335,0.02741
2773.50463,0.02695
2771.57591,0.02651
2769.64718,0.02610
2767.71846,0.02569
2765.78974,0.02528
2763.86101,0.02492
2761.93229,0.02464
2760.00356,0.02439
2758.07484,0.02409
2756.14612,0.02367
2754.21739,0.02323
2752.28867,0.02290
2750.35995,0.02266
2748.43122,0.02241
2746.50250,0.02209
2744.57378,0.02170
2742.64505,0.02136
2740.71633,0.02116
2738.78760,0.02094
2736.85888,0.02061
2734.93016,0.02028
2733.00143,0.02002
2731.07271,0.01974
2729.14399,0.01942
2727.21526,0.01911
2725.28654,0.01884
2723.35782,0.01863
2721.42909,0.01838
2719.50037,0.01804
2717.57164,0.01768
2715.64292,0.01735
2713.71420,0.01702
2711.78547,0.01672
2709.85675,0.01640
2707.92803,0.01606
2705.99930,0.01581
2704.07058,0.01563
2702.14185,0.01543
2700.21313,0.01517
2698.28441,0.01489
2696.35568,0.01463
2694.42696,0.01440
2692.49824,0.01416
2690.56951,0.01386
2688.64079,0.01357
2686.71207,0.01337
2684.78334,0.01320
2682.85462,0.01304
2680.92589,0.01283
2678.99717,0.01255
2677.06845,0.01227
2675.13972,0.01204
2673.21100,0.01178
2671.28228,0.01146
2669.35355,0.01120
2667.42483,0.01103
2665.49611,0.01087
2663.56738,0.01068
2661.63866,0.01044
2659.70993,0.01016
2657.78121,0.00994
2655.85249,0.00972
2653.92376,0.00947
2651.99504,0.00922
2650.06632,0.00901
2648.13759,0.00885
2646.20887,0.00872
2644.28014,0.00862
2642.35142,0.00847
2640.42270,0.00825
2638.49397,0.00800
2636.56525,0.00777
2634.63653,0.00758
2632.70780,0.00736
2630.77908,0.00711
2628.85036,0.00696
2626.92163,0.00686
2624.99291,0.00670
2623.06418,0.00649
2621.13546,0.00629
2619.20674,0.00613
2617.27801,0.00593
2615.34929,0.00569
2613.42057,0.00549
2611.49184,0.00539
2609.56312,0.00532
2607.63440,0.00524
2605.70567,0.00512
2603.77695,0.00495
2601.84822,0.00481
2599.91950,0.00473
2597.99078,0.00460
2596.06205,0.00442
2594.13333,0.00427
2592.20461,0.00419
2590.27588,0.00407
2588.34716,0.00387
2586.41843,0.00370
2584.48971,0.00363
2582.56099,0.00357
2580.63226,0.00347
2578.70354,0.00340
2576.77482,0.00336
2574.84609,0.00325
2572.91737,0.00305
2570.98865,0.00285
2569.05992,0.00273
2567.13120,0.00266
2565.20247,0.00258
2563.27375,0.00249
2561.34503,0.00242
2559.41630,0.00232
2557.48758,0.00217
2555.55886,0.00205
2553.63013,0.00195
2551.70141,0.00187
2549.77269,0.00185
2547.84396,0.00184
2545.91524,0.00175
2543.98651,0.00161
2542.05779,0.00151
2540.12907,0.00147
2538.20034,0.00145
2536.27162,0.00141
2534.34290,0.00133
2532.41417,0.00125
2530.48545,0.00122
2528.55673,0.00117
2526.62800,0.00107
2524.69928,0.00093
2522.77055,0.00082
2520.84183,0.00078
2518.91311,0.00074
2516.98438,0.00066
2515.05566,0.00058
2513.12694,0.00052
2511.19821,0.00047
2509.26949,0.00047
2507.34076,0.00049
2505.41204,0.00050
2503.48332,0.00047
2501.55459,0.00042
2499.62587,0.00040
2497.69715,0.00036
2495.76842,0.00031
2493.83970,0.00034
2491.91098,0.00038
2489.98225,0.00034
2488.05353,0.00025
2486.12480,0.00015
2484.19608,0.00008
2482.26736,0.00006
2480.33863,0.00007
2478.40991,0.00007
2476.48119,0.00005
2474.55246,0.00001
2472.62374,0.00000
2470.69502,0.00002
2468.76629,0.00004
2466.83757,0.00005
2464.90884,0.00007
2462.98012,0.00006
2461.05140,0.00001
2459.12267,-0.00002
2457.19395,0.00000
2455.26523,0.00003
2453.33650,-0.00002
2451.40778,-0.00010
2449.47905,-0.00011
2447.55033,-0.00002
2445.62161,0.00009
2443.69288,0.00011
2441.76416,0.00003
2439.83544,-0.00006
2437.90671,-0.00003
2435.97799,0.00012
2434.04927,0.00024
2432.12054,0.00020
2430.19182,0.00012
2428.26309,0.00015
2426.33437,0.00020
2424.40565,0.00013
2422.47692,0.00002
2420.54820,0.00000
2418.61948,0.00003
2416.69075,0.00005
2414.76203,0.00007
2412.83331,0.00010
2410.90458,0.00013
2408.97586,0.00011
2407.04713,0.00008
2405.11841,0.00007
2403.18969,0.00006
2401.26096,0.00005
2399.33224,0.00013
2397.40352,0.00023
2395.47479,0.00025
2393.54607,0.00019
2391.61734,0.00012
2389.68862,0.00009
2387.75990,0.00007
2385.83117,0.00004
2383.90245,0.00003
2381.97373,0.00000
2380.04500,-0.00003
2378.11628,-0.00002
2376.18756,0.00004
2374.25883,0.00004
2372.33011,0.00000
2370.40138,-0.00001
2368.47266,0.00013
2366.54394,0.00034
2364.61521,0.00047
2362.68649,0.00046
2360.75777,0.00041
2358.82904,0.00049
2356.90032,0.00069
2354.97160,0.00081
2353.04287,0.00055
2351.11415,-0.00013
2349.18542,-0.00059
2347.25670,-0.00033
2345.32798,0.00021
2343.39925,0.00044
2341.47053,0.00043
2339.54181,0.00036
2337.61308,0.00028
2335.68436,0.00024
2333.75563,0.00023
2331.82691,0.00025
2329.89819,0.00030
2327.96946,0.00032
2326.04074,0.00030
2324.11202,0.00029
2322.18329,0.00033
2320.25457,0.00035
2318.32585,0.00029
2316.39712,0.00022
2314.46840,0.00021
2312.53967,0.00023
2310.61095,0.00025
2308.68223,0.00026
2306.75350,0.00024
2304.82478,0.00017
2302.89606,0.00014
2300.96733,0.00018
2299.03861,0.00023
2297.10989,0.00019
2295.18116,0.00008
2293.25244,-0.00002
2291.32371,-0.00004
2289.39499,0.00001
2287.46627,0.00006
2285.53754,0.00009
2283.60882,0.00015
2281.68010,0.00023
2279.75137,0.00029
2277.82265,0.00030
2275.89392,0.00028
2273.96520,0.00026
2272.03648,0.00026
2270.10775,0.00024
2268.17903,0.00018
2266.25031,0.00010
2264.32158,0.00005
2262.39286,0.00004
2260.46414,0.00007
2258.53541,0.00009
2256.60669,0.00010
2254.67796,0.00011
2252.74924,0.00010
2250.82052,0.00008
2248.89179,0.00008
2246.96307,0.00006
2245.03435,0.00000
2243.10562,-0.00004
2241.17690,-0.00002
2239.24818,0.00004
2237.31945,0.00008
2235.39073,0.00009
2233.46200,0.00013
2231.53328,0.00021
2229.60456,0.00022
2227.67583,0.00017
2225.74711,0.00010
2223.81839,0.00004
2221.88966,-0.00004
2219.96094,-0.00007
2218.03221,-0.00002
2216.10349,0.00011
2214.17477,0.00019
2212.24604,0.00016
2210.31732,0.00006
2208.38860,0.00000
2206.45987,0.00000
2204.53115,0.00002
2202.60243,0.00003
2200.67370,0.00002
2198.74498,0.00003
2196.81625,0.00003
2194.88753,0.00001
2192.95881,0.00002
2191.03008,0.00006
2189.10136,0.00009
2187.17264,0.00007
2185.24391,0.00006
2183.31519,0.00007
2181.38647,0.00004
2179.45774,-0.00005
2177.52902,-0.00008
2175.60029,-0.00005
2173.67157,-0.00006
2171.74285,-0.00008
2169.81412,-0.00007
2167.88540,-0.00003
2165.95668,-0.00003
2164.02795,-0.00003
2162.09923,0.00002
2160.17050,0.00012
2158.24178,0.00019
2156.31306,0.00019
2154.38433,0.00017
2152.45561,0.00017
2150.52689,0.00013
2148.59816,0.00007
2146.66944,0.00008
2144.74072,0.00018
2142.81199,0.00026
2140.88327,0.00025
2138.95454,0.00017
2137.02582,0.00013
2135.09710,0.00016
2133.16837,0.00020
2131.23965,0.00016
2129.31093,0.00018
2127.38220,0.00025
2125.45348,0.00025
2123.52476,0.00020
2121.59603,0.00018
2119.66731,0.00017
2117.73858,0.00014
2115.80986,0.00010
2113.88114,0.00005
2111.95241,0.00000
2110.02369,-0.00001
2108.09497,0.00004
2106.16624,0.00009
2104.23752,0.00010
2102.30880,0.00007
2100.38007,0.00001
2098.45135,-0.00003
2096.52262,-0.00003
2094.59390,0.00000
2092.66518,-0.00008
2090.73645,-0.00020
2088.80773,-0.00028
2086.87901,-0.00028
2084.95028,-0.00031
2083.02156,-0.00042
2081.09283,-0.00054
2079.16411,-0.00061
2077.23539,-0.00063
2075.30666,-0.00064
2073.37794,-0.00066
2071.44922,-0.00066
2069.52049,-0.00063
2067.59177,-0.00062
2065.66305,-0.00071
2063.73432,-0.00083
2061.80560,-0.00085
2059.87687,-0.00077
2057.94815,-0.00070
2056.01943,-0.00063
2054.09070,-0.00053
2052.16198,-0.00047
2050.23326,-0.00046
2048.30453,-0.00046
2046.37581,-0.00041
2044.44709,-0.00029
2042.51836,-0.00014
2040.58964,-0.00004
2038.66091,0.00001
2036.73219,0.00007
2034.80347,0.00018
2032.87474,0.00032
2030.94602,0.00050
2029.01730,0.00067
2027.08857,0.00076
2025.15985,0.00082
2023.23112,0.00089
2021.30240,0.00094
2019.37368,0.00101
2017.44495,0.00112
2015.51623,0.00122
2013.58751,0.00127
2011.65878,0.00133
2009.73006,0.00141
2007.80134,0.00148
2005.87261,0.00154
2003.94389,0.00160
2002.01516,0.00164
2000.08644,0.00166
1998.15772,0.00164
1996.22899,0.00161
1994.30027,0.00161
1992.37155,0.00168
1990.44282,0.00178
1988.51410,0.00180
1986.58538,0.00172
1984.65665,0.00160
1982.72793,0.00158
1980.79920,0.00164
1978.87048,0.00165
1976.94176,0.00163
1975.01303,0.00159
1973.08431,0.00153
1971.15559,0.00147
1969.22686,0.00144
1967.29814,0.00141
1965.36941,0.00129
1963.44069,0.00110
1961.51197,0.00096
1959.58324,0.00091
1957.65452,0.00093
1955.72580,0.00100
1953.79707,0.00105
1951.86835,0.00101
1949.93963,0.00088
1948.01090,0.00077
1946.08218,0.00071
1944.15345,0.00065
1942.22473,0.00059
1940.29601,0.00058
1938.36728,0.00060
1936.43856,0.00061
1934.50984,0.00063
1932.58111,0.00070
1930.65239,0.00077
1928.72367,0.00080
1926.79494,0.00079
1924.86622,0.00083
1922.93749,0.00094
1921.00877,0.00106
1919.08005,0.00119
1917.15132,0.00139
1915.22260,0.00161
1913.29388,0.00183
1911.36515,0.00208
1909.43643,0.00240
1907.50770,0.00273
1905.57898,0.00304
1903.65026,0.00338
1901.72153,0.00375
1899.79281,0.00409
1897.86409,0.00437
1895.93536,0.00468
1894.00664,0.00502
1892.07792,0.00532
1890.14919,0.00559
1888.22047,0.00587
1886.29174,0.00611
1884.36302,0.00625
1882.43430,0.00634
1880.50557,0.00648
1878.57685,0.00668
1876.64813,0.00681
1874.71940,0.00684
1872.79068,0.00679
1870.86196,0.00674
1868.93323,0.00674
1867.00451,0.00669
1865.07578,0.00651
1863.14706,0.00628
1861.21834,0.00605
1859.28961,0.00580
1857.36089,0.00554
1855.43217,0.00530
1853.50344,0.00504
1851.57472,0.00473
1849.64599,0.00441
1847.71727,0.00414
1845.78855,0.00398
1843.85982,0.00387
1841.93110,0.00367
1840.00238,0.00336
1838.07365,0.00307
1836.14493,0.00281
1834.21621,0.00258
1832.28748,0.00241
1830.35876,0.00232
1828.43003,0.00224
1826.50131,0.00214
1824.57259,0.00207
1822.64386,0.00200
1820.71514,0.00185
1818.78642,0.00167
1816.85769,0.00158
1814.92897,0.00153
1813.00025,0.00150
1811.07152,0.00150
1809.14280,0.00151
1807.21407,0.00146
1805.28535,0.00136
1803.35663,0.00128
1801.42790,0.00125
1799.49918,0.00124
1797.57046,0.00120
1795.64173,0.00115
1793.71301,0.00120
1791.78428,0.00140
1789.85556,0.00159
1787.92684,0.00162
1785.99811,0.00163
1784.06939,0.00171
1782.14067,0.00182
1780.21194,0.00194
1778.28322,0.00200
1776.35450,0.00200
1774.42577,0.00206
1772.49705,0.00227
1770.56832,0.00246
1768.63960,0.00252
1766.71088,0.00257
1764.78215,0.00262
1762.85343,0.00266
1760.92471,0.00270
1758.99598,0.00269
1757.06726,0.00266
1755.13854,0.00264
1753.20981,0.00262
1751.28109,0.00266
1749.35236,0.00272
1747.42364,0.00274
1745.49492,0.00279
1743.56619,0.00291
1741.63747,0.00315
1739.70875,0.00344
1737.78002,0.00367
1735.85130,0.00397
1733.92257,0.00463
1731.99385,0.00546
1730.06513,0.00618
1728.13640,0.00687
1726.20768,0.00765
1724.27896,0.00859
1722.35023,0.00957
1720.42151,0.01046
1718.49279,0.01162
1716.56406,0.01328
1714.63534,0.01499
1712.70661,0.01643
1710.77789,0.01774
1708.84917,0.01915
1706.92044,0.02085
1704.99172,0.02267
1703.06300,0.02423
1701.13427,0.02599
1699.20555,0.02844
1697.27683,0.03099
1695.34810,0.03330
1693.41938,0.03522
1691.49065,0.03685
1689.56193,0.03858
1687.63321,0.04041
1685.70448,0.04283
1683.77576,0.04628
1681.84704,0.04947
1679.91831,0.05166
1677.98959,0.05361
1676.06087,0.05595
1674.13214,0.05846
1672.20342,0.06078
1670.27469,0.06340
1668.34597,0.06626
1666.41725,0.06845
1664.48852,0.07031
1662.55980,0.07270
1660.63108,0.07522
1658.70235,0.07702
1656.77363,0.07825
1654.84490,0.07992
1652.91618,0.08259
1650.98746,0.08471
1649.05873,0.08580
1647.13001,0.08721
1645.20129,0.08894
1643.27256,0.09003
1641.34384,0.09053
1639.41512,0.09092
1637.48639,0.09151
1635.55767,0.09227
1633.62894,0.09264
1631.70022,0.09238
1629.77150,0.09182
1627.84277,0.09112
1625.91405,0.09022
1623.98533,0.08896
1622.05660,0.08730
1620.12788,0.08540
1618.19916,0.08313
1616.27043,0.08028
1614.34171,0.07726
1612.41298,0.07447
1610.48426,0.07177
1608.55554,0.06900
1606.62681,0.06609
1604.69809,0.06305
1602.76937,0.05997
1600.84064,0.05707
1598.91192,0.05444
1596.98319,0.05208
1595.05447,0.04990
1593.12575,0.04783
1591.19702,0.04579
1589.26830,0.04379
1587.33958,0.04191
1585.41085,0.04022
1583.48213,0.03865
1581.55341,0.03715
1579.62468,0.03571
1577.69596,0.03429
1575.76723,0.03289
1573.83851,0.03163
1571.90979,0.03052
1569.98106,0.02941
1568.05234,0.02828
1566.12362,0.02721
1564.19489,0.02621
1562.26617,0.02521
1560.33745,0.02413
1558.40872,0.02303
1556.48000,0.02211
1554.55127,0.02138
1552.62255,0.02068
1550.69383,0.01988
1548.76510,0.01899
1546.83638,0.01810
1544.90766,0.01718
1542.97893,0.01624
1541.05021,0.01543
1539.12148,0.01476
1537.19276,0.01409
1535.26404,0.01339
1533.33531,0.01266
1531.40659,0.01188
1529.47787,0.01109
1527.54914,0.01027
1525.62042,0.00944
1523.69170,0.00868
1521.76297,0.00804
1519.83425,0.00748
1517.90552,0.00693
1515.97680,0.00640
1514.04808,0.00590
1512.11935,0.00537
1510.19063,0.00474
1508.26191,0.00410
1506.33318,0.00351
1504.40446,0.00288
1502.47574,0.00214
1500.54701,0.00137
1498.61829,0.00075
1496.68956,0.00040
1494.76084,0.00020
1492.83212,0.00000
1490.90339,-0.00019
1488.97467,-0.00022
1487.04595,-0.00013
1485.11722,-0.00002
1483.18850,0.00012
1481.25977,0.00032
1479.33105,0.00047
1477.40233,0.00051
1475.47360,0.00070
1473.54488,0.00148
1471.61616,0.00278
1469.68743,0.00384
1467.75871,0.00444
1465.82999,0.00491
1463.90126,0.00529
1461.97254,0.00534
1460.04381,0.00513
1458.11509,0.00501
1456.18637,0.00510
1454.25764,0.00511
1452.32892,0.00495
1450.40020,0.00475
1448.47147,0.00467
1446.54275,0.00473
1444.61403,0.00483
1442.68530,0.00485
1440.75658,0.00476
1438.82785,0.00464
1436.89913,0.00474
1434.97041,0.00499
1433.04168,0.00517
1431.11296,0.00529
1429.18424,0.00543
1427.25551,0.00552
1425.32679,0.00556
1423.39806,0.00559
1421.46934,0.00563
1419.54062,0.00575
1417.61189,0.00600
1415.68317,0.00621
1413.75445,0.00633
1411.82572,0.00641
1409.89700,0.00647
1407.96828,0.00652
1406.03955,0.00662
1404.11083,0.00673
1402.18210,0.00670
1400.25338,0.00648
1398.32466,0.00613
1396.39593,0.00570
1394.46721,0.00528
1392.53849,0.00501
1390.60976,0.00520
1388.68104,0.00647
1386.75232,0.00876
1384.82359,0.01037
1382.89487,0.00981
1380.96614,0.00774
1379.03742,0.00571
1377.10870,0.00437
1375.17997,0.00345
1373.25125,0.00268
1371.32253,0.00199
1369.39380,0.00141
1367.46508,0.00096
1365.53635,0.00059
1363.60763,0.00025
1361.67891,0.00000
1359.75018,-0.00036
1357.82146,-0.00064
1355.89274,-0.00085
1353.96401,-0.00102
1352.03529,-0.00122
1350.10657,-0.00147
1348.17784,-0.00171
1346.24912,-0.00185
1344.32039,-0.00190
1342.39167,-0.00191
1340.46295,-0.00183
1338.53422,-0.00161
1336.60550,-0.00137
1334.67678,-0.00120
1332.74805,-0.00108
1330.81933,-0.00096
1328.89061,-0.00075
1326.96188,-0.00039
1325.03316,0.00011
1323.10443,0.00062
1321.17571,0.00100
1319.24699,0.00135
1317.31826,0.00178
1315.38954,0.00221
1313.46082,0.00257
1311.53209,0.00291
1309.60337,0.00333
1307.67464,0.00385
1305.74592,0.00453
1303.81720,0.00545
1301.88847,0.00660
1299.95975,0.00786
1298.03103,0.00914
1296.10230,0.01046
1294.17358,0.01180
1292.24486,0.01311
1290.31613,0.01453
1288.38741,0.01621
1286.45868,0.01809
1284.52996,0.02008
1282.60124,0.02217
1280.67251,0.02446
1278.74379,0.02711
1276.81507,0.03017
1274.88634,0.03357
1272.95762,0.03745
1271.02890,0.04197
1269.10017,0.04714
1267.17145,0.05297
1265.24272,0.05955
1263.31400,0.06681
1261.38528,0.07472
1259.45655,0.08327
1257.52783,0.09232
1255.59911,0.10164
1253.67038,0.11095
1251.74166,0.11996
1249.81294,0.12846
1247.88421,0.13647
1245.95549,0.14409
1244.02676,0.15119
1242.09804,0.15757
1240.16932,0.16329
1238.24059,0.16862
1236.31187,0.17371
1234.38315,0.17863
1232.45442,0.18333
1230.52570,0.18754
1228.59697,0.19129
1226.66825,0.19507
1224.73953,0.19905
1222.81080,0.20288
1220.88208,0.20651
1218.95336,0.21009
1217.02463,0.21361
1215.09591,0.21709
1213.16719,0.22064
1211.23846,0.22433
1209.30974,0.22806
1207.38101,0.23162
1205.45229,0.23501
1203.52357,0.23855
1201.59484,0.24233
1199.66612,0.24597
1197.73740,0.24929
1195.80867,0.25265
1193.87995,0.25624
1191.95123,0.25996
1190.02250,0.26353
1188.09378,0.26680
1186.16505,0.26989
1184.23633,0.27308
1182.30761,0.27640
1180.37888,0.27967
1178.45016,0.28258
1176.52144,0.28505
1174.59271,0.28748
1172.66399,0.29015
1170.73526,0.29286
1168.80654,0.29537
1166.87782,0.29764
1164.94909,0.29991
1163.02037,0.30247
1161.09165,0.30510
1159.16292,0.30759
1157.23420,0.31009
1155.30548,0.31232
1153.37675,0.31425
1151.44803,0.31637
1149.51930,0.31859
1147.59058,0.32050
1145.66186,0.32216
1143.73313,0.32374
1141.80441,0.32540
1139.87569,0.32741
1137.94696,0.32953
1136.01824,0.33129
1134.08952,0.33296
1132.16079,0.33501
1130.23207,0.33740
1128.30334,0.33997
1126.37462,0.34267
1124.44590,0.34551
1122.51717,0.34837
1120.58845,0.35108
1118.65973,0.35397
1116.73100,0.35743
1114.80228,0.36115
1112.87355,0.36485
1110.94483,0.36869
1109.01611,0.37258
1107.08738,0.37625
1105.15866,0.37961
1103.22994,0.38268
1101.30121,0.38531
1099.37249,0.38759
1097.44377,0.38965
1095.51504,0.39110
1093.58632,0.39171
1091.65759,0.39182
1089.72887,0.39188
1087.80015,0.39207
1085.87142,0.39228
1083.94270,0.39232
1082.01398,0.39197
1080.08525,0.39114
1078.15653,0.39004
1076.22781,0.38885
1074.29908,0.38722
1072.37036,0.38536
1070.44163,0.38382
1068.51291,0.38224
1066.58419,0.38014
1064.65546,0.37765
1062.72674,0.37530
1060.79802,0.37324
1058.86929,0.37124
1056.94057,0.36890
1055.01184,0.36580
1053.08312,0.36221
1051.15440,0.35880
1049.22567,0.35597
1047.29695,0.35336
1045.36823,0.35056
1043.43950,0.34764
1041.51078,0.34456
1039.58206,0.34123
1037.65333,0.33782
1035.72461,0.33460
1033.79588,0.33172
1031.86716,0.32886
1029.93844,0.32559
1028.00971,0.32213
1026.08099,0.31905
1024.15227,0.31627
1022.22354,0.31348
1020.29482,0.31071
1018.36610,0.30813
1016.43737,0.30570
1014.50865,0.30345
1012.57992,0.30134
1010.65120,0.29902
1008.72248,0.29639
1006.79375,0.29375
1004.86503,0.29111
1002.93631,0.28806
1001.00758,0.28470
999.07886,0.28151
997.15013,0.27851
995.22141,0.27539
993.29269,0.27203
991.36396,0.26863
989.43524,0.26536
987.50652,0.26241
985.57779,0.25987
983.64907,0.25723
981.72035,0.25424
979.79162,0.25141
977.86290,0.24885
975.93417,0.24624
974.00545,0.24352
972.07673,0.24075
970.14800,0.23812
968.21928,0.23580
966.29056,0.23383
964.36183,0.23220
962.43311,0.23065
960.50439,0.22907
958.57566,0.22768
956.64694,0.22628
954.71821,0.22446
952.78949,0.22215
950.86077,0.21975
948.93204,0.21792
947.00332,0.21645
945.07460,0.21454
943.14587,0.21201
941.21715,0.20920
939.28842,0.20648
937.35970,0.20406
935.43098,0.20175
933.50225,0.19946
931.57353,0.19721
929.64481,0.19498
927.71608,0.19261
925.78736,0.19002
923.85864,0.18731
921.92991,0.18435
920.00119,0.18130
918.07246,0.17849
916.14374,0.17557
914.21502,0.17226
912.28629,0.16890
910.35757,0.16566
908.42885,0.16225
906.50012,0.15851
904.57140,0.15458
902.64268,0.15039
900.71395,0.14594
898.78523,0.14166
896.85650,0.13773
894.92778,0.13400
892.99906,0.13039
891.07033,0.12667
889.14161,0.12284
887.21289,0.11914
885.28416,0.11534
883.35544,0.11148
881.42671,0.10796
879.49799,0.10464
877.56927,0.10144
875.64054,0.09833
873.71182,0.09490
871.78310,0.09133
869.85437,0.08829
867.92565,0.08567
865.99693,0.08285
864.06820,0.07988
862.13948,0.07714
860.21075,0.07449
858.28203,0.07151
856.35331,0.06832
854.42458,0.06545
852.49586,0.06310
850.56714,0.06092
848.63841,0.05854
846.70969,0.05622
844.78097,0.05453
842.85224,0.05364
840.92352,0.05316
838.99479,0.05286
837.06607,0.05303
835.13735,0.05358
833.20862,0.05386
831.27990,0.05385
829.35118,0.05417
827.42245,0.05502
825.49373,0.05594
823.56501,0.05681
821.63628,0.05813
819.70756,0.05981
817.77883,0.06128
815.85011,0.06265
813.92139,0.06468
811.99266,0.06748
810.06394,0.07034
808.13522,0.07308
806.20649,0.07579
804.27777,0.07827
802.34904,0.08024
800.42032,0.08156
798.49160,0.08238
796.56287,0.08317
794.63415,0.08412
792.70543,0.08488
790.77670,0.08514
788.84798,0.08497
786.91926,0.08426
784.99053,0.08299
783.06181,0.08175
781.13308,0.08087
779.20436,0.07974
777.27564,0.07794
775.34691,0.07584
773.41819,0.07398
771.48947,0.07268
769.56074,0.07177
767.63202,0.07097
765.70330,0.07046
763.77457,0.07013
761.84585,0.06963
759.91712,0.06909
757.98840,0.06887
756.05968,0.06887
754.13095,0.06865
752.20223,0.06835
750.27351,0.06817
748.34478,0.06770
746.41606,0.06708
744.48733,0.06686
742.55861,0.06669
740.62989,0.06622
738.70116,0.06590
736.77244,0.06571
734.84372,0.06534
732.91499,0.06501
730.98627,0.06480
729.05755,0.06438
727.12882,0.06379
725.20010,0.06319
723.27137,0.06266
721.34265,0.06224
719.41393,0.06192
717.48520,0.06174
715.55648,0.06153
713.62776,0.06103
711.69903,0.06055
709.77031,0.06049
707.84159,0.06071
705.91286,0.06110
703.98414,0.06161
702.05541,0.06174
700.12669,0.06144
698.19797,0.06150
696.26924,0.06203
694.34052,0.06225
692.41180,0.06193
690.48307,0.06154
688.55435,0.06143
686.62562,0.06149
684.69690,0.06141
682.76818,0.06115
680.83945,0.06089
678.91073,0.06090
676.98201,0.06102
675.05328,0.06072
673.12456,0.05992
671.19584,0.05965
669.26711,0.06052
667.33839,0.06090
665.40966,0.06017
663.48094,0.05985
661.55222,0.05991
659.62349,0.05953
657.69477,0.05901
655.76605,0.05931
653.83732,0.06096
651.90860,0.06341
649.97988,0.06568
648.05115,0.06753
646.12243,0.06945
644.19370,0.07180
642.26498,0.07451
640.33626,0.07731
638.40753,0.08003
636.47881,0.08282
634.55009,0.08604
632.62136,0.08949
630.69264,0.09218
628.76391,0.09343
626.83519,0.09376
624.90647,0.09459
622.97774,0.09606
621.04902,0.09699
619.12030,0.09711
617.19157,0.09718
615.26285,0.09751
613.33413,0.09813
611.40540,0.09905
609.47668,0.10005
607.54795,0.10139
605.61923,0.10357
603.69051,0.10631
601.76178,0.10882
599.83306,0.11077
597.90434,0.11240
595.97561,0.11426
594.04689,0.11654
592.11817,0.11876
590.18944,0.12060
588.26072,0.12221
586.33199,0.12333
584.40327,0.12354
582.47455,0.12326
580.54582,0.12324
578.61710,0.12360
576.68838,0.12395
574.75965,0.12374
572.83093,0.12263
570.90220,0.12104
568.97348,0.11983
567.04476,0.11903
565.11603,0.11812
563.18731,0.11723
561.25859,0.11654
559.32986,0.11572
557.40114,0.11509
555.47242,0.11520
553.54369,0.11534
551.61497,0.11510
549.68624,0.11590
547.75752,0.11827
545.82880,0.12044
543.90007,0.12134
541.97135,0.12141
540.04263,0.12090
538.11390,0.11937
536.18518,0.11674
534.25646,0.11413
532.32773,0.11228
530.39901,0.11047
528.47028,0.10821
526.54156,0.10598
524.61284,0.10408
522.68411,0.10237
520.75539,0.10143
518.82667,0.10169
516.89794,0.10249
514.96922,0.10340
513.04049,0.10438
511.11177,0.10546
509.18305,0.10671
507.25432,0.10820
505.32560,0.11101
503.39688,0.11588
501.46815,0.12079
499.53943,0.12357
497.61071,0.12508
495.68198,0.12759
493.75326,0.13258
491.82453,0.13980
489.89581,0.14735
487.96709,0.15385
486.03836,0.16048
484.10964,0.16866
482.18092,0.17697
480.25219,0.18406
478.32347,0.19062
476.39475,0.19568
474.46602,0.19768
472.53730,0.19920
470.60857,0.20385
468.67985,0.20962
466.75113,0.21231
464.82240,0.21126
462.89368,0.20866
460.96496,0.20665
459.03623,0.20546
457.10751,0.20369
455.17878,0.20087
453.25006,0.19692
451.32134,0.19096
449.39261,0.18313
447.46389,0.17625
445.53517,0.17303
443.60644,0.17153
441.67772,0.16858
439.74900,0.16560
437.82027,0.16505
435.89155,0.16600
433.96282,0.16566
432.03410,0.16211
430.10538,0.15608
428.17665,0.15011
426.24793,0.14602
424.31921,0.14437
422.39048,0.14334
420.46176,0.13867
418.53304,0.12893
416.60431,0.11917
414.67559,0.11243
412.74686,0.10688
410.81814,0.10193
408.88942,0.09839
406.96069,0.09623
405.03197,0.09523
403.10325,0.09428
401.17452,0.09090
399.24580,0.08429
397.31708,0.07632
395.38835,0.06976
393.45963,0.06788
391.53090,0.06892
389.60218,0.06387
387.67346,0.05315
385.74473,0.05019
383.81601,0.05916
381.88729,0.06813
379.95856,0.07151
378.02984,0.07658
376.10111,0.08260
374.17239,0.07048
372.24367,0.04001
370.31494,0.01399
368.38622,0.00000
