3996.31543,0.00023
3994.38671,0.00011
3992.45799,0.00000
3990.52926,0.00008
3988.60054,0.00038
3986.67182,0.00070
3984.74309,0.00082
3982.81437,0.00072
3980.88564,0.00065
3978.95692,0.00071
3977.02820,0.00075
3975.09947,0.00068
3973.17075,0.00065
3971.24203,0.00076
3969.31330,0.00085
3967.38458,0.00081
3965.45586,0.00073
3963.52713,0.00067
3961.59841,0.00060
3959.66968,0.00066
3957.74096,0.00088
3955.81224,0.00105
3953.88351,0.00109
3951.95479,0.00105
3950.02607,0.00088
3948.09734,0.00065
3946.16862,0.00067
3944.23990,0.00086
3942.31117,0.00084
3940.38245,0.00068
3938.45372,0.00073
3936.52500,0.00105
3934.59628,0.00140
3932.66755,0.00144
3930.73883,0.00126
3928.81011,0.00123
3926.88138,0.00132
3924.95266,0.00122
3923.02393,0.00107
3921.09521,0.00112
3919.16649,0.00112
3917.23776,0.00081
3915.30904,0.00051
3913.38032,0.00052
3911.45159,0.00078
3909.52287,0.00124
3907.59415,0.00187
3905.66542,0.00225
3903.73670,0.00194
3901.80797,0.00116
3899.87925,0.00036
3897.95053,0.00006
3896.02180,0.00054
3894.09308,0.00118
3892.16436,0.00113
3890.23563,0.00081
3888.30691,0.00105
3886.37819,0.00133
3884.44946,0.00112
3882.52074,0.00078
3880.59201,0.00032
3878.66329,0.00000
3876.73457,0.00028
3874.80584,0.00080
3872.87712,0.00115
3870.94840,0.00124
3869.01967,0.00109
3867.09095,0.00113
3865.16222,0.00118
3863.23350,0.00076
3861.30478,0.00043
3859.37605,0.00092
3857.44733,0.00207
3855.51861,0.00277
3853.58988,0.00173
3851.66116,-0.00007
3849.73244,-0.00051
3847.80371,0.00021
3845.87499,0.00103
3843.94626,0.00149
3842.01754,0.00163
3840.08882,0.00141
3838.16009,0.00062
3836.23137,-0.00016
3834.30265,-0.00026
3832.37392,-0.00005
3830.44520,0.00017
3828.51648,0.00051
3826.58775,0.00099
3824.65903,0.00169
3822.73030,0.00212
3820.80158,0.00159
3818.87286,0.00087
3816.94413,0.00058
3815.01541,0.00019
3813.08669,0.00014
3811.15796,0.00079
3809.22924,0.00149
3807.30052,0.00164
3805.37179,0.00168
3803.44307,0.00190
3801.51434,0.00163
3799.58562,0.00106
3797.65690,0.00088
3795.72817,0.00081
3793.79945,0.00087
3791.87073,0.00126
3789.94200,0.00179
3788.01328,0.00218
3786.08455,0.00233
3784.15583,0.00240
3782.22711,0.00259
3780.29838,0.00264
3778.36966,0.00239
3776.44094,0.00239
3774.51221,0.00290
3772.58349,0.00349
3770.65477,0.00375
3768.72604,0.00376
3766.79732,0.00384
3764.86859,0.00408
3762.93987,0.00466
3761.01115,0.00535
3759.08242,0.00563
3757.15370,0.00586
3755.22498,0.00673
3753.29625,0.00777
3751.36753,0.00796
3749.43881,0.00774
3747.51008,0.00834
3745.58136,0.00901
3743.65263,0.00893
3741.72391,0.00928
3739.79519,0.01072
3737.86646,0.01232
3735.93774,0.01303
3734.00902,0.01292
3732.08029,0.01314
3730.15157,0.01433
3728.22284,0.01610
3726.29412,0.01777
3724.36540,0.01905
3722.43667,0.02017
3720.50795,0.02142
3718.57923,0.02307
3716.65050,0.02525
3714.72178,0.02775
3712.79306,0.02997
3710.86433,0.03165
3708.93561,0.03348
3707.00688,0.03598
3705.07816,0.03894
3703.14944,0.04197
3701.22071,0.04480
3699.29199,0.04749
3697.36327,0.05027
3695.43454,0.05329
3693.50582,0.05656
3691.57710,0.05979
3689.64837,0.06252
3687.71965,0.06497
3685.79092,0.06796
3683.86220,0.07164
3681.93348,0.07560
3680.00475,0.07958
3678.07603,0.08350
3676.14731,0.08711
3674.21858,0.09042
3672.28986,0.09385
3670.36113,0.09746
3668.43241,0.10100
3666.50369,0.10453
3664.57496,0.10814
3662.64624,0.11164
3660.71752,0.11498
3658.78879,0.11818
3656.86007,0.12120
3654.93135,0.12417
3653.00262,0.12740
3651.07390,0.13051
3649.14517,0.13255
3647.21645,0.13399
3645.28773,0.13609
3643.35900,0.13881
3641.43028,0.14151
3639.50156,0.14398
3637.57283,0.14633
3635.64411,0.14869
3633.71539,0.15125
3631.78666,0.15388
3629.85794,0.15576
3627.92921,0.15663
3626.00049,0.15790
3624.07177,0.16020
3622.14304,0.16269
3620.21432,0.16440
3618.28560,0.16531
3616.35687,0.16639
3614.42815,0.16795
3612.49942,0.16957
3610.57070,0.17103
3608.64198,0.17221
3606.71325,0.17329
3604.78453,0.17480
3602.85581,0.17670
3600.92708,0.17840
3598.99836,0.17976
3597.06964,0.18101
3595.14091,0.18213
3593.21219,0.18338
3591.28346,0.18504
3589.35474,0.18660
3587.42602,0.18749
3585.49729,0.18828
3583.56857,0.18966
3581.63985,0.19126
3579.71112,0.19256
3577.78240,0.19354
3575.85368,0.19447
3573.92495,0.19564
3571.99623,0.19720
3570.06750,0.19882
3568.13878,0.19975
3566.21006,0.19995
3564.28133,0.20042
3562.35261,0.20157
3560.42389,0.20289
3558.49516,0.20407
3556.56644,0.20518
3554.63771,0.20627
3552.70899,0.20721
3550.78027,0.20810
3548.85154,0.20908
3546.92282,0.20989
3544.99410,0.21043
3543.06537,0.21122
3541.13665,0.21242
3539.20793,0.21362
3537.27920,0.21454
3535.35048,0.21541
3533.42175,0.21646
3531.49303,0.21748
3529.56431,0.21821
3527.63558,0.21870
3525.70686,0.21926
3523.77814,0.21996
3521.84941,0.22074
3519.92069,0.22157
3517.99197,0.22247
3516.06324,0.22335
3514.13452,0.22413
3512.20579,0.22484
3510.27707,0.22553
3508.34835,0.22621
3506.41962,0.22699
3504.49090,0.22781
3502.56218,0.22848
3500.63345,0.22907
3498.70473,0.22981
3496.77600,0.23057
3494.84728,0.23120
3492.91856,0.23176
3490.98983,0.23225
3489.06111,0.23262
3487.13239,0.23307
3485.20366,0.23380
3483.27494,0.23454
3481.34622,0.23506
3479.41749,0.23549
3477.48877,0.23601
3475.56004,0.23663
3473.63132,0.23724
3471.70260,0.23777
3469.77387,0.23823
3467.84515,0.23862
3465.91643,0.23883
3463.98770,0.23900
3462.05898,0.23939
3460.13026,0.24001
3458.20153,0.24051
3456.27281,0.24075
3454.34408,0.24100
3452.41536,0.24148
3450.48664,0.24203
3448.55791,0.24240
3446.62919,0.24263
3444.70047,0.24287
3442.77174,0.24305
3440.84302,0.24332
3438.91429,0.24388
3436.98557,0.24447
3435.05685,0.24470
3433.12812,0.24476
3431.19940,0.24498
3429.27068,0.24518
3427.34195,0.24521
3425.41323,0.24534
3423.48451,0.24567
3421.55578,0.24594
3419.62706,0.24606
3417.69833,0.24620
3415.76961,0.24632
3413.84089,0.24633
3411.91216,0.24639
3409.98344,0.24660
3408.05472,0.24686
3406.12599,0.24699
3404.19727,0.24689
3402.26855,0.24669
3400.33982,0.24661
3398.41110,0.24665
3396.48237,0.24672
3394.55365,0.24671
3392.62493,0.24655
3390.69620,0.24646
3388.76748,0.24656
3386.83876,0.24667
3384.91003,0.24662
3382.98131,0.24649
3381.05259,0.24641
3379.12386,0.24635
3377.19514,0.24617
3375.26641,0.24596
3373.33769,0.24587
3371.40897,0.24583
3369.48024,0.24570
3367.55152,0.24548
3365.62280,0.24526
3363.69407,0.24513
3361.76535,0.24504
3359.83662,0.24487
3357.90790,0.24459
3355.97918,0.24435
3354.05045,0.24414
3352.12173,0.24386
3350.19301,0.24355
3348.26428,0.24330
3346.33556,0.24298
3344.40684,0.24260
3342.47811,0.24241
3340.54939,0.24235
3338.62066,0.24222
3336.69194,0.24207
3334.76322,0.24201
3332.83449,0.24185
3330.90577,0.24145
3328.97705,0.24101
3327.04832,0.24066
3325.11960,0.24031
3323.19088,0.23997
3321.26215,0.23970
3319.33343,0.23949
3317.40470,0.23929
3315.47598,0.23907
3313.54726,0.23886
3311.61853,0.23866
3309.68981,0.23840
3307.76109,0.23797
3305.83236,0.23746
3303.90364,0.23703
3301.97491,0.23676
3300.04619,0.23659
3298.11747,0.23642
3296.18874,0.23622
3294.26002,0.23600
3292.33130,0.23565
3290.40257,0.23518
3288.47385,0.23482
3286.54513,0.23461
3284.61640,0.23438
3282.68768,0.23410
3280.75895,0.23387
3278.83023,0.23366
3276.90151,0.23328
3274.97278,0.23281
3273.04406,0.23237
3271.11534,0.23203
3269.18661,0.23168
3267.25789,0.23114
3265.32917,0.23062
3263.40044,0.23036
3261.47172,0.23020
3259.54299,0.22988
3257.61427,0.22940
3255.68555,0.22891
3253.75682,0.22850
3251.82810,0.22824
3249.89938,0.22805
3247.97065,0.22778
3246.04193,0.22727
3244.11320,0.22658
3242.18448,0.22596
3240.25576,0.22552
3238.32703,0.22514
3236.39831,0.22471
3234.46959,0.22423
3232.54086,0.22377
3230.61214,0.22338
3228.68342,0.22293
3226.75469,0.22239
3224.82597,0.22188
3222.89724,0.22138
3220.96852,0.22086
3219.03980,0.22037
3217.11107,0.21989
3215.18235,0.21932
3213.25363,0.21872
3211.32490,0.21810
3209.39618,0.21743
3207.46746,0.21682
3205.53873,0.21638
3203.61001,0.21591
3201.68128,0.21531
3199.75256,0.21459
3197.82384,0.21377
3195.89511,0.21300
3193.96639,0.21236
3192.03767,0.21174
3190.10894,0.21102
3188.18022,0.21034
3186.25149,0.20972
3184.32277,0.20897
3182.39405,0.20809
3180.46532,0.20729
3178.53660,0.20658
3176.60788,0.20595
3174.67915,0.20543
3172.75043,0.20485
3170.82171,0.20409
3168.89298,0.20320
3166.96426,0.20234
3165.03553,0.20157
3163.10681,0.20081
3161.17809,0.20002
3159.24936,0.19929
3157.32064,0.19861
3155.39192,0.19787
3153.46319,0.19704
3151.53447,0.19619
3149.60575,0.19532
3147.67702,0.19442
3145.74830,0.19357
3143.81957,0.19287
3141.89085,0.19225
3139.96213,0.19159
3138.03340,0.19085
3136.10468,0.19003
3134.17596,0.18917
3132.24723,0.18841
3130.31851,0.18770
3128.38978,0.18699
3126.46106,0.18627
3124.53234,0.18551
3122.60361,0.18463
3120.67489,0.18369
3118.74617,0.18280
3116.81744,0.18203
3114.88872,0.18135
3112.96000,0.18070
3111.03127,0.18004
3109.10255,0.17926
3107.17382,0.17831
3105.24510,0.17728
3103.31638,0.17629
3101.38765,0.17540
3099.45893,0.17458
3097.53021,0.17372
3095.60148,0.17272
3093.67276,0.17174
3091.74404,0.17091
3089.81531,0.17010
3087.88659,0.16917
3085.95786,0.16818
3084.02914,0.16724
3082.10042,0.16635
3080.17169,0.16537
3078.24297,0.16433
3076.31425,0.16338
3074.38552,0.16248
3072.45680,0.16145
3070.52807,0.16041
3068.59935,0.15951
3066.67063,0.15872
3064.74190,0.15788
3062.81318,0.15690
3060.88446,0.15585
3058.95573,0.15487
3057.02701,0.15397
3055.09829,0.15313
3053.16956,0.15228
3051.24084,0.15129
3049.31211,0.15024
3047.38339,0.14930
3045.45467,0.14847
3043.52594,0.14770
3041.59722,0.14698
3039.66850,0.14619
3037.73977,0.14532
3035.81105,0.14455
3033.88233,0.14390
3031.95360,0.14323
3030.02488,0.14253
3028.09615,0.14187
3026.16743,0.14119
3024.23871,0.14046
3022.30998,0.13981
3020.38126,0.13935
3018.45254,0.13894
3016.52381,0.13853
3014.59509,0.13811
3012.66636,0.13754
3010.73764,0.13669
3008.80892,0.13578
3006.88019,0.13502
3004.95147,0.13438
3003.02275,0.13382
3001.09402,0.13339
2999.16530,0.13307
2997.23658,0.13265
2995.30785,0.13199
2993.37913,0.13129
2991.45040,0.13079
2989.52168,0.13041
2987.59296,0.13018
2985.66423,0.13020
2983.73551,0.13015
2981.80679,0.12968
2979.87806,0.12903
2977.94934,0.12865
2976.02062,0.12859
2974.09189,0.12858
2972.16317,0.12848
2970.23444,0.12835
2968.30572,0.12826
2966.37700,0.12824
2964.44827,0.12834
2962.51955,0.12838
2960.59083,0.12815
2958.66210,0.12776
2956.73338,0.12738
2954.80466,0.12705
2952.87593,0.12663
2950.94721,0.12612
2949.01848,0.12566
2947.08976,0.12540
2945.16104,0.12545
2943.23231,0.12581
2941.30359,0.12633
2939.37487,0.12694
2937.44614,0.12776
2935.51742,0.12864
2933.58869,0.12938
2931.65997,0.13003
2929.73125,0.13064
2927.80252,0.13106
2925.87380,0.13110
2923.94508,0.13061
2922.01635,0.12954
2920.08763,0.12800
2918.15891,0.12613
2916.23018,0.12389
2914.30146,0.12134
2912.37273,0.11880
2910.44401,0.11653
2908.51529,0.11456
2906.58656,0.11284
2904.65784,0.11127
2902.72912,0.10977
2900.80039,0.10827
2898.87167,0.10682
2896.94295,0.10547
2895.01422,0.10415
2893.08550,0.10281
2891.15677,0.10149
2889.22805,0.10031
2887.29933,0.09929
2885.37060,0.09837
2883.44188,0.09753
2881.51316,0.09681
2879.58443,0.09625
2877.65571,0.09582
2875.72698,0.09537
2873.79826,0.09483
2871.86954,0.09424
2869.94081,0.09360
2868.01209,0.09296
2866.08337,0.09244
2864.15464,0.09227
2862.22592,0.09252
2860.29720,0.09302
2858.36847,0.09362
2856.43975,0.09425
2854.51102,0.09461
2852.58230,0.09426
2850.65358,0.09288
2848.72485,0.09049
2846.79613,0.08750
2844.86741,0.08443
2842.93868,0.08178
2841.00996,0.07964
2839.08124,0.07781
2837.15251,0.07615
2835.22379,0.07470
2833.29506,0.07342
2831.36634,0.07225
2829.43762,0.07118
2827.50889,0.07018
2825.58017,0.06931
2823.65145,0.06856
2821.72272,0.06785
2819.79400,0.06708
2817.86527,0.06627
2815.93655,0.06549
2814.00783,0.06472
2812.07910,0.06395
2810.15038,0.06320
2808.22166,0.06250
2806.29293,0.06186
2804.36421,0.06127
2802.43549,0.06072
2800.50676,0.06017
2798.57804,0.05955
2796.64931,0.05887
2794.72059,0.05814
2792.79187,0.05743
2790.86314,0.05683
2788.93442,0.05632
2787.00570,0.05577
2785.07697,0.05520
2783.14825,0.05468
2781.21953,0.05414
2779.29080,0.05357
2777.36208,0.05306
2775.43335,0.05253
2773.50463,0.05193
2771.57591,0.05134
2769.64718,0.05078
2767.71846,0.05023
2765.78974,0.04969
2763.86101,0.04915
2761.93229,0.04864
2760.00356,0.04819
2758.07484,0.04777
2756.14612,0.04732
2754.21739,0.04683
2752.28867,0.04634
2750.35995,0.04588
2748.43122,0.04547
2746.50250,0.04500
2744.57378,0.04439
2742.64505,0.04377
2740.71633,0.04330
2738.78760,0.04291
2736.85888,0.04252
2734.93016,0.04210
2733.00143,0.04167
2731.07271,0.04125
2729.14399,0.04088
2727.21526,0.04050
2725.28654,0.04000
2723.35782,0.03942
2721.42909,0.03893
2719.50037,0.03853
2717.57164,0.03809
2715.64292,0.03758
2713.71420,0.03707
2711.78547,0.03663
2709.85675,0.03620
2707.92803,0.03575
2705.99930,0.03538
2704.07058,0.03507
2702.14185,0.03472
2700.21313,0.03424
2698.28441,0.03372
2696.35568,0.03326
2694.42696,0.03292
2692.49824,0.03258
2690.56951,0.03216
2688.64079,0.03171
2686.71207,0.03132
2684.78334,0.03098
2682.85462,0.03063
2680.92589,0.03028
2678.99717,0.02997
2677.06845,0.02966
2675.13972,0.02930
2673.21100,0.02891
2671.28228,0.02851
2669.35355,0.02811
2667.42483,0.02770
2665.49611,0.02734
2663.56738,0.02699
2661.63866,0.02660
2659.70993,0.02619
2657.78121,0.02583
2655.85249,0.02551
2653.92376,0.02520
2651.99504,0.02486
2650.06632,0.02448
2648.13759,0.02410
2646.20887,0.02376
2644.28014,0.02347
2642.35142,0.02322
2640.42270,0.02298
2638.49397,0.02266
2636.56525,0.02227
2634.63653,0.02189
2632.70780,0.02156
2630.77908,0.02127
2628.85036,0.02101
2626.92163,0.02073
2624.99291,0.02038
2623.06418,0.02005
2621.13546,0.01980
2619.20674,0.01959
2617.27801,0.01930
2615.34929,0.01894
2613.42057,0.01863
2611.49184,0.01839
2609.56312,0.01815
2607.63440,0.01786
2605.70567,0.01755
2603.77695,0.01724
2601.84822,0.01694
2599.91950,0.01667
2597.99078,0.01644
2596.06205,0.01625
2594.13333,0.01603
2592.20461,0.01575
2590.27588,0.01548
2588.34716,0.01527
2586.41843,0.01505
2584.48971,0.01480
2582.56099,0.01452
2580.63226,0.01426
2578.70354,0.01406
2576.77482,0.01390
2574.84609,0.01371
2572.91737,0.01346
2570.98865,0.01319
2569.05992,0.01297
2567.13120,0.01285
2565.20247,0.01273
2563.27375,0.01257
2561.34503,0.01239
2559.41630,0.01216
2557.48758,0.01191
2555.55886,0.01170
2553.63013,0.01148
2551.70141,0.01124
2549.77269,0.01105
2547.84396,0.01095
2545.91524,0.01090
2543.98651,0.01083
2542.05779,0.01069
2540.12907,0.01042
2538.20034,0.01010
2536.27162,0.00987
2534.34290,0.00974
2532.41417,0.00963
2530.48545,0.00955
2528.55673,0.00947
2526.62800,0.00936
2524.69928,0.00922
2522.77055,0.00906
2520.84183,0.00884
2518.91311,0.00861
2516.98438,0.00846
2515.05566,0.00835
2513.12694,0.00820
2511.19821,0.00805
2509.26949,0.00790
2507.34076,0.00771
2505.41204,0.00753
2503.48332,0.00741
2501.55459,0.00732
2499.62587,0.00722
2497.69715,0.00713
2495.76842,0.00701
2493.83970,0.00684
2491.91098,0.00671
2489.98225,0.00658
2488.05353,0.00642
2486.12480,0.00629
2484.19608,0.00619
2482.26736,0.00610
2480.33863,0.00599
2478.40991,0.00581
2476.48119,0.00562
2474.55246,0.00546
2472.62374,0.00536
2470.69502,0.00530
2468.76629,0.00521
2466.83757,0.00506
2464.90884,0.00493
2462.98012,0.00480
2461.05140,0.00465
2459.12267,0.00451
2457.19395,0.00441
2455.26523,0.00430
2453.33650,0.00415
2451.40778,0.00400
2449.47905,0.00385
2447.55033,0.00368
2445.62161,0.00354
2443.69288,0.00345
2441.76416,0.00335
2439.83544,0.00325
2437.90671,0.00320
2435.97799,0.00313
2434.04927,0.00304
2432.12054,0.00297
2430.19182,0.00290
2428.26309,0.00278
2426.33437,0.00265
2424.40565,0.00256
2422.47692,0.00252
2420.54820,0.00253
2418.61948,0.00249
2416.69075,0.00231
2414.76203,0.00213
2412.83331,0.00202
2410.90458,0.00197
2408.97586,0.00191
2407.04713,0.00185
2405.11841,0.00178
2403.18969,0.00165
2401.26096,0.00152
2399.33224,0.00144
2397.40352,0.00140
2395.47479,0.00139
2393.54607,0.00139
2391.61734,0.00134
2389.68862,0.00125
2387.75990,0.00119
2385.83117,0.00123
2383.90245,0.00135
2381.97373,0.00146
2380.04500,0.00153
2378.11628,0.00159
2376.18756,0.00168
2374.25883,0.00178
2372.33011,0.00185
2370.40138,0.00184
2368.47266,0.00182
2366.54394,0.00185
2364.61521,0.00180
2362.68649,0.00162
2360.75777,0.00148
2358.82904,0.00132
2356.90032,0.00104
2354.97160,0.00074
2353.04287,0.00072
2351.11415,0.00121
2349.18542,0.00175
2347.25670,0.00165
2345.32798,0.00112
2343.39925,0.00084
2341.47053,0.00091
2339.54181,0.00109
2337.61308,0.00120
2335.68436,0.00112
2333.75563,0.00090
2331.82691,0.00068
2329.89819,0.00052
2327.96946,0.00046
2326.04074,0.00041
2324.11202,0.00031
2322.18329,0.00018
2320.25457,0.00013
2318.32585,0.00016
2316.39712,0.00016
2314.46840,0.00007
2312.53967,0.00000
2310.61095,0.00002
2308.68223,0.00004
2306.75350,0.00002
2304.82478,-0.00001
2302.89606,-0.00001
2300.96733,-0.00006
2299.03861,-0.00013
2297.10989,-0.00018
2295.18116,-0.00016
2293.25244,-0.00012
2291.32371,-0.00006
2289.39499,-0.00002
2287.46627,0.00003
2285.53754,0.00007
2283.60882,0.00009
2281.68010,0.00008
2279.75137,0.00009
2277.82265,0.00015
2275.89392,0.00022
2273.96520,0.00025
2272.03648,0.00025
2270.10775,0.00023
2268.17903,0.00014
2266.25031,0.00003
2264.32158,-0.00002
2262.39286,0.00000
2260.46414,0.00001
2258.53541,0.00002
2256.60669,0.00008
2254.67796,0.00014
2252.74924,0.00013
2250.82052,0.00010
2248.89179,0.00004
2246.96307,-0.00007
2245.03435,-0.00020
2243.10562,-0.00026
2241.17690,-0.00025
2239.24818,-0.00024
2237.31945,-0.00027
2235.39073,-0.00030
2233.46200,-0.00031
2231.53328,-0.00026
2229.60456,-0.00017
2227.67583,-0.00014
2225.74711,-0.00017
2223.81839,-0.00024
2221.88966,-0.00031
2219.96094,-0.00033
2218.03221,-0.00029
2216.10349,-0.00023
2214.17477,-0.00023
2212.24604,-0.00031
2210.31732,-0.00033
2208.38860,-0.00020
2206.45987,0.00000
2204.53115,0.00009
2202.60243,0.00010
2200.67370,0.00006
2198.74498,0.00003
2196.81625,0.00003
2194.88753,0.00007
2192.95881,0.00009
2191.03008,0.00008
2189.10136,0.00004
2187.17264,0.00002
2185.24391,0.00006
2183.31519,0.00009
2181.38647,0.00005
2179.45774,0.00002
2177.52902,0.00002
2175.60029,0.00004
2173.67157,0.00009
2171.74285,0.00015
2169.81412,0.00021
2167.88540,0.00026
2165.95668,0.00028
2164.02795,0.00024
2162.09923,0.00018
2160.17050,0.00011
2158.24178,0.00009
2156.31306,0.00012
2154.38433,0.00019
2152.45561,0.00026
2150.52689,0.00028
2148.59816,0.00025
2146.66944,0.00023
2144.74072,0.00027
2142.81199,0.00034
2140.88327,0.00043
2138.95454,0.00048
2137.02582,0.00046
2135.09710,0.00044
2133.16837,0.00047
2131.23965,0.00048
2129.31093,0.00043
2127.38220,0.00039
2125.45348,0.00035
2123.52476,0.00028
2121.59603,0.00024
2119.66731,0.00021
2117.73858,0.00019
2115.80986,0.00023
2113.88114,0.00022
2111.95241,0.00013
2110.02369,0.00003
2108.09497,0.00002
2106.16624,0.00005
2104.23752,0.00008
2102.30880,0.00007
2100.38007,0.00006
2098.45135,0.00002
2096.52262,-0.00002
2094.59390,0.00000
2092.66518,-0.00001
2090.73645,-0.00009
2088.80773,-0.00022
2086.87901,-0.00029
2084.95028,-0.00028
2083.02156,-0.00029
2081.09283,-0.00033
2079.16411,-0.00034
2077.23539,-0.00032
2075.30666,-0.00032
2073.37794,-0.00033
2071.44922,-0.00036
2069.52049,-0.00040
2067.59177,-0.00047
2065.66305,-0.00050
2063.73432,-0.00045
2061.80560,-0.00032
2059.87687,-0.00021
2057.94815,-0.00013
2056.01943,-0.00005
2054.09070,0.00002
2052.16198,0.00008
2050.23326,0.00015
2048.30453,0.00022
2046.37581,0.00030
2044.44709,0.00042
2042.51836,0.00059
2040.58964,0.00074
2038.66091,0.00091
2036.73219,0.00115
2034.80347,0.00137
2032.87474,0.00151
2030.94602,0.00162
2029.01730,0.00175
2027.08857,0.00188
2025.15985,0.00199
2023.23112,0.00212
2021.30240,0.00226
2019.37368,0.00238
2017.44495,0.00244
2015.51623,0.00249
2013.58751,0.00258
2011.65878,0.00268
2009.73006,0.00274
2007.80134,0.00277
2005.87261,0.00274
2003.94389,0.00272
2002.01516,0.00276
2000.08644,0.00285
1998.15772,0.00289
1996.22899,0.00290
1994.30027,0.00296
1992.37155,0.00298
1990.44282,0.00290
1988.51410,0.00278
1986.58538,0.00270
1984.65665,0.00265
1982.72793,0.00258
1980.79920,0.00250
1978.87048,0.00243
1976.94176,0.00236
1975.01303,0.00224
1973.08431,0.00211
1971.15559,0.00205
1969.22686,0.00199
1967.29814,0.00183
1965.36941,0.00166
1963.44069,0.00159
1961.51197,0.00151
1959.58324,0.00135
1957.65452,0.00123
1955.72580,0.00117
1953.79707,0.00114
1951.86835,0.00107
1949.93963,0.00095
1948.01090,0.00081
1946.08218,0.00072
1944.15345,0.00060
1942.22473,0.00039
1940.29601,0.00021
1938.36728,0.00016
1936.43856,0.00011
1934.50984,0.00006
1932.58111,0.00004
1930.65239,0.00004
1928.72367,0.00007
1926.79494,0.00012
1924.86622,0.00018
1922.93749,0.00019
1921.00877,0.00023
1919.08005,0.00030
1917.15132,0.00038
1915.22260,0.00058
1913.29388,0.00097
1911.36515,0.00142
1909.43643,0.00178
1907.50770,0.00206
1905.57898,0.00235
1903.65026,0.00270
1901.72153,0.00311
1899.79281,0.00355
1897.86409,0.00401
1895.93536,0.00446
1894.00664,0.00491
1892.07792,0.00532
1890.14919,0.00558
1888.22047,0.00574
1886.29174,0.00597
1884.36302,0.00624
1882.43430,0.00647
1880.50557,0.00667
1878.57685,0.00683
1876.64813,0.00693
1874.71940,0.00701
1872.79068,0.00717
1870.86196,0.00727
1868.93323,0.00700
1867.00451,0.00649
1865.07578,0.00613
1863.14706,0.00593
1861.21834,0.00571
1859.28961,0.00542
1857.36089,0.00506
1855.43217,0.00466
1853.50344,0.00425
1851.57472,0.00390
1849.64599,0.00367
1847.71727,0.00352
1845.78855,0.00319
1843.85982,0.00254
1841.93110,0.00197
1840.00238,0.00175
1838.07365,0.00161
1836.14493,0.00139
1834.21621,0.00129
1832.28748,0.00126
1830.35876,0.00098
1828.43003,0.00051
1826.50131,0.00018
1824.57259,0.00000
1822.64386,-0.00011
1820.71514,-0.00011
1818.78642,-0.00009
1816.85769,-0.00008
1814.92897,0.00000
1813.00025,-0.00002
1811.07152,-0.00019
1809.14280,-0.00041
1807.21407,-0.00040
1805.28535,-0.00017
1803.35663,0.00006
1801.42790,0.00011
1799.49918,0.00011
1797.57046,0.00039
1795.64173,0.00091
1793.71301,0.00122
1791.78428,0.00113
1789.85556,0.00113
1787.92684,0.00155
1785.99811,0.00218
1784.06939,0.00279
1782.14067,0.00330
1780.21194,0.00377
1778.28322,0.00433
1776.35450,0.00508
1774.42577,0.00582
1772.49705,0.00625
1770.56832,0.00643
1768.63960,0.00672
1766.71088,0.00724
1764.78215,0.00793
1762.85343,0.00858
1760.92471,0.00914
1758.99598,0.00976
1757.06726,0.01047
1755.13854,0.01124
1753.20981,0.01210
1751.28109,0.01293
1749.35236,0.01363
1747.42364,0.01439
1745.49492,0.01535
1743.56619,0.01644
1741.63747,0.01757
1739.70875,0.01877
1737.78002,0.02014
1735.85130,0.02158
1733.92257,0.02282
1731.99385,0.02388
1730.06513,0.02507
1728.13640,0.02639
1726.20768,0.02778
1724.27896,0.02927
1722.35023,0.03087
1720.42151,0.03251
1718.49279,0.03394
1716.56406,0.03502
1714.63534,0.03610
1712.70661,0.03758
1710.77789,0.03939
1708.84917,0.04134
1706.92044,0.04332
1704.99172,0.04533
1703.06300,0.04746
1701.13427,0.04986
1699.20555,0.05241
1697.27683,0.05493
1695.34810,0.05755
1693.41938,0.06029
1691.49065,0.06307
1689.56193,0.06594
1687.63321,0.06881
1685.70448,0.07177
1683.77576,0.07484
1681.84704,0.07777
1679.91831,0.08059
1677.98959,0.08344
1676.06087,0.08635
1674.13214,0.08926
1672.20342,0.09205
1670.27469,0.09471
1668.34597,0.09717
1666.41725,0.09942
1664.48852,0.10165
1662.55980,0.10390
1660.63108,0.10605
1658.70235,0.10814
1656.77363,0.11016
1654.84490,0.11175
1652.91618,0.11266
1650.98746,0.11356
1649.05873,0.11479
1647.13001,0.11580
1645.20129,0.11645
1643.27256,0.11721
1641.34384,0.11819
1639.41512,0.11909
1637.48639,0.11941
1635.55767,0.11892
1633.62894,0.11838
1631.70022,0.11832
1629.77150,0.11824
1627.84277,0.11768
1625.91405,0.11670
1623.98533,0.11525
1622.05660,0.11352
1620.12788,0.11199
1618.19916,0.11009
1616.27043,0.10716
1614.34171,0.10431
1612.41298,0.10226
1610.48426,0.10029
1608.55554,0.09792
1606.62681,0.09546
1604.69809,0.09313
1602.76937,0.09088
1600.84064,0.08871
1598.91192,0.08672
1596.98319,0.08485
1595.05447,0.08295
1593.12575,0.08105
1591.19702,0.07925
1589.26830,0.07756
1587.33958,0.07593
1585.41085,0.07430
1583.48213,0.07275
1581.55341,0.07150
1579.62468,0.07056
1577.69596,0.06933
1575.76723,0.06751
1573.83851,0.06613
1571.90979,0.06545
1569.98106,0.06455
1568.05234,0.06331
1566.12362,0.06242
1564.19489,0.06208
1562.26617,0.06207
1560.33745,0.06143
1558.40872,0.05938
1556.48000,0.05762
1554.55127,0.05705
1552.62255,0.05674
1550.69383,0.05616
1548.76510,0.05546
1546.83638,0.05497
1544.90766,0.05456
1542.97893,0.05362
1541.05021,0.05146
1539.12148,0.04875
1537.19276,0.04735
1535.26404,0.04665
1533.33531,0.04523
1531.40659,0.04344
1529.47787,0.04212
1527.54914,0.04088
1525.62042,0.03942
1523.69170,0.03784
1521.76297,0.03586
1519.83425,0.03366
1517.90552,0.03168
1515.97680,0.02984
1514.04808,0.02838
1512.11935,0.02752
1510.19063,0.02677
1508.26191,0.02493
1506.33318,0.02144
1504.40446,0.01861
1502.47574,0.01744
1500.54701,0.01662
1498.61829,0.01518
1496.68956,0.01331
1494.76084,0.01192
1492.83212,0.01128
1490.90339,0.01073
1488.97467,0.00988
1487.04595,0.00922
1485.11722,0.00914
1483.18850,0.00951
1481.25977,0.01018
1479.33105,0.01114
1477.40233,0.01244
1475.47360,0.01405
1473.54488,0.01594
1471.61616,0.01798
1469.68743,0.02004
1467.75871,0.02215
1465.82999,0.02405
1463.90126,0.02514
1461.97254,0.02549
1460.04381,0.02579
1458.11509,0.02604
1456.18637,0.02590
1454.25764,0.02578
1452.32892,0.02591
1450.40020,0.02606
1448.47147,0.02611
1446.54275,0.02623
1444.61403,0.02675
1442.68530,0.02775
1440.75658,0.02903
1438.82785,0.03021
1436.89913,0.03093
1434.97041,0.03135
1433.04168,0.03210
1431.11296,0.03343
1429.18424,0.03481
1427.25551,0.03547
1425.32679,0.03554
1423.39806,0.03572
1421.46934,0.03624
1419.54062,0.03666
1417.61189,0.03675
1415.68317,0.03688
1413.75445,0.03717
1411.82572,0.03751
1409.89700,0.03795
1407.96828,0.03849
1406.03955,0.03900
1404.11083,0.03940
1402.18210,0.03963
1400.25338,0.03936
1398.32466,0.03830
1396.39593,0.03662
1394.46721,0.03472
1392.53849,0.03304
1390.60976,0.03174
1388.68104,0.03054
1386.75232,0.02925
1384.82359,0.02808
1382.89487,0.02714
1380.96614,0.02630
1379.03742,0.02552
1377.10870,0.02468
1375.17997,0.02354
1373.25125,0.02218
1371.32253,0.02101
1369.39380,0.02006
1367.46508,0.01915
1365.53635,0.01825
1363.60763,0.01721
1361.67891,0.01600
1359.75018,0.01496
1357.82146,0.01420
1355.89274,0.01357
1353.96401,0.01295
1352.03529,0.01238
1350.10657,0.01189
1348.17784,0.01148
1346.24912,0.01113
1344.32039,0.01091
1342.39167,0.01081
1340.46295,0.01067
1338.53422,0.01039
1336.60550,0.01015
1334.67678,0.01015
1332.74805,0.01029
1330.81933,0.01047
1328.89061,0.01072
1326.96188,0.01116
1325.03316,0.01189
1323.10443,0.01306
1321.17571,0.01485
1319.24699,0.01744
1317.31826,0.02099
1315.38954,0.02554
1313.46082,0.03099
1311.53209,0.03700
1309.60337,0.04329
1307.67464,0.05080
1305.74592,0.06192
1303.81720,0.07733
1301.88847,0.09159
1299.95975,0.09790
1298.03103,0.09823
1296.10230,0.09890
1294.17358,0.10012
1292.24486,0.09854
1290.31613,0.09365
1288.38741,0.08681
1286.45868,0.07908
1284.52996,0.07130
1282.60124,0.06434
1280.67251,0.05880
1278.74379,0.05503
1276.81507,0.05308
1274.88634,0.05278
1272.95762,0.05381
1271.02890,0.05596
1269.10017,0.05913
1267.17145,0.06328
1265.24272,0.06839
1263.31400,0.07438
1261.38528,0.08119
1259.45655,0.08895
1257.52783,0.09768
1255.59911,0.10703
1253.67038,0.11659
1251.74166,0.12615
1249.81294,0.13557
1247.88421,0.14458
1245.95549,0.15296
1244.02676,0.16072
1242.09804,0.16792
1240.16932,0.17449
1238.24059,0.18050
1236.31187,0.18606
1234.38315,0.19126
1232.45442,0.19619
1230.52570,0.20090
1228.59697,0.20532
1226.66825,0.20951
1224.73953,0.21357
1222.81080,0.21757
1220.88208,0.22157
1218.95336,0.22560
1217.02463,0.22967
1215.09591,0.23375
1213.16719,0.23770
1211.23846,0.24149
1209.30974,0.24525
1207.38101,0.24937
1205.45229,0.25430
1203.52357,0.26035
1201.59484,0.26807
1199.66612,0.27868
1197.73740,0.29364
1195.80867,0.31253
1193.87995,0.33114
1191.95123,0.34298
1190.02250,0.34605
1188.09378,0.34646
1186.16505,0.34930
1184.23633,0.35107
1182.30761,0.34699
1180.37888,0.33853
1178.45016,0.32907
1176.52144,0.32020
1174.59271,0.31255
1172.66399,0.30613
1170.73526,0.30051
1168.80654,0.29531
1166.87782,0.29050
1164.94909,0.28644
1163.02037,0.28364
1161.09165,0.28208
1159.16292,0.28123
1157.23420,0.28092
1155.30548,0.28112
1153.37675,0.28164
1151.44803,0.28243
1149.51930,0.28356
1147.59058,0.28490
1145.66186,0.28623
1143.73313,0.28762
1141.80441,0.28910
1139.87569,0.29059
1137.94696,0.29201
1136.01824,0.29349
1134.08952,0.29542
1132.16079,0.29788
1130.23207,0.30055
1128.30334,0.30334
1126.37462,0.30654
1124.44590,0.31039
1122.51717,0.31524
1120.58845,0.32162
1118.65973,0.32926
1116.73100,0.33726
1114.80228,0.34492
1112.87355,0.35199
1110.94483,0.35836
1109.01611,0.36538
1107.08738,0.37498
1105.15866,0.38436
1103.22994,0.38894
1101.30121,0.39070
1099.37249,0.39353
1097.44377,0.39673
1095.51504,0.39831
1093.58632,0.39815
1091.65759,0.39719
1089.72887,0.39581
1087.80015,0.39352
1085.87142,0.39052
1083.94270,0.38802
1082.01398,0.38623
1080.08525,0.38416
1078.15653,0.38176
1076.22781,0.37951
1074.29908,0.37687
1072.37036,0.37355
1070.44163,0.36975
1068.51291,0.36540
1066.58419,0.36082
1064.65546,0.35635
1062.72674,0.35189
1060.79802,0.34718
1058.86929,0.34217
1056.94057,0.33701
1055.01184,0.33143
1053.08312,0.32510
1051.15440,0.31855
1049.22567,0.31228
1047.29695,0.30606
1045.36823,0.29978
1043.43950,0.29355
1041.51078,0.28716
1039.58206,0.28062
1037.65333,0.27418
1035.72461,0.26774
1033.79588,0.26126
1031.86716,0.25490
1029.93844,0.24867
1028.00971,0.24265
1026.08099,0.23704
1024.15227,0.23163
1022.22354,0.22629
1020.29482,0.22123
1018.36610,0.21646
1016.43737,0.21191
1014.50865,0.20778
1012.57992,0.20403
1010.65120,0.20045
1008.72248,0.19699
1006.79375,0.19350
1004.86503,0.19021
1002.93631,0.18736
1001.00758,0.18475
999.07886,0.18233
997.15013,0.18036
995.22141,0.17889
993.29269,0.17765
991.36396,0.17647
989.43524,0.17560
987.50652,0.17528
985.57779,0.17515
983.64907,0.17483
981.72035,0.17435
979.79162,0.17397
977.86290,0.17421
975.93417,0.17522
974.00545,0.17612
972.07673,0.17595
970.14800,0.17471
968.21928,0.17289
966.29056,0.17100
964.36183,0.16933
962.43311,0.16772
960.50439,0.16593
958.57566,0.16402
956.64694,0.16224
954.71821,0.16056
952.78949,0.15869
950.86077,0.15654
948.93204,0.15428
947.00332,0.15218
945.07460,0.15040
943.14587,0.14872
941.21715,0.14681
939.28842,0.14469
937.35970,0.14248
935.43098,0.14008
933.50225,0.13740
931.57353,0.13472
929.64481,0.13225
927.71608,0.12973
925.78736,0.12684
923.85864,0.12363
921.92991,0.12048
920.00119,0.11765
918.07246,0.11479
916.14374,0.11154
914.21502,0.10799
912.28629,0.10433
910.35757,0.10081
908.42885,0.09753
906.50012,0.09411
904.57140,0.09053
902.64268,0.08731
900.71395,0.08443
898.78523,0.08132
896.85650,0.07798
894.92778,0.07471
892.99906,0.07152
891.07033,0.06857
889.14161,0.06601
887.21289,0.06352
885.28416,0.06090
883.35544,0.05840
881.42671,0.05595
879.49799,0.05339
877.56927,0.05099
875.64054,0.04893
873.71182,0.04714
871.78310,0.04543
869.85437,0.04377
867.92565,0.04231
865.99693,0.04096
864.06820,0.03962
862.13948,0.03835
860.21075,0.03727
858.28203,0.03664
856.35331,0.03643
854.42458,0.03613
852.49586,0.03563
850.56714,0.03532
848.63841,0.03521
846.70969,0.03552
844.78097,0.03673
842.85224,0.03843
840.92352,0.03986
838.99479,0.04120
837.06607,0.04282
835.13735,0.04458
833.20862,0.04661
831.27990,0.04905
829.35118,0.05147
827.42245,0.05365
825.49373,0.05603
823.56501,0.05887
821.63628,0.06164
819.70756,0.06403
817.77883,0.06636
815.85011,0.06889
813.92139,0.07149
811.99266,0.07398
810.06394,0.07627
808.13522,0.07832
806.20649,0.08019
804.27777,0.08199
802.34904,0.08340
800.42032,0.08415
798.49160,0.08447
796.56287,0.08472
794.63415,0.08489
792.70543,0.08476
790.77670,0.08407
788.84798,0.08272
786.91926,0.08067
784.99053,0.07799
783.06181,0.07525
781.13308,0.07286
779.20436,0.07040
777.27564,0.06749
775.34691,0.06425
773.41819,0.06082
771.48947,0.05765
769.56074,0.05530
767.63202,0.05356
765.70330,0.05230
763.77457,0.05169
761.84585,0.05139
759.91712,0.05098
757.98840,0.05046
756.05968,0.04994
754.13095,0.04960
752.20223,0.04950
750.27351,0.04941
748.34478,0.04927
746.41606,0.04905
744.48733,0.04862
742.55861,0.04823
740.62989,0.04802
738.70116,0.04772
736.77244,0.04754
734.84372,0.04770
732.91499,0.04797
730.98627,0.04828
729.05755,0.04872
727.12882,0.04901
725.20010,0.04885
723.27137,0.04849
721.34265,0.04827
719.41393,0.04834
717.48520,0.04865
715.55648,0.04907
713.62776,0.04953
711.69903,0.04990
709.77031,0.05020
707.84159,0.05053
705.91286,0.05082
703.98414,0.05109
702.05541,0.05157
700.12669,0.05238
698.19797,0.05336
696.26924,0.05426
694.34052,0.05485
692.41180,0.05501
690.48307,0.05499
688.55435,0.05524
686.62562,0.05605
684.69690,0.05726
682.76818,0.05848
680.83945,0.05971
678.91073,0.06114
676.98201,0.06243
675.05328,0.06305
673.12456,0.06310
671.19584,0.06287
669.26711,0.06306
667.33839,0.06465
665.40966,0.06581
663.48094,0.06492
661.55222,0.06377
659.62349,0.06407
657.69477,0.06500
655.76605,0.06534
653.83732,0.06511
651.90860,0.06472
649.97988,0.06438
648.05115,0.06435
646.12243,0.06513
644.19370,0.06676
642.26498,0.06850
640.33626,0.06959
638.40753,0.07001
636.47881,0.07043
634.55009,0.07126
632.62136,0.07229
630.69264,0.07333
628.76391,0.07435
626.83519,0.07515
624.90647,0.07564
622.97774,0.07615
621.04902,0.07685
619.12030,0.07739
617.19157,0.07764
615.26285,0.07780
613.33413,0.07816
611.40540,0.07930
609.47668,0.08140
607.54795,0.08356
605.61923,0.08503
603.69051,0.08632
601.76178,0.08805
599.83306,0.08966
597.90434,0.09040
595.97561,0.09096
594.04689,0.09199
592.11817,0.09302
590.18944,0.09389
588.26072,0.09509
586.33199,0.09672
584.40327,0.09829
582.47455,0.09931
580.54582,0.09992
578.61710,0.10052
576.68838,0.10074
574.75965,0.10013
572.83093,0.09952
570.90220,0.10010
568.97348,0.10133
567.04476,0.10158
565.11603,0.10091
563.18731,0.10050
561.25859,0.10068
559.32986,0.10131
557.40114,0.10205
555.47242,0.10219
553.54369,0.10174
551.61497,0.10177
549.68624,0.10262
547.75752,0.10386
545.82880,0.10530
543.90007,0.10616
541.97135,0.10586
540.04263,0.10510
538.11390,0.10442
536.18518,0.10372
534.25646,0.10257
532.32773,0.10093
530.39901,0.09953
528.47028,0.09906
526.54156,0.09925
524.61284,0.09953
522.68411,0.09982
520.75539,0.10029
518.82667,0.10100
516.89794,0.10141
514.96922,0.10134
513.04049,0.10236
511.11177,0.10506
509.18305,0.10784
507.25432,0.11008
505.32560,0.11291
503.39688,0.11721
501.46815,0.12266
499.53943,0.12841
497.61071,0.13402
495.68198,0.13949
493.75326,0.14567
491.82453,0.15324
489.89581,0.16070
487.96709,0.16690
486.03836,0.17296
484.10964,0.17914
482.18092,0.18442
480.25219,0.18900
478.32347,0.19362
476.39475,0.19783
474.46602,0.20134
472.53730,0.20595
470.60857,0.21272
468.67985,0.21956
466.75113,0.22402
464.82240,0.22517
462.89368,0.22359
460.96496,0.22038
459.03623,0.21565
457.10751,0.20961
455.17878,0.20455
453.25006,0.20104
451.32134,0.19655
449.39261,0.18993
447.46389,0.18296
445.53517,0.17741
443.60644,0.17315
441.67772,0.16959
439.74900,0.16763
437.82027,0.16659
435.89155,0.16281
433.96282,0.15534
432.03410,0.14730
430.10538,0.14036
428.17665,0.13537
426.24793,0.13320
424.31921,0.13045
422.39048,0.12330
420.46176,0.11357
418.53304,0.10447
416.60431,0.09688
414.67559,0.08934
412.74686,0.08099
410.81814,0.07500
408.88942,0.07409
406.96069,0.07433
405.03197,0.07063
403.10325,0.06482
401.17452,0.06121
399.24580,0.05814
397.31708,0.04949
395.38835,0.03861
393.45963,0.03973
391.53090,0.05509
389.60218,0.07127
387.67346,0.07368
385.74473,0.05691
383.81601,0.03093
381.88729,0.02279
379.95856,0.04583
378.02984,0.07667
376.10111,0.07368
374.17239,0.03088
372.24367,0.00000
370.31494,-0.00495
368.38622,0.00000
