3996.31543,0.00035
3994.38671,0.00026
3992.45799,0.00008
3990.52926,-0.00001
3988.60054,0.00000
3986.67182,0.00008
3984.74309,0.00023
3982.81437,0.00040
3980.88564,0.00051
3978.95692,0.00051
3977.02820,0.00052
3975.09947,0.00053
3973.17075,0.00049
3971.24203,0.00045
3969.31330,0.00055
3967.38458,0.00090
3965.45586,0.00134
3963.52713,0.00152
3961.59841,0.00138
3959.66968,0.00125
3957.74096,0.00135
3955.81224,0.00149
3953.88351,0.00159
3951.95479,0.00167
3950.02607,0.00156
3948.09734,0.00135
3946.16862,0.00149
3944.23990,0.00186
3942.31117,0.00191
3940.38245,0.00173
3938.45372,0.00173
3936.52500,0.00188
3934.59628,0.00188
3932.66755,0.00158
3930.73883,0.00127
3928.81011,0.00152
3926.88138,0.00209
3924.95266,0.00225
3923.02393,0.00209
3921.09521,0.00216
3919.16649,0.00210
3917.23776,0.00147
3915.30904,0.00086
3913.38032,0.00085
3911.45159,0.00120
3909.52287,0.00184
3907.59415,0.00291
3905.66542,0.00378
3903.73670,0.00359
3901.80797,0.00248
3899.87925,0.00132
3897.95053,0.00089
3896.02180,0.00157
3894.09308,0.00257
3892.16436,0.00258
3890.23563,0.00196
3888.30691,0.00206
3886.37819,0.00241
3884.44946,0.00227
3882.52074,0.00200
3880.59201,0.00156
3878.66329,0.00136
3876.73457,0.00210
3874.80584,0.00302
3872.87712,0.00338
3870.94840,0.00305
3869.01967,0.00225
3867.09095,0.00188
3865.16222,0.00180
3863.23350,0.00141
3861.30478,0.00142
3859.37605,0.00270
3857.44733,0.00490
3855.51861,0.00601
3853.58988,0.00378
3851.66116,0.00043
3849.73244,0.00000
3847.80371,0.00168
3845.87499,0.00335
3843.94626,0.00414
3842.01754,0.00423
3840.08882,0.00384
3838.16009,0.00289
3836.23137,0.00204
3834.30265,0.00192
3832.37392,0.00213
3830.44520,0.00231
3828.51648,0.00255
3826.58775,0.00298
3824.65903,0.00383
3822.73030,0.00445
3820.80158,0.00380
3818.87286,0.00285
3816.94413,0.00220
3815.01541,0.00139
3813.08669,0.00152
3811.15796,0.00295
3809.22924,0.00420
3807.30052,0.00418
3805.37179,0.00391
3803.44307,0.00414
3801.51434,0.00357
3799.58562,0.00258
3797.65690,0.00244
3795.72817,0.00253
3793.79945,0.00265
3791.87073,0.00316
3789.94200,0.00382
3788.01328,0.00429
3786.08455,0.00441
3784.15583,0.00443
3782.22711,0.00471
3780.29838,0.00482
3778.36966,0.00452
3776.44094,0.00463
3774.51221,0.00551
3772.58349,0.00647
3770.65477,0.00673
3768.72604,0.00638
3766.79732,0.00619
3764.86859,0.00652
3762.93987,0.00739
3761.01115,0.00828
3759.08242,0.00849
3757.15370,0.00883
3755.22498,0.01042
3753.29625,0.01220
3751.36753,0.01226
3749.43881,0.01148
3747.51008,0.01220
3745.58136,0.01316
3743.65263,0.01270
3741.72391,0.01285
3739.79519,0.01490
3737.86646,0.01727
3735.93774,0.01810
3734.00902,0.01764
3732.08029,0.01783
3730.15157,0.01952
3728.22284,0.02188
3726.29412,0.02389
3724.36540,0.02540
3722.43667,0.02687
3720.50795,0.02855
3718.57923,0.03060
3716.65050,0.03328
3714.72178,0.03648
3712.79306,0.03930
3710.86433,0.04098
3708.93561,0.04249
3707.00688,0.04504
3705.07816,0.04850
3703.14944,0.05194
3701.22071,0.05483
3699.29199,0.05763
3697.36327,0.06081
3695.43454,0.06443
3693.50582,0.06828
3691.57710,0.07173
3689.64837,0.07413
3687.71965,0.07618
3685.79092,0.07919
3683.86220,0.08326
3681.93348,0.08790
3680.00475,0.09279
3678.07603,0.09745
3676.14731,0.10099
3674.21858,0.10384
3672.28986,0.10739
3670.36113,0.11107
3668.43241,0.11424
3666.50369,0.11782
3664.57496,0.12193
3662.64624,0.12591
3660.71752,0.12948
3658.78879,0.13260
3656.86007,0.13525
3654.93135,0.13814
3653.00262,0.14189
3651.07390,0.14541
3649.14517,0.14704
3647.21645,0.14779
3645.28773,0.14990
3643.35900,0.15310
3641.43028,0.15619
3639.50156,0.15884
3637.57283,0.16128
3635.64411,0.16354
3633.71539,0.16584
3631.78666,0.16829
3629.85794,0.16999
3627.92921,0.17064
3626.00049,0.17216
3624.07177,0.17518
3622.14304,0.17829
3620.21432,0.18010
3618.28560,0.18062
3616.35687,0.18132
3614.42815,0.18277
3612.49942,0.18435
3610.57070,0.18575
3608.64198,0.18680
3606.71325,0.18781
3604.78453,0.18951
3602.85581,0.19163
3600.92708,0.19342
3598.99836,0.19481
3597.06964,0.19607
3595.14091,0.19714
3593.21219,0.19832
3591.28346,0.20002
3589.35474,0.20161
3587.42602,0.20225
3585.49729,0.20268
3583.56857,0.20389
3581.63985,0.20538
3579.71112,0.20657
3577.78240,0.20766
3575.85368,0.20893
3573.92495,0.21047
3571.99623,0.21234
3570.06750,0.21411
3568.13878,0.21473
3566.21006,0.21432
3564.28133,0.21461
3562.35261,0.21599
3560.42389,0.21744
3558.49516,0.21860
3556.56644,0.21980
3554.63771,0.22100
3552.70899,0.22193
3550.78027,0.22273
3548.85154,0.22374
3546.92282,0.22477
3544.99410,0.22567
3543.06537,0.22657
3541.13665,0.22749
3539.20793,0.22835
3537.27920,0.22918
3535.35048,0.23010
3533.42175,0.23122
3531.49303,0.23240
3529.56431,0.23328
3527.63558,0.23385
3525.70686,0.23443
3523.77814,0.23509
3521.84941,0.23584
3519.92069,0.23679
3517.99197,0.23785
3516.06324,0.23884
3514.13452,0.23974
3512.20579,0.24057
3510.27707,0.24120
3508.34835,0.24167
3506.41962,0.24230
3504.49090,0.24304
3502.56218,0.24359
3500.63345,0.24407
3498.70473,0.24475
3496.77600,0.24547
3494.84728,0.24616
3492.91856,0.24692
3490.98983,0.24780
3489.06111,0.24860
3487.13239,0.24927
3485.20366,0.24999
3483.27494,0.25058
3481.34622,0.25082
3479.41749,0.25108
3477.48877,0.25174
3475.56004,0.25252
3473.63132,0.25307
3471.70260,0.25342
3469.77387,0.25378
3467.84515,0.25440
3465.91643,0.25522
3463.98770,0.25598
3462.05898,0.25658
3460.13026,0.25712
3458.20153,0.25754
3456.27281,0.25774
3454.34408,0.25797
3452.41536,0.25851
3450.48664,0.25904
3448.55791,0.25909
3446.62919,0.25901
3444.70047,0.25940
3442.77174,0.25999
3440.84302,0.26037
3438.91429,0.26066
3436.98557,0.26103
3435.05685,0.26148
3433.12812,0.26181
3431.19940,0.26188
3429.27068,0.26189
3427.34195,0.26205
3425.41323,0.26240
3423.48451,0.26278
3421.55578,0.26282
3419.62706,0.26259
3417.69833,0.26265
3415.76961,0.26304
3413.84089,0.26331
3411.91216,0.26331
3409.98344,0.26324
3408.05472,0.26330
3406.12599,0.26352
3404.19727,0.26362
3402.26855,0.26361
3400.33982,0.26372
3398.41110,0.26387
3396.48237,0.26394
3394.55365,0.26403
3392.62493,0.26416
3390.69620,0.26419
3388.76748,0.26401
3386.83876,0.26375
3384.91003,0.26367
3382.98131,0.26368
3381.05259,0.26357
3379.12386,0.26355
3377.19514,0.26361
3375.26641,0.26347
3373.33769,0.26321
3371.40897,0.26315
3369.48024,0.26315
3367.55152,0.26284
3365.62280,0.26237
3363.69407,0.26213
3361.76535,0.26223
3359.83662,0.26239
3357.90790,0.26223
3355.97918,0.26180
3354.05045,0.26141
3352.12173,0.26110
3350.19301,0.26081
3348.26428,0.26061
3346.33556,0.26036
3344.40684,0.25998
3342.47811,0.25973
3340.54939,0.25966
3338.62066,0.25949
3336.69194,0.25911
3334.76322,0.25878
3332.83449,0.25865
3330.90577,0.25846
3328.97705,0.25809
3327.04832,0.25767
3325.11960,0.25729
3323.19088,0.25701
3321.26215,0.25695
3319.33343,0.25698
3317.40470,0.25684
3315.47598,0.25646
3313.54726,0.25603
3311.61853,0.25581
3309.68981,0.25579
3307.76109,0.25574
3305.83236,0.25553
3303.90364,0.25516
3301.97491,0.25478
3300.04619,0.25454
3298.11747,0.25440
3296.18874,0.25424
3294.26002,0.25409
3292.33130,0.25396
3290.40257,0.25374
3288.47385,0.25328
3286.54513,0.25265
3284.61640,0.25206
3282.68768,0.25161
3280.75895,0.25125
3278.83023,0.25097
3276.90151,0.25073
3274.97278,0.25052
3273.04406,0.25021
3271.11534,0.24983
3269.18661,0.24951
3267.25789,0.24921
3265.32917,0.24883
3263.40044,0.24846
3261.47172,0.24810
3259.54299,0.24761
3257.61427,0.24698
3255.68555,0.24638
3253.75682,0.24587
3251.82810,0.24551
3249.89938,0.24532
3247.97065,0.24517
3246.04193,0.24481
3244.11320,0.24424
3242.18448,0.24373
3240.25576,0.24332
3238.32703,0.24291
3236.39831,0.24248
3234.46959,0.24211
3232.54086,0.24165
3230.61214,0.24106
3228.68342,0.24040
3226.75469,0.23968
3224.82597,0.23898
3222.89724,0.23847
3220.96852,0.23807
3219.03980,0.23756
3217.11107,0.23692
3215.18235,0.23631
3213.25363,0.23580
3211.32490,0.23539
3209.39618,0.23492
3207.46746,0.23424
3205.53873,0.23355
3203.61001,0.23302
3201.68128,0.23260
3199.75256,0.23210
3197.82384,0.23136
3195.89511,0.23053
3193.96639,0.22976
3192.03767,0.22900
3190.10894,0.22819
3188.18022,0.22747
3186.25149,0.22686
3184.32277,0.22623
3182.39405,0.22547
3180.46532,0.22454
3178.53660,0.22361
3176.60788,0.22287
3174.67915,0.22229
3172.75043,0.22175
3170.82171,0.22105
3168.89298,0.22018
3166.96426,0.21931
3165.03553,0.21844
3163.10681,0.21753
3161.17809,0.21665
3159.24936,0.21588
3157.32064,0.21517
3155.39192,0.21449
3153.46319,0.21384
3151.53447,0.21324
3149.60575,0.21258
3147.67702,0.21172
3145.74830,0.21065
3143.81957,0.20965
3141.89085,0.20891
3139.96213,0.20819
3138.03340,0.20739
3136.10468,0.20666
3134.17596,0.20600
3132.24723,0.20523
3130.31851,0.20445
3128.38978,0.20376
3126.46106,0.20308
3124.53234,0.20237
3122.60361,0.20165
3120.67489,0.20087
3118.74617,0.19996
3116.81744,0.19895
3114.88872,0.19793
3112.96000,0.19705
3111.03127,0.19630
3109.10255,0.19553
3107.17382,0.19460
3105.24510,0.19364
3103.31638,0.19275
3101.38765,0.19179
3099.45893,0.19070
3097.53021,0.18970
3095.60148,0.18878
3093.67276,0.18789
3091.74404,0.18706
3089.81531,0.18618
3087.88659,0.18513
3085.95786,0.18410
3084.02914,0.18307
3082.10042,0.18199
3080.17169,0.18102
3078.24297,0.18013
3076.31425,0.17908
3074.38552,0.17791
3072.45680,0.17687
3070.52807,0.17604
3068.59935,0.17526
3066.67063,0.17432
3064.74190,0.17327
3062.81318,0.17232
3060.88446,0.17154
3058.95573,0.17069
3057.02701,0.16962
3055.09829,0.16850
3053.16956,0.16748
3051.24084,0.16651
3049.31211,0.16550
3047.38339,0.16454
3045.45467,0.16367
3043.52594,0.16282
3041.59722,0.16198
3039.66850,0.16110
3037.73977,0.16016
3035.81105,0.15920
3033.88233,0.15831
3031.95360,0.15743
3030.02488,0.15654
3028.09615,0.15571
3026.16743,0.15493
3024.23871,0.15409
3022.30998,0.15314
3020.38126,0.15216
3018.45254,0.15129
3016.52381,0.15057
3014.59509,0.14985
3012.66636,0.14909
3010.73764,0.14839
3008.80892,0.14776
3006.88019,0.14724
3004.95147,0.14675
3003.02275,0.14619
3001.09402,0.14553
2999.16530,0.14485
2997.23658,0.14430
2995.30785,0.14387
2993.37913,0.14340
2991.45040,0.14300
2989.52168,0.14273
2987.59296,0.14243
2985.66423,0.14199
2983.73551,0.14167
2981.80679,0.14177
2979.87806,0.14216
2977.94934,0.14250
2976.02062,0.14275
2974.09189,0.14306
2972.16317,0.14355
2970.23444,0.14416
2968.30572,0.14473
2966.37700,0.14518
2964.44827,0.14561
2962.51955,0.14589
2960.59083,0.14586
2958.66210,0.14561
2956.73338,0.14529
2954.80466,0.14479
2952.87593,0.14416
2950.94721,0.14369
2949.01848,0.14348
2947.08976,0.14345
2945.16104,0.14357
2943.23231,0.14406
2941.30359,0.14500
2939.37487,0.14615
2937.44614,0.14734
2935.51742,0.14853
2933.58869,0.14954
2931.65997,0.15038
2929.73125,0.15118
2927.80252,0.15178
2925.87380,0.15194
2923.94508,0.15151
2922.01635,0.15047
2920.08763,0.14883
2918.15891,0.14654
2916.23018,0.14363
2914.30146,0.14033
2912.37273,0.13706
2910.44401,0.13423
2908.51529,0.13197
2906.58656,0.13005
2904.65784,0.12820
2902.72912,0.12642
2900.80039,0.12484
2898.87167,0.12342
2896.94295,0.12201
2895.01422,0.12055
2893.08550,0.11912
2891.15677,0.11778
2889.22805,0.11652
2887.29933,0.11532
2885.37060,0.11426
2883.44188,0.11342
2881.51316,0.11283
2879.58443,0.11245
2877.65571,0.11210
2875.72698,0.11163
2873.79826,0.11103
2871.86954,0.11034
2869.94081,0.10960
2868.01209,0.10900
2866.08337,0.10873
2864.15464,0.10878
2862.22592,0.10906
2860.29720,0.10960
2858.36847,0.11041
2856.43975,0.11124
2854.51102,0.11160
2852.58230,0.11093
2850.65358,0.10896
2848.72485,0.10591
2846.79613,0.10231
2844.86741,0.09872
2842.93868,0.09554
2841.00996,0.09285
2839.08124,0.09062
2837.15251,0.08876
2835.22379,0.08724
2833.29506,0.08597
2831.36634,0.08477
2829.43762,0.08362
2827.50889,0.08255
2825.58017,0.08158
2823.65145,0.08069
2821.72272,0.07981
2819.79400,0.07886
2817.86527,0.07798
2815.93655,0.07721
2814.00783,0.07642
2812.07910,0.07564
2810.15038,0.07492
2808.22166,0.07416
2806.29293,0.07337
2804.36421,0.07267
2802.43549,0.07206
2800.50676,0.07141
2798.57804,0.07065
2796.64931,0.06984
2794.72059,0.06914
2792.79187,0.06854
2790.86314,0.06793
2788.93442,0.06730
2787.00570,0.06669
2785.07697,0.06606
2783.14825,0.06540
2781.21953,0.06474
2779.29080,0.06409
2777.36208,0.06346
2775.43335,0.06289
2773.50463,0.06238
2771.57591,0.06181
2769.64718,0.06113
2767.71846,0.06043
2765.78974,0.05982
2763.86101,0.05929
2761.93229,0.05877
2760.00356,0.05825
2758.07484,0.05779
2756.14612,0.05731
2754.21739,0.05670
2752.28867,0.05604
2750.35995,0.05548
2748.43122,0.05500
2746.50250,0.05447
2744.57378,0.05397
2742.64505,0.05359
2740.71633,0.05322
2738.78760,0.05274
2736.85888,0.05215
2734.93016,0.05159
2733.00143,0.05108
2731.07271,0.05056
2729.14399,0.05002
2727.21526,0.04947
2725.28654,0.04890
2723.35782,0.04837
2721.42909,0.04796
2719.50037,0.04752
2717.57164,0.04693
2715.64292,0.04630
2713.71420,0.04579
2711.78547,0.04539
2709.85675,0.04499
2707.92803,0.04448
2705.99930,0.04385
2704.07058,0.04321
2702.14185,0.04268
2700.21313,0.04225
2698.28441,0.04184
2696.35568,0.04143
2694.42696,0.04107
2692.49824,0.04069
2690.56951,0.04024
2688.64079,0.03976
2686.71207,0.03927
2684.78334,0.03875
2682.85462,0.03831
2680.92589,0.03795
2678.99717,0.03758
2677.06845,0.03711
2675.13972,0.03658
2673.21100,0.03615
2671.28228,0.03580
2669.35355,0.03536
2667.42483,0.03486
2665.49611,0.03435
2663.56738,0.03396
2661.63866,0.03367
2659.70993,0.03330
2657.78121,0.03282
2655.85249,0.03239
2653.92376,0.03213
2651.99504,0.03190
2650.06632,0.03157
2648.13759,0.03111
2646.20887,0.03056
2644.28014,0.03002
2642.35142,0.02961
2640.42270,0.02926
2638.49397,0.02889
2636.56525,0.02856
2634.63653,0.02828
2632.70780,0.02796
2630.77908,0.02761
2628.85036,0.02731
2626.92163,0.02702
2624.99291,0.02668
2623.06418,0.02628
2621.13546,0.02584
2619.20674,0.02541
2617.27801,0.02505
2615.34929,0.02479
2613.42057,0.02452
2611.49184,0.02422
2609.56312,0.02395
2607.63440,0.02366
2605.70567,0.02335
2603.77695,0.02305
2601.84822,0.02271
2599.91950,0.02229
2597.99078,0.02186
2596.06205,0.02147
2594.13333,0.02119
2592.20461,0.02099
2590.27588,0.02074
2588.34716,0.02043
2586.41843,0.02012
2584.48971,0.01986
2582.56099,0.01963
2580.63226,0.01935
2578.70354,0.01904
2576.77482,0.01879
2574.84609,0.01862
2572.91737,0.01843
2570.98865,0.01811
2569.05992,0.01770
2567.13120,0.01740
2565.20247,0.01719
2563.27375,0.01700
2561.34503,0.01679
2559.41630,0.01653
2557.48758,0.01616
2555.55886,0.01583
2553.63013,0.01565
2551.70141,0.01548
2549.77269,0.01524
2547.84396,0.01504
2545.91524,0.01490
2543.98651,0.01477
2542.05779,0.01458
2540.12907,0.01433
2538.20034,0.01412
2536.27162,0.01397
2534.34290,0.01379
2532.41417,0.01359
2530.48545,0.01337
2528.55673,0.01311
2526.62800,0.01281
2524.69928,0.01259
2522.77055,0.01244
2520.84183,0.01233
2518.91311,0.01222
2516.98438,0.01207
2515.05566,0.01186
2513.12694,0.01165
2511.19821,0.01150
2509.26949,0.01137
2507.34076,0.01121
2505.41204,0.01100
2503.48332,0.01078
2501.55459,0.01056
2499.62587,0.01033
2497.69715,0.01018
2495.76842,0.01007
2493.83970,0.00988
2491.91098,0.00963
2489.98225,0.00944
2488.05353,0.00928
2486.12480,0.00909
2484.19608,0.00889
2482.26736,0.00869
2480.33863,0.00849
2478.40991,0.00835
2476.48119,0.00821
2474.55246,0.00798
2472.62374,0.00775
2470.69502,0.00763
2468.76629,0.00758
2466.83757,0.00749
2464.90884,0.00736
2462.98012,0.00719
2461.05140,0.00695
2459.12267,0.00672
2457.19395,0.00656
2455.26523,0.00638
2453.33650,0.00620
2451.40778,0.00607
2449.47905,0.00596
2447.55033,0.00584
2445.62161,0.00575
2443.69288,0.00567
2441.76416,0.00553
2439.83544,0.00538
2437.90671,0.00522
2435.97799,0.00501
2434.04927,0.00485
2432.12054,0.00477
2430.19182,0.00467
2428.26309,0.00447
2426.33437,0.00430
2424.40565,0.00420
2422.47692,0.00413
2420.54820,0.00410
2418.61948,0.00406
2416.69075,0.00392
2414.76203,0.00369
2412.83331,0.00345
2410.90458,0.00329
2408.97586,0.00320
2407.04713,0.00313
2405.11841,0.00303
2403.18969,0.00286
2401.26096,0.00273
2399.33224,0.00266
2397.40352,0.00263
2395.47479,0.00257
2393.54607,0.00248
2391.61734,0.00239
2389.68862,0.00233
2387.75990,0.00231
2385.83117,0.00231
2383.90245,0.00238
2381.97373,0.00255
2380.04500,0.00274
2378.11628,0.00288
2376.18756,0.00295
2374.25883,0.00302
2372.33011,0.00304
2370.40138,0.00299
2368.47266,0.00294
2366.54394,0.00280
2364.61521,0.00253
2362.68649,0.00230
2360.75777,0.00221
2358.82904,0.00210
2356.90032,0.00180
2354.97160,0.00133
2353.04287,0.00092
2351.11415,0.00090
2349.18542,0.00132
2347.25670,0.00185
2345.32798,0.00210
2343.39925,0.00200
2341.47053,0.00180
2339.54181,0.00165
2337.61308,0.00154
2335.68436,0.00137
2333.75563,0.00117
2331.82691,0.00098
2329.89819,0.00078
2327.96946,0.00066
2326.04074,0.00067
2324.11202,0.00071
2322.18329,0.00067
2320.25457,0.00056
2318.32585,0.00051
2316.39712,0.00057
2314.46840,0.00070
2312.53967,0.00077
2310.61095,0.00068
2308.68223,0.00051
2306.75350,0.00041
2304.82478,0.00040
2302.89606,0.00042
2300.96733,0.00048
2299.03861,0.00055
2297.10989,0.00058
2295.18116,0.00051
2293.25244,0.00038
2291.32371,0.00024
2289.39499,0.00013
2287.46627,0.00008
2285.53754,0.00011
2283.60882,0.00018
2281.68010,0.00019
2279.75137,0.00014
2277.82265,0.00011
2275.89392,0.00013
2273.96520,0.00017
2272.03648,0.00016
2270.10775,0.00014
2268.17903,0.00011
2266.25031,0.00006
2264.32158,0.00002
2262.39286,0.00000
2260.46414,0.00001
2258.53541,0.00007
2256.60669,0.00012
2254.67796,0.00013
2252.74924,0.00008
2250.82052,0.00002
2248.89179,-0.00001
2246.96307,-0.00006
2245.03435,-0.00010
2243.10562,-0.00003
2241.17690,0.00006
2239.24818,0.00004
2237.31945,-0.00003
2235.39073,-0.00001
2233.46200,0.00005
2231.53328,0.00004
2229.60456,0.00002
2227.67583,0.00004
2225.74711,0.00004
2223.81839,-0.00002
2221.88966,-0.00008
2219.96094,-0.00011
2218.03221,-0.00012
2216.10349,-0.00013
2214.17477,-0.00012
2212.24604,-0.00007
2210.31732,-0.00001
2208.38860,0.00001
2206.45987,0.00000
2204.53115,-0.00001
2202.60243,0.00002
2200.67370,0.00002
2198.74498,-0.00002
2196.81625,-0.00003
2194.88753,0.00000
2192.95881,0.00005
2191.03008,0.00005
2189.10136,-0.00001
2187.17264,-0.00008
2185.24391,-0.00001
2183.31519,0.00009
2181.38647,0.00012
2179.45774,0.00015
2177.52902,0.00023
2175.60029,0.00024
2173.67157,0.00016
2171.74285,0.00008
2169.81412,0.00003
2167.88540,0.00004
2165.95668,0.00009
2164.02795,0.00012
2162.09923,0.00011
2160.17050,0.00011
2158.24178,0.00013
2156.31306,0.00015
2154.38433,0.00013
2152.45561,0.00012
2150.52689,0.00017
2148.59816,0.00029
2146.66944,0.00034
2144.74072,0.00028
2142.81199,0.00020
2140.88327,0.00016
2138.95454,0.00018
2137.02582,0.00020
2135.09710,0.00016
2133.16837,0.00013
2131.23965,0.00011
2129.31093,0.00011
2127.38220,0.00013
2125.45348,0.00019
2123.52476,0.00027
2121.59603,0.00030
2119.66731,0.00024
2117.73858,0.00017
2115.80986,0.00013
2113.88114,0.00007
2111.95241,0.00003
2110.02369,0.00004
2108.09497,0.00005
2106.16624,0.00001
2104.23752,-0.00003
2102.30880,-0.00009
2100.38007,-0.00013
2098.45135,-0.00012
2096.52262,-0.00007
2094.59390,0.00000
2092.66518,0.00002
2090.73645,-0.00010
2088.80773,-0.00032
2086.87901,-0.00047
2084.95028,-0.00048
2083.02156,-0.00042
2081.09283,-0.00036
2079.16411,-0.00034
2077.23539,-0.00035
2075.30666,-0.00041
2073.37794,-0.00056
2071.44922,-0.00066
2069.52049,-0.00061
2067.59177,-0.00043
2065.66305,-0.00028
2063.73432,-0.00029
2061.80560,-0.00035
2059.87687,-0.00032
2057.94815,-0.00020
2056.01943,-0.00003
2054.09070,0.00010
2052.16198,0.00016
2050.23326,0.00027
2048.30453,0.00049
2046.37581,0.00069
2044.44709,0.00083
2042.51836,0.00096
2040.58964,0.00107
2038.66091,0.00113
2036.73219,0.00126
2034.80347,0.00153
2032.87474,0.00180
2030.94602,0.00193
2029.01730,0.00197
2027.08857,0.00213
2025.15985,0.00242
2023.23112,0.00270
2021.30240,0.00290
2019.37368,0.00299
2017.44495,0.00299
2015.51623,0.00301
2013.58751,0.00317
2011.65878,0.00332
2009.73006,0.00339
2007.80134,0.00350
2005.87261,0.00367
2003.94389,0.00382
2002.01516,0.00391
2000.08644,0.00396
1998.15772,0.00395
1996.22899,0.00398
1994.30027,0.00406
1992.37155,0.00405
1990.44282,0.00390
1988.51410,0.00377
1986.58538,0.00373
1984.65665,0.00375
1982.72793,0.00372
1980.79920,0.00363
1978.87048,0.00356
1976.94176,0.00353
1975.01303,0.00344
1973.08431,0.00327
1971.15559,0.00314
1969.22686,0.00305
1967.29814,0.00282
1965.36941,0.00255
1963.44069,0.00241
1961.51197,0.00234
1959.58324,0.00220
1957.65452,0.00207
1955.72580,0.00194
1953.79707,0.00180
1951.86835,0.00164
1949.93963,0.00147
1948.01090,0.00134
1946.08218,0.00128
1944.15345,0.00112
1942.22473,0.00076
1940.29601,0.00050
1938.36728,0.00053
1936.43856,0.00060
1934.50984,0.00059
1932.58111,0.00056
1930.65239,0.00048
1928.72367,0.00040
1926.79494,0.00051
1924.86622,0.00072
1922.93749,0.00078
1921.00877,0.00078
1919.08005,0.00083
1917.15132,0.00088
1915.22260,0.00112
1913.29388,0.00162
1911.36515,0.00211
1909.43643,0.00244
1907.50770,0.00277
1905.57898,0.00324
1903.65026,0.00374
1901.72153,0.00418
1899.79281,0.00465
1897.86409,0.00512
1895.93536,0.00551
1894.00664,0.00591
1892.07792,0.00643
1890.14919,0.00688
1888.22047,0.00717
1886.29174,0.00748
1884.36302,0.00786
1882.43430,0.00820
1880.50557,0.00846
1878.57685,0.00858
1876.64813,0.00857
1874.71940,0.00862
1872.79068,0.00884
1870.86196,0.00891
1868.93323,0.00846
1867.00451,0.00776
1865.07578,0.00742
1863.14706,0.00731
1861.21834,0.00706
1859.28961,0.00665
1857.36089,0.00617
1855.43217,0.00565
1853.50344,0.00517
1851.57472,0.00478
1849.64599,0.00449
1847.71727,0.00420
1845.78855,0.00361
1843.85982,0.00260
1841.93110,0.00183
1840.00238,0.00168
1838.07365,0.00164
1836.14493,0.00143
1834.21621,0.00131
1832.28748,0.00125
1830.35876,0.00090
1828.43003,0.00042
1826.50131,0.00016
1824.57259,0.00000
1822.64386,-0.00015
1820.71514,-0.00016
1818.78642,-0.00015
1816.85769,-0.00015
1814.92897,0.00000
1813.00025,0.00012
1811.07152,-0.00001
1809.14280,-0.00021
1807.21407,-0.00014
1805.28535,0.00019
1803.35663,0.00055
1801.42790,0.00074
1799.49918,0.00088
1797.57046,0.00125
1795.64173,0.00191
1793.71301,0.00241
1791.78428,0.00246
1789.85556,0.00259
1787.92684,0.00328
1785.99811,0.00423
1784.06939,0.00508
1782.14067,0.00579
1780.21194,0.00641
1778.28322,0.00719
1776.35450,0.00827
1774.42577,0.00931
1772.49705,0.00977
1770.56832,0.00993
1768.63960,0.01041
1766.71088,0.01133
1764.78215,0.01246
1762.85343,0.01345
1760.92471,0.01423
1758.99598,0.01508
1757.06726,0.01611
1755.13854,0.01733
1753.20981,0.01872
1751.28109,0.01989
1749.35236,0.02075
1747.42364,0.02184
1745.49492,0.02342
1743.56619,0.02518
1741.63747,0.02684
1739.70875,0.02849
1737.78002,0.03036
1735.85130,0.03228
1733.92257,0.03375
1731.99385,0.03494
1730.06513,0.03643
1728.13640,0.03819
1726.20768,0.03999
1724.27896,0.04183
1722.35023,0.04383
1720.42151,0.04591
1718.49279,0.04751
1716.56406,0.04834
1714.63534,0.04932
1712.70661,0.05109
1710.77789,0.05330
1708.84917,0.05552
1706.92044,0.05755
1704.99172,0.05958
1703.06300,0.06199
1701.13427,0.06462
1699.20555,0.06708
1697.27683,0.06953
1695.34810,0.07227
1693.41938,0.07531
1691.49065,0.07858
1689.56193,0.08196
1687.63321,0.08528
1685.70448,0.08839
1683.77576,0.09116
1681.84704,0.09392
1679.91831,0.09707
1677.98959,0.10042
1676.06087,0.10363
1674.13214,0.10665
1672.20342,0.10951
1670.27469,0.11216
1668.34597,0.11466
1666.41725,0.11728
1664.48852,0.11990
1662.55980,0.12214
1660.63108,0.12408
1658.70235,0.12616
1656.77363,0.12837
1654.84490,0.12997
1652.91618,0.13041
1650.98746,0.13102
1649.05873,0.13229
1647.13001,0.13307
1645.20129,0.13343
1643.27256,0.13430
1641.34384,0.13554
1639.41512,0.13665
1637.48639,0.13704
1635.55767,0.13631
1633.62894,0.13554
1631.70022,0.13561
1629.77150,0.13569
1627.84277,0.13506
1625.91405,0.13388
1623.98533,0.13217
1622.05660,0.13032
1620.12788,0.12906
1618.19916,0.12753
1616.27043,0.12473
1614.34171,0.12201
1612.41298,0.12023
1610.48426,0.11843
1608.55554,0.11608
1606.62681,0.11360
1604.69809,0.11131
1602.76937,0.10909
1600.84064,0.10690
1598.91192,0.10485
1596.98319,0.10288
1595.05447,0.10089
1593.12575,0.09897
1591.19702,0.09718
1589.26830,0.09546
1587.33958,0.09380
1585.41085,0.09225
1583.48213,0.09078
1581.55341,0.08955
1579.62468,0.08861
1577.69596,0.08732
1575.76723,0.08531
1573.83851,0.08390
1571.90979,0.08341
1569.98106,0.08253
1568.05234,0.08113
1566.12362,0.08029
1564.19489,0.08034
1562.26617,0.08095
1560.33745,0.08063
1558.40872,0.07811
1556.48000,0.07592
1554.55127,0.07550
1552.62255,0.07553
1550.69383,0.07522
1548.76510,0.07485
1546.83638,0.07472
1544.90766,0.07450
1542.97893,0.07340
1541.05021,0.07081
1539.12148,0.06774
1537.19276,0.06642
1535.26404,0.06600
1533.33531,0.06470
1531.40659,0.06301
1529.47787,0.06194
1527.54914,0.06091
1525.62042,0.05947
1523.69170,0.05776
1521.76297,0.05553
1519.83425,0.05321
1517.90552,0.05146
1515.97680,0.04995
1514.04808,0.04877
1512.11935,0.04819
1510.19063,0.04762
1508.26191,0.04530
1506.33318,0.04069
1504.40446,0.03742
1502.47574,0.03661
1500.54701,0.03616
1498.61829,0.03470
1496.68956,0.03249
1494.76084,0.03089
1492.83212,0.03039
1490.90339,0.03001
1488.97467,0.02907
1487.04595,0.02820
1485.11722,0.02807
1483.18850,0.02848
1481.25977,0.02914
1479.33105,0.03010
1477.40233,0.03143
1475.47360,0.03294
1473.54488,0.03447
1471.61616,0.03625
1469.68743,0.03851
1467.75871,0.04078
1465.82999,0.04230
1463.90126,0.04316
1461.97254,0.04429
1460.04381,0.04563
1458.11509,0.04594
1456.18637,0.04517
1454.25764,0.04506
1452.32892,0.04582
1450.40020,0.04653
1448.47147,0.04680
1446.54275,0.04687
1444.61403,0.04708
1442.68530,0.04746
1440.75658,0.04797
1438.82785,0.04841
1436.89913,0.04843
1434.97041,0.04836
1433.04168,0.04879
1431.11296,0.04935
1429.18424,0.04976
1427.25551,0.05038
1425.32679,0.05132
1423.39806,0.05238
1421.46934,0.05340
1419.54062,0.05414
1417.61189,0.05472
1415.68317,0.05571
1413.75445,0.05716
1411.82572,0.05872
1409.89700,0.06024
1407.96828,0.06174
1406.03955,0.06309
1404.11083,0.06413
1402.18210,0.06480
1400.25338,0.06487
1398.32466,0.06406
1396.39593,0.06237
1394.46721,0.06008
1392.53849,0.05799
1390.60976,0.05648
1388.68104,0.05504
1386.75232,0.05344
1384.82359,0.05216
1382.89487,0.05130
1380.96614,0.05046
1379.03742,0.04950
1377.10870,0.04843
1375.17997,0.04715
1373.25125,0.04580
1371.32253,0.04474
1369.39380,0.04395
1367.46508,0.04323
1365.53635,0.04246
1363.60763,0.04138
1361.67891,0.03999
1359.75018,0.03881
1357.82146,0.03806
1355.89274,0.03745
1353.96401,0.03681
1352.03529,0.03622
1350.10657,0.03575
1348.17784,0.03538
1346.24912,0.03511
1344.32039,0.03490
1342.39167,0.03468
1340.46295,0.03431
1338.53422,0.03379
1336.60550,0.03342
1334.67678,0.03333
1332.74805,0.03335
1330.81933,0.03338
1328.89061,0.03340
1326.96188,0.03336
1325.03316,0.03327
1323.10443,0.03318
1321.17571,0.03304
1319.24699,0.03268
1317.31826,0.03194
1315.38954,0.03091
1313.46082,0.02975
1311.53209,0.02850
1309.60337,0.02706
1307.67464,0.02522
1305.74592,0.02254
1303.81720,0.01884
1301.88847,0.01551
1299.95975,0.01464
1298.03103,0.01583
1296.10230,0.01717
1294.17358,0.01840
1292.24486,0.02053
1290.31613,0.02393
1288.38741,0.02830
1286.45868,0.03323
1284.52996,0.03839
1282.60124,0.04349
1280.67251,0.04834
1278.74379,0.05303
1276.81507,0.05770
1274.88634,0.06226
1272.95762,0.06670
1271.02890,0.07135
1269.10017,0.07649
1267.17145,0.08214
1265.24272,0.08824
1263.31400,0.09484
1261.38528,0.10218
1259.45655,0.11033
1257.52783,0.11906
1255.59911,0.12819
1253.67038,0.13771
1251.74166,0.14753
1249.81294,0.15723
1247.88421,0.16635
1245.95549,0.17474
1244.02676,0.18237
1242.09804,0.18927
1240.16932,0.19566
1238.24059,0.20158
1236.31187,0.20679
1234.38315,0.21134
1232.45442,0.21552
1230.52570,0.21936
1228.59697,0.22271
1226.66825,0.22560
1224.73953,0.22825
1222.81080,0.23066
1220.88208,0.23276
1218.95336,0.23469
1217.02463,0.23657
1215.09591,0.23844
1213.16719,0.24026
1211.23846,0.24192
1209.30974,0.24350
1207.38101,0.24503
1205.45229,0.24628
1203.52357,0.24716
1201.59484,0.24761
1199.66612,0.24695
1197.73740,0.24468
1195.80867,0.24145
1193.87995,0.23842
1191.95123,0.23691
1190.02250,0.23786
1188.09378,0.24012
1186.16505,0.24199
1184.23633,0.24392
1182.30761,0.24716
1180.37888,0.25191
1178.45016,0.25750
1176.52144,0.26276
1174.59271,0.26732
1172.66399,0.27175
1170.73526,0.27610
1168.80654,0.27998
1166.87782,0.28356
1164.94909,0.28710
1163.02037,0.29032
1161.09165,0.29308
1159.16292,0.29553
1157.23420,0.29769
1155.30548,0.29959
1153.37675,0.30135
1151.44803,0.30303
1149.51930,0.30472
1147.59058,0.30644
1145.66186,0.30813
1143.73313,0.30986
1141.80441,0.31166
1139.87569,0.31342
1137.94696,0.31534
1136.01824,0.31762
1134.08952,0.31998
1132.16079,0.32234
1130.23207,0.32502
1128.30334,0.32787
1126.37462,0.33050
1124.44590,0.33286
1122.51717,0.33531
1120.58845,0.33840
1118.65973,0.34196
1116.73100,0.34560
1114.80228,0.34965
1112.87355,0.35478
1110.94483,0.36097
1109.01611,0.36716
1107.08738,0.37256
1105.15866,0.37782
1103.22994,0.38354
1101.30121,0.38906
1099.37249,0.39397
1097.44377,0.39823
1095.51504,0.40156
1093.58632,0.40398
1091.65759,0.40589
1089.72887,0.40739
1087.80015,0.40830
1085.87142,0.40874
1083.94270,0.40853
1082.01398,0.40725
1080.08525,0.40505
1078.15653,0.40263
1076.22781,0.40076
1074.29908,0.39900
1072.37036,0.39635
1070.44163,0.39312
1068.51291,0.39001
1066.58419,0.38661
1064.65546,0.38247
1062.72674,0.37825
1060.79802,0.37411
1058.86929,0.36922
1056.94057,0.36372
1055.01184,0.35845
1053.08312,0.35346
1051.15440,0.34800
1049.22567,0.34184
1047.29695,0.33547
1045.36823,0.32925
1043.43950,0.32314
1041.51078,0.31707
1039.58206,0.31094
1037.65333,0.30455
1035.72461,0.29779
1033.79588,0.29089
1031.86716,0.28439
1029.93844,0.27830
1028.00971,0.27220
1026.08099,0.26615
1024.15227,0.26032
1022.22354,0.25445
1020.29482,0.24859
1018.36610,0.24318
1016.43737,0.23831
1014.50865,0.23379
1012.57992,0.22957
1010.65120,0.22557
1008.72248,0.22164
1006.79375,0.21771
1004.86503,0.21395
1002.93631,0.21046
1001.00758,0.20718
999.07886,0.20388
997.15013,0.20043
995.22141,0.19706
993.29269,0.19380
991.36396,0.19044
989.43524,0.18718
987.50652,0.18438
985.57779,0.18198
983.64907,0.17981
981.72035,0.17803
979.79162,0.17658
977.86290,0.17520
975.93417,0.17390
974.00545,0.17283
972.07673,0.17203
970.14800,0.17158
968.21928,0.17164
966.29056,0.17215
964.36183,0.17263
962.43311,0.17272
960.50439,0.17252
958.57566,0.17236
956.64694,0.17215
954.71821,0.17173
952.78949,0.17120
950.86077,0.17071
948.93204,0.17011
947.00332,0.16906
945.07460,0.16767
943.14587,0.16623
941.21715,0.16473
939.28842,0.16305
937.35970,0.16114
935.43098,0.15910
933.50225,0.15699
931.57353,0.15474
929.64481,0.15229
927.71608,0.14991
925.78736,0.14763
923.85864,0.14508
921.92991,0.14230
920.00119,0.13938
918.07246,0.13613
916.14374,0.13290
914.21502,0.13015
912.28629,0.12738
910.35757,0.12401
908.42885,0.12052
906.50012,0.11748
904.57140,0.11465
902.64268,0.11152
900.71395,0.10828
898.78523,0.10540
896.85650,0.10262
894.92778,0.09968
892.99906,0.09694
891.07033,0.09438
889.14161,0.09153
887.21289,0.08858
885.28416,0.08609
883.35544,0.08397
881.42671,0.08193
879.49799,0.08004
877.56927,0.07818
875.64054,0.07619
873.71182,0.07428
871.78310,0.07264
869.85437,0.07118
867.92565,0.06958
865.99693,0.06763
864.06820,0.06576
862.13948,0.06429
860.21075,0.06295
858.28203,0.06166
856.35331,0.06074
854.42458,0.06026
852.49586,0.05970
850.56714,0.05905
848.63841,0.05879
846.70969,0.05889
844.78097,0.05925
842.85224,0.06045
840.92352,0.06255
838.99479,0.06492
837.06607,0.06716
835.13735,0.06938
833.20862,0.07205
831.27990,0.07529
829.35118,0.07865
827.42245,0.08169
825.49373,0.08448
823.56501,0.08729
821.63628,0.08997
819.70756,0.09257
817.77883,0.09542
815.85011,0.09831
813.92139,0.10089
811.99266,0.10347
810.06394,0.10626
808.13522,0.10881
806.20649,0.11091
804.27777,0.11282
802.34904,0.11443
800.42032,0.11535
798.49160,0.11553
796.56287,0.11543
794.63415,0.11533
792.70543,0.11485
790.77670,0.11387
788.84798,0.11244
786.91926,0.11041
784.99053,0.10807
783.06181,0.10579
781.13308,0.10339
779.20436,0.10040
777.27564,0.09677
775.34691,0.09323
773.41819,0.09039
771.48947,0.08784
769.56074,0.08528
767.63202,0.08331
765.70330,0.08229
763.77457,0.08168
761.84585,0.08122
759.91712,0.08116
757.98840,0.08127
756.05968,0.08098
754.13095,0.08038
752.20223,0.07989
750.27351,0.07954
748.34478,0.07914
746.41606,0.07897
744.48733,0.07910
742.55861,0.07898
740.62989,0.07874
738.70116,0.07899
736.77244,0.07947
734.84372,0.07958
732.91499,0.07942
730.98627,0.07947
729.05755,0.07977
727.12882,0.07990
725.20010,0.07995
723.27137,0.08048
721.34265,0.08119
719.41393,0.08151
717.48520,0.08159
715.55648,0.08185
713.62776,0.08221
711.69903,0.08243
709.77031,0.08261
707.84159,0.08279
705.91286,0.08283
703.98414,0.08289
702.05541,0.08331
700.12669,0.08414
698.19797,0.08527
696.26924,0.08646
694.34052,0.08737
692.41180,0.08772
690.48307,0.08747
688.55435,0.08692
686.62562,0.08664
684.69690,0.08681
682.76818,0.08700
680.83945,0.08689
678.91073,0.08666
676.98201,0.08650
675.05328,0.08656
673.12456,0.08707
671.19584,0.08768
669.26711,0.08731
667.33839,0.08610
665.40966,0.08575
663.48094,0.08651
661.55222,0.08750
659.62349,0.08841
657.69477,0.08957
655.76605,0.09101
653.83732,0.09217
651.90860,0.09291
649.97988,0.09426
648.05115,0.09696
646.12243,0.10012
644.19370,0.10252
642.26498,0.10402
640.33626,0.10493
638.40753,0.10538
636.47881,0.10571
634.55009,0.10650
632.62136,0.10760
630.69264,0.10842
628.76391,0.10897
626.83519,0.10977
624.90647,0.11063
622.97774,0.11113
621.04902,0.11217
619.12030,0.11424
617.19157,0.11593
615.26285,0.11658
613.33413,0.11745
611.40540,0.11886
609.47668,0.11990
607.54795,0.12028
605.61923,0.12087
603.69051,0.12244
601.76178,0.12411
599.83306,0.12480
597.90434,0.12527
595.97561,0.12634
594.04689,0.12755
592.11817,0.12851
590.18944,0.12920
588.26072,0.12987
586.33199,0.13097
584.40327,0.13252
582.47455,0.13402
580.54582,0.13478
578.61710,0.13450
576.68838,0.13374
574.75965,0.13330
572.83093,0.13346
570.90220,0.13406
568.97348,0.13493
567.04476,0.13554
565.11603,0.13567
563.18731,0.13543
561.25859,0.13467
559.32986,0.13386
557.40114,0.13376
555.47242,0.13427
553.54369,0.13507
551.61497,0.13614
549.68624,0.13700
547.75752,0.13729
545.82880,0.13732
543.90007,0.13709
541.97135,0.13612
540.04263,0.13514
538.11390,0.13556
536.18518,0.13679
534.25646,0.13717
532.32773,0.13676
530.39901,0.13667
528.47028,0.13647
526.54156,0.13531
524.61284,0.13440
522.68411,0.13513
520.75539,0.13676
518.82667,0.13836
516.89794,0.13981
514.96922,0.14060
513.04049,0.14047
511.11177,0.14070
509.18305,0.14286
507.25432,0.14680
505.32560,0.15122
503.39688,0.15603
501.46815,0.16195
499.53943,0.16805
497.61071,0.17282
495.68198,0.17728
493.75326,0.18400
491.82453,0.19162
489.89581,0.19632
487.96709,0.19967
486.03836,0.20584
484.10964,0.21393
482.18092,0.22092
480.25219,0.22697
478.32347,0.23340
476.39475,0.24009
474.46602,0.24620
472.53730,0.25117
470.60857,0.25498
468.67985,0.25775
466.75113,0.25974
464.82240,0.26122
462.89368,0.26071
460.96496,0.25546
459.03623,0.24648
457.10751,0.23978
455.17878,0.23860
453.25006,0.23859
451.32134,0.23520
449.39261,0.22938
447.46389,0.22369
445.53517,0.21770
443.60644,0.21047
441.67772,0.20427
439.74900,0.20131
437.82027,0.19928
435.89155,0.19523
433.96282,0.18974
432.03410,0.18371
430.10538,0.17744
428.17665,0.17346
426.24793,0.17278
424.31921,0.17074
422.39048,0.16370
420.46176,0.15414
418.53304,0.14388
416.60431,0.13304
414.67559,0.12497
412.74686,0.12160
410.81814,0.11833
408.88942,0.10979
406.96069,0.10083
405.03197,0.09851
403.10325,0.09895
401.17452,0.09604
399.24580,0.09171
397.31708,0.08887
395.38835,0.08459
393.45963,0.08057
391.53090,0.08027
389.60218,0.07542
387.67346,0.05843
385.74473,0.03900
383.81601,0.03376
381.88729,0.04638
379.95856,0.06298
378.02984,0.06601
376.10111,0.05558
374.17239,0.04454
372.24367,0.02802
370.31494,0.00739
368.38622,0.00000
