3996.31543,0.00000
3994.38671,0.00011
3992.45799,0.00014
3990.52926,0.00007
3988.60054,-0.00001
3986.67182,0.00009
3984.74309,0.00032
3982.81437,0.00043
3980.88564,0.00040
3978.95692,0.00034
3977.02820,0.00038
3975.09947,0.00049
3973.17075,0.00059
3971.24203,0.00059
3969.31330,0.00057
3967.38458,0.00065
3965.45586,0.00087
3963.52713,0.00111
3961.59841,0.00122
3959.66968,0.00119
3957.74096,0.00104
3955.81224,0.00081
3953.88351,0.00069
3951.95479,0.00083
3950.02607,0.00109
3948.09734,0.00124
3946.16862,0.00128
3944.23990,0.00118
3942.31117,0.00087
3940.38245,0.00056
3938.45372,0.00049
3936.52500,0.00067
3934.59628,0.00097
3932.66755,0.00107
3930.73883,0.00088
3928.81011,0.00067
3926.88138,0.00068
3924.95266,0.00077
3923.02393,0.00079
3921.09521,0.00082
3919.16649,0.00084
3917.23776,0.00069
3915.30904,0.00052
3913.38032,0.00045
3911.45159,0.00039
3909.52287,0.00036
3907.59415,0.00054
3905.66542,0.00088
3903.73670,0.00106
3901.80797,0.00093
3899.87925,0.00073
3897.95053,0.00067
3896.02180,0.00074
3894.09308,0.00080
3892.16436,0.00073
3890.23563,0.00066
3888.30691,0.00080
3886.37819,0.00100
3884.44946,0.00103
3882.52074,0.00087
3880.59201,0.00052
3878.66329,0.00022
3876.73457,0.00024
3874.80584,0.00041
3872.87712,0.00044
3870.94840,0.00027
3869.01967,0.00008
3867.09095,0.00020
3865.16222,0.00047
3863.23350,0.00053
3861.30478,0.00047
3859.37605,0.00063
3857.44733,0.00104
3855.51861,0.00130
3853.58988,0.00087
3851.66116,0.00015
3849.73244,0.00000
3847.80371,0.00031
3845.87499,0.00068
3843.94626,0.00082
3842.01754,0.00079
3840.08882,0.00074
3838.16009,0.00061
3836.23137,0.00040
3834.30265,0.00030
3832.37392,0.00026
3830.44520,0.00021
3828.51648,0.00026
3826.58775,0.00050
3824.65903,0.00098
3822.73030,0.00150
3820.80158,0.00164
3818.87286,0.00145
3816.94413,0.00124
3815.01541,0.00090
3813.08669,0.00066
3811.15796,0.00088
3809.22924,0.00140
3807.30052,0.00173
3805.37179,0.00179
3803.44307,0.00193
3801.51434,0.00211
3799.58562,0.00212
3797.65690,0.00204
3795.72817,0.00200
3793.79945,0.00210
3791.87073,0.00234
3789.94200,0.00260
3788.01328,0.00277
3786.08455,0.00290
3784.15583,0.00310
3782.22711,0.00346
3780.29838,0.00379
3778.36966,0.00397
3776.44094,0.00421
3774.51221,0.00466
3772.58349,0.00521
3770.65477,0.00560
3768.72604,0.00577
3766.79732,0.00590
3764.86859,0.00618
3762.93987,0.00669
3761.01115,0.00736
3759.08242,0.00798
3757.15370,0.00862
3755.22498,0.00961
3753.29625,0.01082
3751.36753,0.01160
3749.43881,0.01187
3747.51008,0.01244
3745.58136,0.01348
3743.65263,0.01444
3741.72391,0.01529
3739.79519,0.01648
3737.86646,0.01800
3735.93774,0.01941
3734.00902,0.02061
3732.08029,0.02195
3730.15157,0.02353
3728.22284,0.02530
3726.29412,0.02727
3724.36540,0.02937
3722.43667,0.03163
3720.50795,0.03407
3718.57923,0.03657
3716.65050,0.03907
3714.72178,0.04181
3712.79306,0.04516
3710.86433,0.04903
3708.93561,0.05269
3707.00688,0.05585
3705.07816,0.05904
3703.14944,0.06282
3701.22071,0.06709
3699.29199,0.07117
3697.36327,0.07484
3695.43454,0.07832
3693.50582,0.08185
3691.57710,0.08583
3689.64837,0.09058
3687.71965,0.09547
3685.79092,0.09981
3683.86220,0.10396
3681.93348,0.10840
3680.00475,0.11307
3678.07603,0.11791
3676.14731,0.12325
3674.21858,0.12861
3672.28986,0.13315
3670.36113,0.13778
3668.43241,0.14292
3666.50369,0.14761
3664.57496,0.15170
3662.64624,0.15569
3660.71752,0.15969
3658.78879,0.16367
3656.86007,0.16765
3654.93135,0.17139
3653.00262,0.17473
3651.07390,0.17814
3649.14517,0.18197
3647.21645,0.18571
3645.28773,0.18883
3643.35900,0.19164
3641.43028,0.19459
3639.50156,0.19762
3637.57283,0.20055
3635.64411,0.20337
3633.71539,0.20598
3631.78666,0.20839
3629.85794,0.21106
3627.92921,0.21403
3626.00049,0.21663
3624.07177,0.21891
3622.14304,0.22132
3620.21432,0.22379
3618.28560,0.22595
3616.35687,0.22773
3614.42815,0.22951
3612.49942,0.23137
3610.57070,0.23316
3608.64198,0.23497
3606.71325,0.23685
3604.78453,0.23867
3602.85581,0.24052
3600.92708,0.24247
3598.99836,0.24426
3597.06964,0.24575
3595.14091,0.24720
3593.21219,0.24886
3591.28346,0.25062
3589.35474,0.25233
3587.42602,0.25403
3585.49729,0.25563
3583.56857,0.25704
3581.63985,0.25845
3579.71112,0.26003
3577.78240,0.26162
3575.85368,0.26316
3573.92495,0.26478
3571.99623,0.26654
3570.06750,0.26826
3568.13878,0.26972
3566.21006,0.27090
3564.28133,0.27205
3562.35261,0.27334
3560.42389,0.27473
3558.49516,0.27612
3556.56644,0.27756
3554.63771,0.27906
3552.70899,0.28049
3550.78027,0.28175
3548.85154,0.28286
3546.92282,0.28393
3544.99410,0.28507
3543.06537,0.28634
3541.13665,0.28768
3539.20793,0.28889
3537.27920,0.28987
3535.35048,0.29083
3533.42175,0.29206
3531.49303,0.29345
3529.56431,0.29463
3527.63558,0.29554
3525.70686,0.29654
3523.77814,0.29773
3521.84941,0.29880
3519.92069,0.29973
3517.99197,0.30092
3516.06324,0.30241
3514.13452,0.30363
3512.20579,0.30431
3510.27707,0.30478
3508.34835,0.30553
3506.41962,0.30659
3504.49090,0.30774
3502.56218,0.30886
3500.63345,0.30994
3498.70473,0.31101
3496.77600,0.31211
3494.84728,0.31307
3492.91856,0.31372
3490.98983,0.31421
3489.06111,0.31490
3487.13239,0.31578
3485.20366,0.31668
3483.27494,0.31738
3481.34622,0.31789
3479.41749,0.31837
3477.48877,0.31906
3475.56004,0.32004
3473.63132,0.32099
3471.70260,0.32157
3469.77387,0.32193
3467.84515,0.32246
3465.91643,0.32311
3463.98770,0.32363
3462.05898,0.32388
3460.13026,0.32414
3458.20153,0.32472
3456.27281,0.32543
3454.34408,0.32604
3452.41536,0.32648
3450.48664,0.32682
3448.55791,0.32715
3446.62919,0.32756
3444.70047,0.32805
3442.77174,0.32844
3440.84302,0.32868
3438.91429,0.32898
3436.98557,0.32960
3435.05685,0.33043
3433.12812,0.33108
3431.19940,0.33143
3429.27068,0.33168
3427.34195,0.33181
3425.41323,0.33173
3423.48451,0.33183
3421.55578,0.33221
3419.62706,0.33240
3417.69833,0.33236
3415.76961,0.33243
3413.84089,0.33258
3411.91216,0.33262
3409.98344,0.33264
3408.05472,0.33273
3406.12599,0.33301
3404.19727,0.33340
3402.26855,0.33349
3400.33982,0.33315
3398.41110,0.33281
3396.48237,0.33282
3394.55365,0.33306
3392.62493,0.33325
3390.69620,0.33328
3388.76748,0.33313
3386.83876,0.33282
3384.91003,0.33247
3382.98131,0.33235
3381.05259,0.33250
3379.12386,0.33251
3377.19514,0.33214
3375.26641,0.33167
3373.33769,0.33139
3371.40897,0.33120
3369.48024,0.33100
3367.55152,0.33083
3365.62280,0.33075
3363.69407,0.33058
3361.76535,0.33024
3359.83662,0.32991
3357.90790,0.32962
3355.97918,0.32925
3354.05045,0.32885
3352.12173,0.32840
3350.19301,0.32794
3348.26428,0.32767
3346.33556,0.32753
3344.40684,0.32716
3342.47811,0.32664
3340.54939,0.32628
3338.62066,0.32600
3336.69194,0.32565
3334.76322,0.32517
3332.83449,0.32457
3330.90577,0.32405
3328.97705,0.32379
3327.04832,0.32376
3325.11960,0.32367
3323.19088,0.32331
3321.26215,0.32276
3319.33343,0.32225
3317.40470,0.32193
3315.47598,0.32176
3313.54726,0.32154
3311.61853,0.32123
3309.68981,0.32097
3307.76109,0.32075
3305.83236,0.32042
3303.90364,0.31994
3301.97491,0.31953
3300.04619,0.31922
3298.11747,0.31894
3296.18874,0.31867
3294.26002,0.31832
3292.33130,0.31778
3290.40257,0.31712
3288.47385,0.31653
3286.54513,0.31607
3284.61640,0.31572
3282.68768,0.31540
3280.75895,0.31506
3278.83023,0.31476
3276.90151,0.31453
3274.97278,0.31419
3273.04406,0.31371
3271.11534,0.31322
3269.18661,0.31268
3267.25789,0.31197
3265.32917,0.31123
3263.40044,0.31061
3261.47172,0.31015
3259.54299,0.30980
3257.61427,0.30928
3255.68555,0.30850
3253.75682,0.30793
3251.82810,0.30774
3249.89938,0.30746
3247.97065,0.30688
3246.04193,0.30618
3244.11320,0.30549
3242.18448,0.30487
3240.25576,0.30438
3238.32703,0.30395
3236.39831,0.30347
3234.46959,0.30296
3232.54086,0.30230
3230.61214,0.30151
3228.68342,0.30088
3226.75469,0.30039
3224.82597,0.29981
3222.89724,0.29909
3220.96852,0.29828
3219.03980,0.29735
3217.11107,0.29637
3215.18235,0.29549
3213.25363,0.29481
3211.32490,0.29430
3209.39618,0.29375
3207.46746,0.29294
3205.53873,0.29187
3203.61001,0.29082
3201.68128,0.29004
3199.75256,0.28931
3197.82384,0.28834
3195.89511,0.28744
3193.96639,0.28689
3192.03767,0.28645
3190.10894,0.28580
3188.18022,0.28486
3186.25149,0.28385
3184.32277,0.28294
3182.39405,0.28201
3180.46532,0.28100
3178.53660,0.27990
3176.60788,0.27880
3174.67915,0.27781
3172.75043,0.27685
3170.82171,0.27584
3168.89298,0.27486
3166.96426,0.27394
3165.03553,0.27303
3163.10681,0.27205
3161.17809,0.27099
3159.24936,0.26997
3157.32064,0.26906
3155.39192,0.26821
3153.46319,0.26737
3151.53447,0.26650
3149.60575,0.26547
3147.67702,0.26429
3145.74830,0.26327
3143.81957,0.26242
3141.89085,0.26157
3139.96213,0.26062
3138.03340,0.25951
3136.10468,0.25833
3134.17596,0.25725
3132.24723,0.25632
3130.31851,0.25538
3128.38978,0.25427
3126.46106,0.25308
3124.53234,0.25205
3122.60361,0.25118
3120.67489,0.25039
3118.74617,0.24958
3116.81744,0.24857
3114.88872,0.24741
3112.96000,0.24639
3111.03127,0.24546
3109.10255,0.24434
3107.17382,0.24303
3105.24510,0.24171
3103.31638,0.24050
3101.38765,0.23938
3099.45893,0.23828
3097.53021,0.23714
3095.60148,0.23606
3093.67276,0.23500
3091.74404,0.23383
3089.81531,0.23260
3087.88659,0.23142
3085.95786,0.23029
3084.02914,0.22908
3082.10042,0.22778
3080.17169,0.22653
3078.24297,0.22537
3076.31425,0.22413
3074.38552,0.22279
3072.45680,0.22153
3070.52807,0.22042
3068.59935,0.21929
3066.67063,0.21803
3064.74190,0.21676
3062.81318,0.21552
3060.88446,0.21429
3058.95573,0.21300
3057.02701,0.21171
3055.09829,0.21051
3053.16956,0.20938
3051.24084,0.20825
3049.31211,0.20710
3047.38339,0.20603
3045.45467,0.20507
3043.52594,0.20404
3041.59722,0.20284
3039.66850,0.20156
3037.73977,0.20036
3035.81105,0.19924
3033.88233,0.19813
3031.95360,0.19704
3030.02488,0.19599
3028.09615,0.19500
3026.16743,0.19410
3024.23871,0.19319
3022.30998,0.19212
3020.38126,0.19102
3018.45254,0.19004
3016.52381,0.18914
3014.59509,0.18831
3012.66636,0.18750
3010.73764,0.18668
3008.80892,0.18585
3006.88019,0.18502
3004.95147,0.18413
3003.02275,0.18318
3001.09402,0.18235
2999.16530,0.18171
2997.23658,0.18114
2995.30785,0.18053
2993.37913,0.17997
2991.45040,0.17951
2989.52168,0.17900
2987.59296,0.17841
2985.66423,0.17791
2983.73551,0.17760
2981.80679,0.17752
2979.87806,0.17762
2977.94934,0.17777
2976.02062,0.17796
2974.09189,0.17813
2972.16317,0.17830
2970.23444,0.17852
2968.30572,0.17880
2966.37700,0.17912
2964.44827,0.17948
2962.51955,0.17973
2960.59083,0.17972
2958.66210,0.17943
2956.73338,0.17890
2954.80466,0.17824
2952.87593,0.17761
2950.94721,0.17717
2949.01848,0.17708
2947.08976,0.17728
2945.16104,0.17769
2943.23231,0.17834
2941.30359,0.17924
2939.37487,0.18036
2937.44614,0.18167
2935.51742,0.18304
2933.58869,0.18425
2931.65997,0.18528
2929.73125,0.18619
2927.80252,0.18682
2925.87380,0.18691
2923.94508,0.18632
2922.01635,0.18503
2920.08763,0.18309
2918.15891,0.18049
2916.23018,0.17718
2914.30146,0.17337
2912.37273,0.16957
2910.44401,0.16620
2908.51529,0.16336
2906.58656,0.16087
2904.65784,0.15865
2902.72912,0.15673
2900.80039,0.15505
2898.87167,0.15339
2896.94295,0.15164
2895.01422,0.14987
2893.08550,0.14817
2891.15677,0.14666
2889.22805,0.14526
2887.29933,0.14384
2885.37060,0.14240
2883.44188,0.14113
2881.51316,0.14016
2879.58443,0.13944
2877.65571,0.13882
2875.72698,0.13823
2873.79826,0.13751
2871.86954,0.13664
2869.94081,0.13582
2868.01209,0.13514
2866.08337,0.13472
2864.15464,0.13471
2862.22592,0.13514
2860.29720,0.13600
2858.36847,0.13710
2856.43975,0.13812
2854.51102,0.13864
2852.58230,0.13815
2850.65358,0.13611
2848.72485,0.13249
2846.79613,0.12794
2844.86741,0.12349
2842.93868,0.11976
2841.00996,0.11675
2839.08124,0.11412
2837.15251,0.11173
2835.22379,0.10969
2833.29506,0.10805
2831.36634,0.10656
2829.43762,0.10505
2827.50889,0.10367
2825.58017,0.10248
2823.65145,0.10128
2821.72272,0.10008
2819.79400,0.09899
2817.86527,0.09806
2815.93655,0.09711
2814.00783,0.09604
2812.07910,0.09500
2810.15038,0.09407
2808.22166,0.09320
2806.29293,0.09235
2804.36421,0.09150
2802.43549,0.09060
2800.50676,0.08962
2798.57804,0.08868
2796.64931,0.08787
2794.72059,0.08713
2792.79187,0.08638
2790.86314,0.08562
2788.93442,0.08482
2787.00570,0.08394
2785.07697,0.08303
2783.14825,0.08218
2781.21953,0.08138
2779.29080,0.08056
2777.36208,0.07981
2775.43335,0.07911
2773.50463,0.07833
2771.57591,0.07751
2769.64718,0.07678
2767.71846,0.07614
2765.78974,0.07554
2763.86101,0.07495
2761.93229,0.07429
2760.00356,0.07361
2758.07484,0.07297
2756.14612,0.07229
2754.21739,0.07149
2752.28867,0.07063
2750.35995,0.06992
2748.43122,0.06937
2746.50250,0.06869
2744.57378,0.06781
2742.64505,0.06704
2740.71633,0.06654
2738.78760,0.06611
2736.85888,0.06556
2734.93016,0.06490
2733.00143,0.06416
2731.07271,0.06346
2729.14399,0.06292
2727.21526,0.06244
2725.28654,0.06187
2723.35782,0.06122
2721.42909,0.06056
2719.50037,0.05987
2717.57164,0.05915
2715.64292,0.05849
2713.71420,0.05790
2711.78547,0.05730
2709.85675,0.05670
2707.92803,0.05610
2705.99930,0.05548
2704.07058,0.05491
2702.14185,0.05445
2700.21313,0.05397
2698.28441,0.05334
2696.35568,0.05260
2694.42696,0.05191
2692.49824,0.05143
2690.56951,0.05102
2688.64079,0.05048
2686.71207,0.04991
2684.78334,0.04940
2682.85462,0.04890
2680.92589,0.04834
2678.99717,0.04769
2677.06845,0.04708
2675.13972,0.04660
2673.21100,0.04616
2671.28228,0.04569
2669.35355,0.04518
2667.42483,0.04466
2665.49611,0.04412
2663.56738,0.04363
2661.63866,0.04320
2659.70993,0.04270
2657.78121,0.04207
2655.85249,0.04150
2653.92376,0.04112
2651.99504,0.04073
2650.06632,0.04015
2648.13759,0.03955
2646.20887,0.03905
2644.28014,0.03864
2642.35142,0.03824
2640.42270,0.03786
2638.49397,0.03746
2636.56525,0.03702
2634.63653,0.03656
2632.70780,0.03609
2630.77908,0.03559
2628.85036,0.03501
2626.92163,0.03438
2624.99291,0.03389
2623.06418,0.03354
2621.13546,0.03320
2619.20674,0.03283
2617.27801,0.03243
2615.34929,0.03200
2613.42057,0.03157
2611.49184,0.03111
2609.56312,0.03056
2607.63440,0.03008
2605.70567,0.02978
2603.77695,0.02950
2601.84822,0.02909
2599.91950,0.02861
2597.99078,0.02821
2596.06205,0.02787
2594.13333,0.02748
2592.20461,0.02706
2590.27588,0.02668
2588.34716,0.02632
2586.41843,0.02596
2584.48971,0.02563
2582.56099,0.02524
2580.63226,0.02481
2578.70354,0.02450
2576.77482,0.02428
2574.84609,0.02400
2572.91737,0.02369
2570.98865,0.02339
2569.05992,0.02310
2567.13120,0.02280
2565.20247,0.02247
2563.27375,0.02212
2561.34503,0.02187
2559.41630,0.02169
2557.48758,0.02142
2555.55886,0.02108
2553.63013,0.02076
2551.70141,0.02052
2549.77269,0.02032
2547.84396,0.02001
2545.91524,0.01958
2543.98651,0.01921
2542.05779,0.01897
2540.12907,0.01879
2538.20034,0.01866
2536.27162,0.01853
2534.34290,0.01833
2532.41417,0.01808
2530.48545,0.01788
2528.55673,0.01768
2526.62800,0.01742
2524.69928,0.01712
2522.77055,0.01681
2520.84183,0.01653
2518.91311,0.01629
2516.98438,0.01604
2515.05566,0.01578
2513.12694,0.01551
2511.19821,0.01523
2509.26949,0.01494
2507.34076,0.01470
2505.41204,0.01454
2503.48332,0.01442
2501.55459,0.01420
2499.62587,0.01381
2497.69715,0.01343
2495.76842,0.01320
2493.83970,0.01307
2491.91098,0.01291
2489.98225,0.01273
2488.05353,0.01257
2486.12480,0.01242
2484.19608,0.01227
2482.26736,0.01208
2480.33863,0.01178
2478.40991,0.01143
2476.48119,0.01119
2474.55246,0.01103
2472.62374,0.01086
2470.69502,0.01070
2468.76629,0.01054
2466.83757,0.01029
2464.90884,0.01000
2462.98012,0.00976
2461.05140,0.00957
2459.12267,0.00931
2457.19395,0.00904
2455.26523,0.00897
2453.33650,0.00901
2451.40778,0.00892
2449.47905,0.00868
2447.55033,0.00842
2445.62161,0.00817
2443.69288,0.00799
2441.76416,0.00792
2439.83544,0.00782
2437.90671,0.00760
2435.97799,0.00732
2434.04927,0.00706
2432.12054,0.00690
2430.19182,0.00684
2428.26309,0.00671
2426.33437,0.00645
2424.40565,0.00621
2422.47692,0.00605
2420.54820,0.00595
2418.61948,0.00590
2416.69075,0.00583
2414.76203,0.00568
2412.83331,0.00545
2410.90458,0.00521
2408.97586,0.00505
2407.04713,0.00494
2405.11841,0.00483
2403.18969,0.00470
2401.26096,0.00457
2399.33224,0.00441
2397.40352,0.00424
2395.47479,0.00405
2393.54607,0.00386
2391.61734,0.00371
2389.68862,0.00362
2387.75990,0.00356
2385.83117,0.00354
2383.90245,0.00355
2381.97373,0.00355
2380.04500,0.00357
2378.11628,0.00362
2376.18756,0.00366
2374.25883,0.00363
2372.33011,0.00363
2370.40138,0.00375
2368.47266,0.00392
2366.54394,0.00397
2364.61521,0.00384
2362.68649,0.00356
2360.75777,0.00328
2358.82904,0.00326
2356.90032,0.00341
2354.97160,0.00333
2353.04287,0.00284
2351.11415,0.00234
2349.18542,0.00223
2347.25670,0.00242
2345.32798,0.00257
2343.39925,0.00262
2341.47053,0.00271
2339.54181,0.00274
2337.61308,0.00262
2335.68436,0.00242
2333.75563,0.00221
2331.82691,0.00202
2329.89819,0.00192
2327.96946,0.00187
2326.04074,0.00183
2324.11202,0.00184
2322.18329,0.00191
2320.25457,0.00188
2318.32585,0.00172
2316.39712,0.00153
2314.46840,0.00136
2312.53967,0.00119
2310.61095,0.00104
2308.68223,0.00098
2306.75350,0.00094
2304.82478,0.00088
2302.89606,0.00084
2300.96733,0.00082
2299.03861,0.00082
2297.10989,0.00080
2295.18116,0.00078
2293.25244,0.00071
2291.32371,0.00057
2289.39499,0.00044
2287.46627,0.00037
2285.53754,0.00038
2283.60882,0.00040
2281.68010,0.00039
2279.75137,0.00037
2277.82265,0.00040
2275.89392,0.00044
2273.96520,0.00042
2272.03648,0.00033
2270.10775,0.00027
2268.17903,0.00026
2266.25031,0.00021
2264.32158,0.00016
2262.39286,0.00016
2260.46414,0.00018
2258.53541,0.00016
2256.60669,0.00017
2254.67796,0.00018
2252.74924,0.00014
2250.82052,0.00009
2248.89179,0.00004
2246.96307,-0.00003
2245.03435,-0.00007
2243.10562,-0.00004
2241.17690,-0.00002
2239.24818,-0.00003
2237.31945,0.00000
2235.39073,0.00001
2233.46200,-0.00004
2231.53328,-0.00005
2229.60456,-0.00003
2227.67583,-0.00001
2225.74711,0.00004
2223.81839,0.00007
2221.88966,0.00008
2219.96094,0.00009
2218.03221,0.00010
2216.10349,0.00006
2214.17477,-0.00001
2212.24604,-0.00002
2210.31732,-0.00003
2208.38860,-0.00003
2206.45987,0.00000
2204.53115,0.00007
2202.60243,0.00013
2200.67370,0.00015
2198.74498,0.00018
2196.81625,0.00021
2194.88753,0.00017
2192.95881,0.00007
2191.03008,0.00000
2189.10136,0.00004
2187.17264,0.00011
2185.24391,0.00015
2183.31519,0.00017
2181.38647,0.00017
2179.45774,0.00015
2177.52902,0.00015
2175.60029,0.00027
2173.67157,0.00044
2171.74285,0.00050
2169.81412,0.00041
2167.88540,0.00029
2165.95668,0.00026
2164.02795,0.00034
2162.09923,0.00043
2160.17050,0.00049
2158.24178,0.00050
2156.31306,0.00046
2154.38433,0.00039
2152.45561,0.00037
2150.52689,0.00044
2148.59816,0.00053
2146.66944,0.00061
2144.74072,0.00067
2142.81199,0.00065
2140.88327,0.00051
2138.95454,0.00041
2137.02582,0.00043
2135.09710,0.00051
2133.16837,0.00050
2131.23965,0.00043
2129.31093,0.00042
2127.38220,0.00042
2125.45348,0.00039
2123.52476,0.00040
2121.59603,0.00041
2119.66731,0.00038
2117.73858,0.00035
2115.80986,0.00033
2113.88114,0.00026
2111.95241,0.00015
2110.02369,0.00004
2108.09497,0.00002
2106.16624,0.00007
2104.23752,0.00003
2102.30880,-0.00006
2100.38007,-0.00003
2098.45135,0.00002
2096.52262,0.00003
2094.59390,0.00000
2092.66518,-0.00007
2090.73645,-0.00016
2088.80773,-0.00023
2086.87901,-0.00030
2084.95028,-0.00038
2083.02156,-0.00045
2081.09283,-0.00046
2079.16411,-0.00043
2077.23539,-0.00040
2075.30666,-0.00040
2073.37794,-0.00038
2071.44922,-0.00034
2069.52049,-0.00030
2067.59177,-0.00026
2065.66305,-0.00026
2063.73432,-0.00030
2061.80560,-0.00028
2059.87687,-0.00014
2057.94815,0.00006
2056.01943,0.00018
2054.09070,0.00022
2052.16198,0.00028
2050.23326,0.00043
2048.30453,0.00061
2046.37581,0.00075
2044.44709,0.00089
2042.51836,0.00110
2040.58964,0.00137
2038.66091,0.00166
2036.73219,0.00195
2034.80347,0.00224
2032.87474,0.00247
2030.94602,0.00261
2029.01730,0.00277
2027.08857,0.00299
2025.15985,0.00320
2023.23112,0.00335
2021.30240,0.00352
2019.37368,0.00374
2017.44495,0.00392
2015.51623,0.00406
2013.58751,0.00419
2011.65878,0.00432
2009.73006,0.00444
2007.80134,0.00449
2005.87261,0.00451
2003.94389,0.00461
2002.01516,0.00476
2000.08644,0.00480
1998.15772,0.00470
1996.22899,0.00457
1994.30027,0.00452
1992.37155,0.00460
1990.44282,0.00468
1988.51410,0.00461
1986.58538,0.00447
1984.65665,0.00436
1982.72793,0.00429
1980.79920,0.00426
1978.87048,0.00423
1976.94176,0.00405
1975.01303,0.00377
1973.08431,0.00353
1971.15559,0.00340
1969.22686,0.00328
1967.29814,0.00311
1965.36941,0.00291
1963.44069,0.00276
1961.51197,0.00262
1959.58324,0.00243
1957.65452,0.00221
1955.72580,0.00201
1953.79707,0.00178
1951.86835,0.00150
1949.93963,0.00123
1948.01090,0.00100
1946.08218,0.00086
1944.15345,0.00078
1942.22473,0.00063
1940.29601,0.00042
1938.36728,0.00028
1936.43856,0.00025
1934.50984,0.00024
1932.58111,0.00018
1930.65239,0.00008
1928.72367,-0.00002
1926.79494,0.00001
1924.86622,0.00018
1922.93749,0.00040
1921.00877,0.00054
1919.08005,0.00062
1917.15132,0.00072
1915.22260,0.00096
1913.29388,0.00143
1911.36515,0.00204
1909.43643,0.00256
1907.50770,0.00295
1905.57898,0.00340
1903.65026,0.00397
1901.72153,0.00454
1899.79281,0.00509
1897.86409,0.00565
1895.93536,0.00618
1894.00664,0.00670
1892.07792,0.00726
1890.14919,0.00785
1888.22047,0.00833
1886.29174,0.00860
1884.36302,0.00880
1882.43430,0.00907
1880.50557,0.00942
1878.57685,0.00974
1876.64813,0.00991
1874.71940,0.00994
1872.79068,0.00997
1870.86196,0.01004
1868.93323,0.00990
1867.00451,0.00947
1865.07578,0.00898
1863.14706,0.00856
1861.21834,0.00812
1859.28961,0.00762
1857.36089,0.00707
1855.43217,0.00648
1853.50344,0.00588
1851.57472,0.00529
1849.64599,0.00473
1847.71727,0.00424
1845.78855,0.00379
1843.85982,0.00321
1841.93110,0.00258
1840.00238,0.00212
1838.07365,0.00177
1836.14493,0.00142
1834.21621,0.00114
1832.28748,0.00098
1830.35876,0.00084
1828.43003,0.00064
1826.50131,0.00038
1824.57259,0.00014
1822.64386,0.00000
1820.71514,-0.00004
1818.78642,-0.00005
1816.85769,-0.00005
1814.92897,0.00000
1813.00025,-0.00011
1811.07152,-0.00014
1809.14280,-0.00008
1807.21407,0.00003
1805.28535,0.00015
1803.35663,0.00029
1801.42790,0.00054
1799.49918,0.00092
1797.57046,0.00135
1795.64173,0.00177
1793.71301,0.00224
1791.78428,0.00279
1789.85556,0.00333
1787.92684,0.00388
1785.99811,0.00455
1784.06939,0.00535
1782.14067,0.00619
1780.21194,0.00705
1778.28322,0.00791
1776.35450,0.00878
1774.42577,0.00979
1772.49705,0.01093
1770.56832,0.01196
1768.63960,0.01277
1766.71088,0.01347
1764.78215,0.01423
1762.85343,0.01517
1760.92471,0.01622
1758.99598,0.01725
1757.06726,0.01838
1755.13854,0.01965
1753.20981,0.02101
1751.28109,0.02253
1749.35236,0.02414
1747.42364,0.02568
1745.49492,0.02723
1743.56619,0.02898
1741.63747,0.03098
1739.70875,0.03311
1737.78002,0.03515
1735.85130,0.03718
1733.92257,0.03943
1731.99385,0.04157
1730.06513,0.04332
1728.13640,0.04497
1726.20768,0.04664
1724.27896,0.04844
1722.35023,0.05033
1720.42151,0.05234
1718.49279,0.05462
1716.56406,0.05702
1714.63534,0.05916
1712.70661,0.06108
1710.77789,0.06297
1708.84917,0.06497
1706.92044,0.06737
1704.99172,0.07014
1703.06300,0.07296
1701.13427,0.07612
1699.20555,0.07991
1697.27683,0.08390
1695.34810,0.08788
1693.41938,0.09138
1691.49065,0.09454
1689.56193,0.09795
1687.63321,0.10156
1685.70448,0.10566
1683.77576,0.11058
1681.84704,0.11501
1679.91831,0.11839
1677.98959,0.12163
1676.06087,0.12532
1674.13214,0.12917
1672.20342,0.13270
1670.27469,0.13623
1668.34597,0.13976
1666.41725,0.14268
1664.48852,0.14531
1662.55980,0.14812
1660.63108,0.15073
1658.70235,0.15275
1656.77363,0.15446
1654.84490,0.15639
1652.91618,0.15857
1650.98746,0.16011
1649.05873,0.16108
1647.13001,0.16220
1645.20129,0.16333
1643.27256,0.16408
1641.34384,0.16458
1639.41512,0.16501
1637.48639,0.16531
1635.55767,0.16533
1633.62894,0.16507
1631.70022,0.16458
1629.77150,0.16382
1627.84277,0.16277
1625.91405,0.16144
1623.98533,0.15962
1622.05660,0.15732
1620.12788,0.15496
1618.19916,0.15233
1616.27043,0.14905
1614.34171,0.14581
1612.41298,0.14303
1610.48426,0.14013
1608.55554,0.13689
1606.62681,0.13371
1604.69809,0.13079
1602.76937,0.12791
1600.84064,0.12501
1598.91192,0.12228
1596.98319,0.11970
1595.05447,0.11714
1593.12575,0.11460
1591.19702,0.11215
1589.26830,0.10976
1587.33958,0.10741
1585.41085,0.10520
1583.48213,0.10321
1581.55341,0.10147
1579.62468,0.09990
1577.69596,0.09822
1575.76723,0.09633
1573.83851,0.09478
1571.90979,0.09364
1569.98106,0.09242
1568.05234,0.09111
1566.12362,0.09008
1564.19489,0.08941
1562.26617,0.08900
1560.33745,0.08840
1558.40872,0.08712
1556.48000,0.08582
1554.55127,0.08496
1552.62255,0.08414
1550.69383,0.08306
1548.76510,0.08189
1546.83638,0.08086
1544.90766,0.07989
1542.97893,0.07861
1541.05021,0.07666
1539.12148,0.07436
1537.19276,0.07271
1535.26404,0.07144
1533.33531,0.06969
1531.40659,0.06759
1529.47787,0.06566
1527.54914,0.06375
1525.62042,0.06170
1523.69170,0.05953
1521.76297,0.05710
1519.83425,0.05472
1517.90552,0.05273
1515.97680,0.05078
1514.04808,0.04882
1512.11935,0.04704
1510.19063,0.04522
1508.26191,0.04243
1506.33318,0.03834
1504.40446,0.03490
1502.47574,0.03284
1500.54701,0.03108
1498.61829,0.02892
1496.68956,0.02660
1494.76084,0.02481
1492.83212,0.02377
1490.90339,0.02297
1488.97467,0.02211
1487.04595,0.02146
1485.11722,0.02124
1483.18850,0.02145
1481.25977,0.02204
1479.33105,0.02297
1477.40233,0.02430
1475.47360,0.02637
1473.54488,0.02947
1471.61616,0.03294
1469.68743,0.03557
1467.75871,0.03733
1465.82999,0.03870
1463.90126,0.03979
1461.97254,0.04066
1460.04381,0.04150
1458.11509,0.04240
1456.18637,0.04307
1454.25764,0.04337
1452.32892,0.04351
1450.40020,0.04366
1448.47147,0.04384
1446.54275,0.04402
1444.61403,0.04429
1442.68530,0.04465
1440.75658,0.04507
1438.82785,0.04553
1436.89913,0.04600
1434.97041,0.04640
1433.04168,0.04678
1431.11296,0.04734
1429.18424,0.04807
1427.25551,0.04875
1425.32679,0.04940
1423.39806,0.05019
1421.46934,0.05112
1419.54062,0.05214
1417.61189,0.05319
1415.68317,0.05414
1413.75445,0.05508
1411.82572,0.05619
1409.89700,0.05753
1407.96828,0.05895
1406.03955,0.06028
1404.11083,0.06131
1402.18210,0.06179
1400.25338,0.06149
1398.32466,0.06025
1396.39593,0.05822
1394.46721,0.05573
1392.53849,0.05326
1390.60976,0.05115
1388.68104,0.04931
1386.75232,0.04763
1384.82359,0.04614
1382.89487,0.04477
1380.96614,0.04339
1379.03742,0.04193
1377.10870,0.04034
1375.17997,0.03866
1373.25125,0.03703
1371.32253,0.03559
1369.39380,0.03426
1367.46508,0.03293
1365.53635,0.03159
1363.60763,0.03020
1361.67891,0.02879
1359.75018,0.02753
1357.82146,0.02650
1355.89274,0.02566
1353.96401,0.02493
1352.03529,0.02423
1350.10657,0.02352
1348.17784,0.02281
1346.24912,0.02224
1344.32039,0.02185
1342.39167,0.02150
1340.46295,0.02104
1338.53422,0.02060
1336.60550,0.02030
1334.67678,0.02009
1332.74805,0.01990
1330.81933,0.01975
1328.89061,0.01962
1326.96188,0.01950
1325.03316,0.01950
1323.10443,0.01961
1321.17571,0.01980
1319.24699,0.02008
1317.31826,0.02039
1315.38954,0.02060
1313.46082,0.02074
1311.53209,0.02101
1309.60337,0.02145
1307.67464,0.02200
1305.74592,0.02266
1303.81720,0.02346
1301.88847,0.02431
1299.95975,0.02518
1298.03103,0.02624
1296.10230,0.02755
1294.17358,0.02903
1292.24486,0.03071
1290.31613,0.03271
1288.38741,0.03502
1286.45868,0.03756
1284.52996,0.04030
1282.60124,0.04328
1280.67251,0.04660
1278.74379,0.05032
1276.81507,0.05434
1274.88634,0.05854
1272.95762,0.06306
1271.02890,0.06822
1269.10017,0.07414
1267.17145,0.08078
1265.24272,0.08819
1263.31400,0.09645
1261.38528,0.10564
1259.45655,0.11587
1257.52783,0.12688
1255.59911,0.13843
1253.67038,0.15044
1251.74166,0.16262
1249.81294,0.17456
1247.88421,0.18608
1245.95549,0.19694
1244.02676,0.20689
1242.09804,0.21598
1240.16932,0.22433
1238.24059,0.23190
1236.31187,0.23866
1234.38315,0.24465
1232.45442,0.24990
1230.52570,0.25461
1228.59697,0.25908
1226.66825,0.26323
1224.73953,0.26698
1222.81080,0.27047
1220.88208,0.27367
1218.95336,0.27665
1217.02463,0.27956
1215.09591,0.28231
1213.16719,0.28488
1211.23846,0.28753
1209.30974,0.29027
1207.38101,0.29269
1205.45229,0.29461
1203.52357,0.29655
1201.59484,0.29900
1199.66612,0.30161
1197.73740,0.30378
1195.80867,0.30569
1193.87995,0.30774
1191.95123,0.30986
1190.02250,0.31204
1188.09378,0.31423
1186.16505,0.31607
1184.23633,0.31779
1182.30761,0.31993
1180.37888,0.32232
1178.45016,0.32454
1176.52144,0.32664
1174.59271,0.32855
1172.66399,0.33011
1170.73526,0.33165
1168.80654,0.33362
1166.87782,0.33592
1164.94909,0.33812
1163.02037,0.34012
1161.09165,0.34206
1159.16292,0.34388
1157.23420,0.34554
1155.30548,0.34722
1153.37675,0.34906
1151.44803,0.35099
1149.51930,0.35287
1147.59058,0.35470
1145.66186,0.35657
1143.73313,0.35852
1141.80441,0.36056
1139.87569,0.36263
1137.94696,0.36471
1136.01824,0.36694
1134.08952,0.36958
1132.16079,0.37255
1130.23207,0.37585
1128.30334,0.37945
1126.37462,0.38327
1124.44590,0.38725
1122.51717,0.39128
1120.58845,0.39573
1118.65973,0.40103
1116.73100,0.40689
1114.80228,0.41291
1112.87355,0.41957
1110.94483,0.42689
1109.01611,0.43418
1107.08738,0.44166
1105.15866,0.44923
1103.22994,0.45562
1101.30121,0.46056
1099.37249,0.46504
1097.44377,0.46921
1095.51504,0.47250
1093.58632,0.47479
1091.65759,0.47614
1089.72887,0.47669
1087.80015,0.47634
1085.87142,0.47533
1083.94270,0.47405
1082.01398,0.47227
1080.08525,0.46991
1078.15653,0.46707
1076.22781,0.46368
1074.29908,0.45968
1072.37036,0.45499
1070.44163,0.45010
1068.51291,0.44575
1066.58419,0.44122
1064.65546,0.43582
1062.72674,0.43047
1060.79802,0.42519
1058.86929,0.41917
1056.94057,0.41247
1055.01184,0.40521
1053.08312,0.39752
1051.15440,0.38975
1049.22567,0.38187
1047.29695,0.37368
1045.36823,0.36564
1043.43950,0.35777
1041.51078,0.34940
1039.58206,0.34070
1037.65333,0.33229
1035.72461,0.32391
1033.79588,0.31500
1031.86716,0.30589
1029.93844,0.29733
1028.00971,0.28956
1026.08099,0.28216
1024.15227,0.27474
1022.22354,0.26729
1020.29482,0.25999
1018.36610,0.25326
1016.43737,0.24730
1014.50865,0.24163
1012.57992,0.23599
1010.65120,0.23074
1008.72248,0.22582
1006.79375,0.22096
1004.86503,0.21617
1002.93631,0.21157
1001.00758,0.20727
999.07886,0.20322
997.15013,0.19928
995.22141,0.19564
993.29269,0.19226
991.36396,0.18866
989.43524,0.18493
987.50652,0.18171
985.57779,0.17923
983.64907,0.17718
981.72035,0.17531
979.79162,0.17371
977.86290,0.17241
975.93417,0.17134
974.00545,0.17062
972.07673,0.17030
970.14800,0.17011
968.21928,0.16979
966.29056,0.16944
964.36183,0.16923
962.43311,0.16900
960.50439,0.16846
958.57566,0.16757
956.64694,0.16669
954.71821,0.16608
952.78949,0.16535
950.86077,0.16417
948.93204,0.16272
947.00332,0.16109
945.07460,0.15919
943.14587,0.15721
941.21715,0.15503
939.28842,0.15254
937.35970,0.15009
935.43098,0.14762
933.50225,0.14486
931.57353,0.14195
929.64481,0.13888
927.71608,0.13536
925.78736,0.13158
923.85864,0.12803
921.92991,0.12473
920.00119,0.12133
918.07246,0.11756
916.14374,0.11344
914.21502,0.10933
912.28629,0.10549
910.35757,0.10164
908.42885,0.09751
906.50012,0.09336
904.57140,0.08939
902.64268,0.08563
900.71395,0.08212
898.78523,0.07858
896.85650,0.07488
894.92778,0.07129
892.99906,0.06778
891.07033,0.06411
889.14161,0.06041
887.21289,0.05695
885.28416,0.05401
883.35544,0.05147
881.42671,0.04885
879.49799,0.04594
877.56927,0.04308
875.64054,0.04076
873.71182,0.03897
871.78310,0.03729
869.85437,0.03540
867.92565,0.03347
865.99693,0.03167
864.06820,0.02981
862.13948,0.02786
860.21075,0.02605
858.28203,0.02442
856.35331,0.02301
854.42458,0.02221
852.49586,0.02196
850.56714,0.02195
848.63841,0.02232
846.70969,0.02318
844.78097,0.02438
842.85224,0.02598
840.92352,0.02812
838.99479,0.03082
837.06607,0.03387
835.13735,0.03710
833.20862,0.04057
831.27990,0.04451
829.35118,0.04879
827.42245,0.05287
825.49373,0.05653
823.56501,0.05999
821.63628,0.06320
819.70756,0.06645
817.77883,0.07025
815.85011,0.07418
813.92139,0.07737
811.99266,0.07974
810.06394,0.08177
808.13522,0.08381
806.20649,0.08589
804.27777,0.08797
802.34904,0.08998
800.42032,0.09152
798.49160,0.09196
796.56287,0.09128
794.63415,0.09027
792.70543,0.08920
790.77670,0.08767
788.84798,0.08568
786.91926,0.08317
784.99053,0.07988
783.06181,0.07622
781.13308,0.07270
779.20436,0.06885
777.27564,0.06414
775.34691,0.05932
773.41819,0.05555
771.48947,0.05270
769.56074,0.04996
767.63202,0.04740
765.70330,0.04551
763.77457,0.04428
761.84585,0.04351
759.91712,0.04301
757.98840,0.04253
756.05968,0.04199
754.13095,0.04141
752.20223,0.04100
750.27351,0.04101
748.34478,0.04109
746.41606,0.04087
744.48733,0.04040
742.55861,0.03985
740.62989,0.03947
738.70116,0.03926
736.77244,0.03906
734.84372,0.03906
732.91499,0.03937
730.98627,0.03961
729.05755,0.03959
727.12882,0.03967
725.20010,0.03996
723.27137,0.04013
721.34265,0.04023
719.41393,0.04052
717.48520,0.04115
715.55648,0.04194
713.62776,0.04265
711.69903,0.04319
709.77031,0.04365
707.84159,0.04413
705.91286,0.04464
703.98414,0.04522
702.05541,0.04591
700.12669,0.04661
698.19797,0.04738
696.26924,0.04842
694.34052,0.04957
692.41180,0.05040
690.48307,0.05066
688.55435,0.05057
686.62562,0.05045
684.69690,0.05049
682.76818,0.05074
680.83945,0.05082
678.91073,0.05038
676.98201,0.04998
675.05328,0.05030
673.12456,0.05106
671.19584,0.05148
669.26711,0.05141
667.33839,0.05147
665.40966,0.05211
663.48094,0.05287
661.55222,0.05325
659.62349,0.05350
657.69477,0.05425
655.76605,0.05570
653.83732,0.05737
651.90860,0.05857
649.97988,0.05944
648.05115,0.06070
646.12243,0.06224
644.19370,0.06353
642.26498,0.06478
640.33626,0.06656
638.40753,0.06835
636.47881,0.06942
634.55009,0.07011
632.62136,0.07095
630.69264,0.07200
628.76391,0.07327
626.83519,0.07472
624.90647,0.07598
622.97774,0.07720
621.04902,0.07846
619.12030,0.07940
617.19157,0.07989
615.26285,0.08052
613.33413,0.08205
611.40540,0.08407
609.47668,0.08520
607.54795,0.08550
605.61923,0.08679
603.69051,0.08937
601.76178,0.09162
599.83306,0.09275
597.90434,0.09365
595.97561,0.09525
594.04689,0.09706
592.11817,0.09834
590.18944,0.09925
588.26072,0.10021
586.33199,0.10130
584.40327,0.10222
582.47455,0.10291
580.54582,0.10360
578.61710,0.10420
576.68838,0.10454
574.75965,0.10448
572.83093,0.10417
570.90220,0.10453
568.97348,0.10574
567.04476,0.10672
565.11603,0.10687
563.18731,0.10662
561.25859,0.10662
559.32986,0.10704
557.40114,0.10774
555.47242,0.10858
553.54369,0.10930
551.61497,0.10966
549.68624,0.10979
547.75752,0.11038
545.82880,0.11153
543.90007,0.11253
541.97135,0.11288
540.04263,0.11212
538.11390,0.11037
536.18518,0.10862
534.25646,0.10795
532.32773,0.10901
530.39901,0.11133
528.47028,0.11299
526.54156,0.11241
524.61284,0.11053
522.68411,0.10944
520.75539,0.10941
518.82667,0.10973
516.89794,0.11048
514.96922,0.11232
513.04049,0.11539
511.11177,0.11845
509.18305,0.12101
507.25432,0.12516
505.32560,0.13155
503.39688,0.13768
501.46815,0.14260
499.53943,0.14827
497.61071,0.15590
495.68198,0.16470
493.75326,0.17411
491.82453,0.18339
489.89581,0.19155
487.96709,0.19964
486.03836,0.20847
484.10964,0.21632
482.18092,0.22279
480.25219,0.23021
478.32347,0.23895
476.39475,0.24744
474.46602,0.25577
472.53730,0.26277
470.60857,0.26547
468.67985,0.26491
466.75113,0.26371
464.82240,0.26263
462.89368,0.26277
460.96496,0.26421
459.03623,0.26254
457.10751,0.25383
455.17878,0.24290
453.25006,0.23619
451.32134,0.23191
449.39261,0.22400
447.46389,0.21272
445.53517,0.20428
443.60644,0.19966
441.67772,0.19528
439.74900,0.19096
437.82027,0.18789
435.89155,0.18504
433.96282,0.17991
432.03410,0.17137
430.10538,0.16174
428.17665,0.15389
426.24793,0.14817
424.31921,0.14509
422.39048,0.14527
420.46176,0.14505
418.53304,0.13898
416.60431,0.12737
414.67559,0.11413
412.74686,0.10314
410.81814,0.09710
408.88942,0.09285
406.96069,0.08583
405.03197,0.07811
403.10325,0.07474
401.17452,0.07745
399.24580,0.08097
397.31708,0.07432
395.38835,0.05887
393.45963,0.05020
391.53090,0.05160
389.60218,0.05634
387.67346,0.06113
385.74473,0.06100
383.81601,0.04873
381.88729,0.03328
379.95856,0.03606
378.02984,0.06928
376.10111,0.11819
374.17239,0.13093
372.24367,0.08485
370.31494,0.02898
368.38622,0.00000
