3996.31543,0.00000
3994.38671,0.00036
3992.45799,0.00068
3990.52926,0.00079
3988.60054,0.00075
3986.67182,0.00074
3984.74309,0.00083
3982.81437,0.00091
3980.88564,0.00094
3978.95692,0.00102
3977.02820,0.00117
3975.09947,0.00138
3973.17075,0.00150
3971.24203,0.00148
3969.31330,0.00143
3967.38458,0.00138
3965.45586,0.00125
3963.52713,0.00120
3961.59841,0.00138
3959.66968,0.00165
3957.74096,0.00176
3955.81224,0.00167
3953.88351,0.00149
3951.95479,0.00139
3950.02607,0.00159
3948.09734,0.00198
3946.16862,0.00218
3944.23990,0.00219
3942.31117,0.00228
3940.38245,0.00229
3938.45372,0.00203
3936.52500,0.00167
3934.59628,0.00150
3932.66755,0.00182
3930.73883,0.00234
3928.81011,0.00238
3926.88138,0.00206
3924.95266,0.00198
3923.02393,0.00194
3921.09521,0.00168
3919.16649,0.00170
3917.23776,0.00221
3915.30904,0.00251
3913.38032,0.00225
3911.45159,0.00182
3909.52287,0.00137
3907.59415,0.00081
3905.66542,0.00074
3903.73670,0.00175
3901.80797,0.00308
3899.87925,0.00377
3897.95053,0.00358
3896.02180,0.00264
3894.09308,0.00179
3892.16436,0.00194
3890.23563,0.00238
3888.30691,0.00195
3886.37819,0.00144
3884.44946,0.00166
3882.52074,0.00210
3880.59201,0.00268
3878.66329,0.00296
3876.73457,0.00228
3874.80584,0.00147
3872.87712,0.00140
3870.94840,0.00203
3869.01967,0.00277
3867.09095,0.00287
3865.16222,0.00280
3863.23350,0.00312
3861.30478,0.00299
3859.37605,0.00189
3857.44733,0.00036
3855.51861,0.00000
3853.58988,0.00219
3851.66116,0.00473
3849.73244,0.00461
3847.80371,0.00289
3845.87499,0.00147
3843.94626,0.00100
3842.01754,0.00120
3840.08882,0.00170
3838.16009,0.00243
3836.23137,0.00301
3834.30265,0.00313
3832.37392,0.00303
3830.44520,0.00287
3828.51648,0.00269
3826.58775,0.00242
3824.65903,0.00176
3822.73030,0.00137
3820.80158,0.00223
3818.87286,0.00314
3816.94413,0.00341
3815.01541,0.00376
3813.08669,0.00357
3811.15796,0.00260
3809.22924,0.00191
3807.30052,0.00224
3805.37179,0.00277
3803.44307,0.00304
3801.51434,0.00397
3799.58562,0.00494
3797.65690,0.00503
3795.72817,0.00488
3793.79945,0.00467
3791.87073,0.00426
3789.94200,0.00397
3788.01328,0.00399
3786.08455,0.00430
3784.15583,0.00471
3782.22711,0.00493
3780.29838,0.00532
3778.36966,0.00609
3776.44094,0.00644
3774.51221,0.00601
3772.58349,0.00555
3770.65477,0.00593
3768.72604,0.00693
3766.79732,0.00772
3764.86859,0.00809
3762.93987,0.00804
3761.01115,0.00804
3759.08242,0.00881
3757.15370,0.00953
3755.22498,0.00913
3753.29625,0.00873
3751.36753,0.01034
3749.43881,0.01304
3747.51008,0.01414
3745.58136,0.01472
3743.65263,0.01629
3741.72391,0.01721
3739.79519,0.01673
3737.86646,0.01671
3735.93774,0.01882
3734.00902,0.02216
3732.08029,0.02441
3730.15157,0.02510
3728.22284,0.02554
3726.29412,0.02689
3724.36540,0.02915
3722.43667,0.03164
3720.50795,0.03402
3718.57923,0.03601
3716.65050,0.03739
3714.72178,0.03871
3712.79306,0.04165
3710.86433,0.04674
3708.93561,0.05141
3707.00688,0.05406
3705.07816,0.05600
3703.14944,0.05915
3701.22071,0.06378
3699.29199,0.06812
3697.36327,0.07123
3695.43454,0.07375
3693.50582,0.07629
3691.57710,0.07991
3689.64837,0.08566
3687.71965,0.09191
3685.79092,0.09612
3683.86220,0.09880
3681.93348,0.10148
3680.00475,0.10453
3678.07603,0.10843
3676.14731,0.11453
3674.21858,0.12131
3672.28986,0.12593
3670.36113,0.13042
3668.43241,0.13579
3666.50369,0.13970
3664.57496,0.14231
3662.64624,0.14510
3660.71752,0.14817
3658.78879,0.15140
3656.86007,0.15524
3654.93135,0.15881
3653.00262,0.16084
3651.07390,0.16337
3649.14517,0.16889
3647.21645,0.17488
3645.28773,0.17814
3643.35900,0.17966
3641.43028,0.18130
3639.50156,0.18340
3637.57283,0.18562
3635.64411,0.18779
3633.71539,0.18972
3631.78666,0.19149
3629.85794,0.19460
3627.92921,0.19936
3626.00049,0.20256
3624.07177,0.20326
3622.14304,0.20354
3620.21432,0.20529
3618.28560,0.20838
3616.35687,0.21086
3614.42815,0.21230
3612.49942,0.21358
3610.57070,0.21505
3608.64198,0.21693
3606.71325,0.21900
3604.78453,0.22046
3602.85581,0.22148
3600.92708,0.22281
3598.99836,0.22438
3597.06964,0.22605
3595.14091,0.22804
3593.21219,0.22983
3591.28346,0.23080
3589.35474,0.23192
3587.42602,0.23438
3585.49729,0.23697
3583.56857,0.23825
3581.63985,0.23892
3579.71112,0.23984
3577.78240,0.24103
3575.85368,0.24232
3573.92495,0.24362
3571.99623,0.24459
3570.06750,0.24532
3568.13878,0.24676
3566.21006,0.24901
3564.28133,0.25076
3562.35261,0.25173
3560.42389,0.25263
3558.49516,0.25361
3556.56644,0.25458
3554.63771,0.25575
3552.70899,0.25714
3550.78027,0.25837
3548.85154,0.25935
3546.92282,0.26064
3544.99410,0.26234
3543.06537,0.26371
3541.13665,0.26444
3539.20793,0.26500
3537.27920,0.26585
3535.35048,0.26694
3533.42175,0.26794
3531.49303,0.26879
3529.56431,0.26968
3527.63558,0.27070
3525.70686,0.27184
3523.77814,0.27315
3521.84941,0.27432
3519.92069,0.27514
3517.99197,0.27583
3516.06324,0.27657
3514.13452,0.27741
3512.20579,0.27842
3510.27707,0.27953
3508.34835,0.28044
3506.41962,0.28111
3504.49090,0.28195
3502.56218,0.28319
3500.63345,0.28430
3498.70473,0.28497
3496.77600,0.28561
3494.84728,0.28644
3492.91856,0.28716
3490.98983,0.28778
3489.06111,0.28847
3487.13239,0.28911
3485.20366,0.28956
3483.27494,0.29006
3481.34622,0.29082
3479.41749,0.29152
3477.48877,0.29206
3475.56004,0.29274
3473.63132,0.29349
3471.70260,0.29408
3469.77387,0.29459
3467.84515,0.29504
3465.91643,0.29530
3463.98770,0.29553
3462.05898,0.29609
3460.13026,0.29675
3458.20153,0.29713
3456.27281,0.29750
3454.34408,0.29809
3452.41536,0.29859
3450.48664,0.29879
3448.55791,0.29902
3446.62919,0.29956
3444.70047,0.30012
3442.77174,0.30055
3440.84302,0.30108
3438.91429,0.30157
3436.98557,0.30172
3435.05685,0.30161
3433.12812,0.30175
3431.19940,0.30235
3429.27068,0.30285
3427.34195,0.30291
3425.41323,0.30290
3423.48451,0.30326
3421.55578,0.30380
3419.62706,0.30404
3417.69833,0.30387
3415.76961,0.30371
3413.84089,0.30383
3411.91216,0.30408
3409.98344,0.30438
3408.05472,0.30464
3406.12599,0.30472
3404.19727,0.30467
3402.26855,0.30466
3400.33982,0.30462
3398.41110,0.30443
3396.48237,0.30425
3394.55365,0.30427
3392.62493,0.30452
3390.69620,0.30468
3388.76748,0.30463
3386.83876,0.30453
3384.91003,0.30447
3382.98131,0.30442
3381.05259,0.30422
3379.12386,0.30377
3377.19514,0.30337
3375.26641,0.30325
3373.33769,0.30323
3371.40897,0.30307
3369.48024,0.30278
3367.55152,0.30252
3365.62280,0.30251
3363.69407,0.30256
3361.76535,0.30238
3359.83662,0.30209
3357.90790,0.30188
3355.97918,0.30169
3354.05045,0.30135
3352.12173,0.30091
3350.19301,0.30055
3348.26428,0.30037
3346.33556,0.30021
3344.40684,0.29995
3342.47811,0.29969
3340.54939,0.29943
3338.62066,0.29898
3336.69194,0.29844
3334.76322,0.29811
3332.83449,0.29804
3330.90577,0.29803
3328.97705,0.29779
3327.04832,0.29729
3325.11960,0.29669
3323.19088,0.29612
3321.26215,0.29560
3319.33343,0.29519
3317.40470,0.29491
3315.47598,0.29469
3313.54726,0.29449
3311.61853,0.29440
3309.68981,0.29425
3307.76109,0.29389
3305.83236,0.29346
3303.90364,0.29313
3301.97491,0.29284
3300.04619,0.29264
3298.11747,0.29251
3296.18874,0.29214
3294.26002,0.29143
3292.33130,0.29075
3290.40257,0.29035
3288.47385,0.29013
3286.54513,0.29000
3284.61640,0.28987
3282.68768,0.28953
3280.75895,0.28899
3278.83023,0.28847
3276.90151,0.28804
3274.97278,0.28771
3273.04406,0.28748
3271.11534,0.28724
3269.18661,0.28695
3267.25789,0.28649
3265.32917,0.28584
3263.40044,0.28524
3261.47172,0.28473
3259.54299,0.28423
3257.61427,0.28382
3255.68555,0.28350
3253.75682,0.28308
3251.82810,0.28250
3249.89938,0.28184
3247.97065,0.28120
3246.04193,0.28075
3244.11320,0.28051
3242.18448,0.28025
3240.25576,0.27981
3238.32703,0.27908
3236.39831,0.27818
3234.46959,0.27745
3232.54086,0.27698
3230.61214,0.27646
3228.68342,0.27586
3226.75469,0.27536
3224.82597,0.27483
3222.89724,0.27416
3220.96852,0.27359
3219.03980,0.27311
3217.11107,0.27242
3215.18235,0.27165
3213.25363,0.27101
3211.32490,0.27043
3209.39618,0.26984
3207.46746,0.26919
3205.53873,0.26839
3203.61001,0.26765
3201.68128,0.26702
3199.75256,0.26621
3197.82384,0.26520
3195.89511,0.26425
3193.96639,0.26348
3192.03767,0.26280
3190.10894,0.26212
3188.18022,0.26136
3186.25149,0.26054
3184.32277,0.25974
3182.39405,0.25890
3180.46532,0.25796
3178.53660,0.25702
3176.60788,0.25620
3174.67915,0.25539
3172.75043,0.25453
3170.82171,0.25375
3168.89298,0.25299
3166.96426,0.25205
3165.03553,0.25088
3163.10681,0.24975
3161.17809,0.24888
3159.24936,0.24812
3157.32064,0.24734
3155.39192,0.24655
3153.46319,0.24569
3151.53447,0.24470
3149.60575,0.24369
3147.67702,0.24281
3145.74830,0.24202
3143.81957,0.24120
3141.89085,0.24031
3139.96213,0.23935
3138.03340,0.23829
3136.10468,0.23727
3134.17596,0.23647
3132.24723,0.23574
3130.31851,0.23479
3128.38978,0.23366
3126.46106,0.23266
3124.53234,0.23188
3122.60361,0.23110
3120.67489,0.23019
3118.74617,0.22935
3116.81744,0.22860
3114.88872,0.22772
3112.96000,0.22665
3111.03127,0.22550
3109.10255,0.22434
3107.17382,0.22325
3105.24510,0.22223
3103.31638,0.22120
3101.38765,0.22018
3099.45893,0.21916
3097.53021,0.21805
3095.60148,0.21691
3093.67276,0.21578
3091.74404,0.21457
3089.81531,0.21338
3087.88659,0.21237
3085.95786,0.21151
3084.02914,0.21061
3082.10042,0.20958
3080.17169,0.20844
3078.24297,0.20728
3076.31425,0.20611
3074.38552,0.20494
3072.45680,0.20389
3070.52807,0.20296
3068.59935,0.20196
3066.67063,0.20082
3064.74190,0.19961
3062.81318,0.19842
3060.88446,0.19724
3058.95573,0.19613
3057.02701,0.19500
3055.09829,0.19378
3053.16956,0.19258
3051.24084,0.19144
3049.31211,0.19027
3047.38339,0.18898
3045.45467,0.18762
3043.52594,0.18619
3041.59722,0.18474
3039.66850,0.18329
3037.73977,0.18181
3035.81105,0.18039
3033.88233,0.17904
3031.95360,0.17773
3030.02488,0.17650
3028.09615,0.17546
3026.16743,0.17464
3024.23871,0.17405
3022.30998,0.17341
3020.38126,0.17175
3018.45254,0.16751
3016.52381,0.16197
3014.59509,0.16029
3012.66636,0.16337
3010.73764,0.16621
3008.80892,0.16630
3006.88019,0.16503
3004.95147,0.16367
3003.02275,0.16240
3001.09402,0.16111
2999.16530,0.15992
2997.23658,0.15899
2995.30785,0.15835
2993.37913,0.15811
2991.45040,0.15815
2989.52168,0.15822
2987.59296,0.15835
2985.66423,0.15868
2983.73551,0.15911
2981.80679,0.15924
2979.87806,0.15761
2977.94934,0.15214
2976.02062,0.14547
2974.09189,0.14525
2972.16317,0.15149
2970.23444,0.15660
2968.30572,0.15804
2966.37700,0.15781
2964.44827,0.15731
2962.51955,0.15699
2960.59083,0.15676
2958.66210,0.15655
2956.73338,0.15650
2954.80466,0.15663
2952.87593,0.15677
2950.94721,0.15688
2949.01848,0.15711
2947.08976,0.15750
2945.16104,0.15810
2943.23231,0.15881
2941.30359,0.15951
2939.37487,0.16022
2937.44614,0.16098
2935.51742,0.16178
2933.58869,0.16253
2931.65997,0.16319
2929.73125,0.16365
2927.80252,0.16372
2925.87380,0.16333
2923.94508,0.16259
2922.01635,0.16146
2920.08763,0.15965
2918.15891,0.15717
2916.23018,0.15442
2914.30146,0.15182
2912.37273,0.14945
2910.44401,0.14720
2908.51529,0.14516
2906.58656,0.14339
2904.65784,0.14179
2902.72912,0.14024
2900.80039,0.13874
2898.87167,0.13737
2896.94295,0.13609
2895.01422,0.13474
2893.08550,0.13326
2891.15677,0.13177
2889.22805,0.13039
2887.29933,0.12914
2885.37060,0.12804
2883.44188,0.12711
2881.51316,0.12627
2879.58443,0.12544
2877.65571,0.12466
2875.72698,0.12395
2873.79826,0.12327
2871.86954,0.12254
2869.94081,0.12172
2868.01209,0.12085
2866.08337,0.12012
2864.15464,0.11972
2862.22592,0.11972
2860.29720,0.12004
2858.36847,0.12049
2856.43975,0.12099
2854.51102,0.12127
2852.58230,0.12080
2850.65358,0.11921
2848.72485,0.11665
2846.79613,0.11359
2844.86741,0.11045
2842.93868,0.10754
2841.00996,0.10503
2839.08124,0.10294
2837.15251,0.10114
2835.22379,0.09947
2833.29506,0.09795
2831.36634,0.09664
2829.43762,0.09544
2827.50889,0.09425
2825.58017,0.09309
2823.65145,0.09200
2821.72272,0.09101
2819.79400,0.09017
2817.86527,0.08934
2815.93655,0.08836
2814.00783,0.08735
2812.07910,0.08644
2810.15038,0.08557
2808.22166,0.08466
2806.29293,0.08383
2804.36421,0.08313
2802.43549,0.08243
2800.50676,0.08174
2798.57804,0.08106
2796.64931,0.08031
2794.72059,0.07956
2792.79187,0.07887
2790.86314,0.07812
2788.93442,0.07727
2787.00570,0.07650
2785.07697,0.07580
2783.14825,0.07506
2781.21953,0.07431
2779.29080,0.07359
2777.36208,0.07288
2775.43335,0.07218
2773.50463,0.07151
2771.57591,0.07083
2769.64718,0.07013
2767.71846,0.06943
2765.78974,0.06877
2763.86101,0.06813
2761.93229,0.06750
2760.00356,0.06691
2758.07484,0.06631
2756.14612,0.06560
2754.21739,0.06484
2752.28867,0.06422
2750.35995,0.06379
2748.43122,0.06333
2746.50250,0.06269
2744.57378,0.06202
2742.64505,0.06143
2740.71633,0.06085
2738.78760,0.06026
2736.85888,0.05967
2734.93016,0.05909
2733.00143,0.05849
2731.07271,0.05793
2729.14399,0.05747
2727.21526,0.05693
2725.28654,0.05624
2723.35782,0.05557
2721.42909,0.05495
2719.50037,0.05425
2717.57164,0.05357
2715.64292,0.05309
2713.71420,0.05263
2711.78547,0.05207
2709.85675,0.05150
2707.92803,0.05098
2705.99930,0.05045
2704.07058,0.04987
2702.14185,0.04928
2700.21313,0.04870
2698.28441,0.04812
2696.35568,0.04755
2694.42696,0.04697
2692.49824,0.04634
2690.56951,0.04575
2688.64079,0.04531
2686.71207,0.04493
2684.78334,0.04455
2682.85462,0.04417
2680.92589,0.04376
2678.99717,0.04328
2677.06845,0.04279
2675.13972,0.04233
2673.21100,0.04188
2671.28228,0.04138
2669.35355,0.04082
2667.42483,0.04026
2665.49611,0.03977
2663.56738,0.03935
2661.63866,0.03896
2659.70993,0.03855
2657.78121,0.03808
2655.85249,0.03752
2653.92376,0.03695
2651.99504,0.03647
2650.06632,0.03609
2648.13759,0.03572
2646.20887,0.03527
2644.28014,0.03481
2642.35142,0.03443
2640.42270,0.03404
2638.49397,0.03363
2636.56525,0.03326
2634.63653,0.03285
2632.70780,0.03240
2630.77908,0.03196
2628.85036,0.03149
2626.92163,0.03101
2624.99291,0.03062
2623.06418,0.03029
2621.13546,0.02989
2619.20674,0.02944
2617.27801,0.02901
2615.34929,0.02858
2613.42057,0.02814
2611.49184,0.02773
2609.56312,0.02739
2607.63440,0.02705
2605.70567,0.02667
2603.77695,0.02630
2601.84822,0.02599
2599.91950,0.02569
2597.99078,0.02537
2596.06205,0.02504
2594.13333,0.02467
2592.20461,0.02421
2590.27588,0.02378
2588.34716,0.02345
2586.41843,0.02315
2584.48971,0.02277
2582.56099,0.02239
2580.63226,0.02211
2578.70354,0.02189
2576.77482,0.02166
2574.84609,0.02142
2572.91737,0.02118
2570.98865,0.02089
2569.05992,0.02053
2567.13120,0.02016
2565.20247,0.01984
2563.27375,0.01958
2561.34503,0.01935
2559.41630,0.01910
2557.48758,0.01886
2555.55886,0.01862
2553.63013,0.01831
2551.70141,0.01794
2549.77269,0.01753
2547.84396,0.01716
2545.91524,0.01694
2543.98651,0.01679
2542.05779,0.01659
2540.12907,0.01637
2538.20034,0.01618
2536.27162,0.01596
2534.34290,0.01569
2532.41417,0.01541
2530.48545,0.01517
2528.55673,0.01496
2526.62800,0.01481
2524.69928,0.01469
2522.77055,0.01453
2520.84183,0.01434
2518.91311,0.01413
2516.98438,0.01392
2515.05566,0.01366
2513.12694,0.01341
2511.19821,0.01322
2509.26949,0.01305
2507.34076,0.01278
2505.41204,0.01248
2503.48332,0.01224
2501.55459,0.01206
2499.62587,0.01185
2497.69715,0.01162
2495.76842,0.01141
2493.83970,0.01127
2491.91098,0.01111
2489.98225,0.01091
2488.05353,0.01068
2486.12480,0.01043
2484.19608,0.01022
2482.26736,0.01006
2480.33863,0.00994
2478.40991,0.00981
2476.48119,0.00960
2474.55246,0.00938
2472.62374,0.00922
2470.69502,0.00907
2468.76629,0.00885
2466.83757,0.00860
2464.90884,0.00844
2462.98012,0.00835
2461.05140,0.00826
2459.12267,0.00809
2457.19395,0.00786
2455.26523,0.00766
2453.33650,0.00746
2451.40778,0.00726
2449.47905,0.00712
2447.55033,0.00702
2445.62161,0.00689
2443.69288,0.00673
2441.76416,0.00658
2439.83544,0.00643
2437.90671,0.00624
2435.97799,0.00598
2434.04927,0.00569
2432.12054,0.00549
2430.19182,0.00538
2428.26309,0.00527
2426.33437,0.00514
2424.40565,0.00504
2422.47692,0.00491
2420.54820,0.00470
2418.61948,0.00451
2416.69075,0.00444
2414.76203,0.00443
2412.83331,0.00432
2410.90458,0.00414
2408.97586,0.00398
2407.04713,0.00386
2405.11841,0.00371
2403.18969,0.00352
2401.26096,0.00338
2399.33224,0.00325
2397.40352,0.00313
2395.47479,0.00303
2393.54607,0.00297
2391.61734,0.00290
2389.68862,0.00280
2387.75990,0.00271
2385.83117,0.00263
2383.90245,0.00253
2381.97373,0.00238
2380.04500,0.00222
2378.11628,0.00213
2376.18756,0.00207
2374.25883,0.00202
2372.33011,0.00204
2370.40138,0.00209
2368.47266,0.00215
2366.54394,0.00230
2364.61521,0.00248
2362.68649,0.00256
2360.75777,0.00256
2358.82904,0.00249
2356.90032,0.00243
2354.97160,0.00251
2353.04287,0.00287
2351.11415,0.00329
2349.18542,0.00300
2347.25670,0.00194
2345.32798,0.00124
2343.39925,0.00151
2341.47053,0.00201
2339.54181,0.00220
2337.61308,0.00218
2335.68436,0.00215
2333.75563,0.00210
2331.82691,0.00201
2329.89819,0.00200
2327.96946,0.00208
2326.04074,0.00209
2324.11202,0.00193
2322.18329,0.00174
2320.25457,0.00168
2318.32585,0.00176
2316.39712,0.00178
2314.46840,0.00166
2312.53967,0.00148
2310.61095,0.00135
2308.68223,0.00128
2306.75350,0.00123
2304.82478,0.00116
2302.89606,0.00105
2300.96733,0.00090
2299.03861,0.00076
2297.10989,0.00067
2295.18116,0.00065
2293.25244,0.00065
2291.32371,0.00058
2289.39499,0.00044
2287.46627,0.00031
2285.53754,0.00028
2283.60882,0.00032
2281.68010,0.00034
2279.75137,0.00031
2277.82265,0.00026
2275.89392,0.00025
2273.96520,0.00027
2272.03648,0.00027
2270.10775,0.00025
2268.17903,0.00020
2266.25031,0.00013
2264.32158,0.00004
2262.39286,0.00000
2260.46414,0.00003
2258.53541,0.00011
2256.60669,0.00015
2254.67796,0.00013
2252.74924,0.00008
2250.82052,0.00006
2248.89179,0.00010
2246.96307,0.00017
2245.03435,0.00021
2243.10562,0.00022
2241.17690,0.00020
2239.24818,0.00018
2237.31945,0.00017
2235.39073,0.00015
2233.46200,0.00014
2231.53328,0.00012
2229.60456,0.00012
2227.67583,0.00012
2225.74711,0.00009
2223.81839,0.00001
2221.88966,-0.00008
2219.96094,-0.00012
2218.03221,-0.00009
2216.10349,-0.00004
2214.17477,-0.00003
2212.24604,-0.00007
2210.31732,-0.00009
2208.38860,-0.00004
2206.45987,0.00003
2204.53115,0.00009
2202.60243,0.00010
2200.67370,0.00004
2198.74498,0.00002
2196.81625,0.00010
2194.88753,0.00017
2192.95881,0.00017
2191.03008,0.00013
2189.10136,0.00012
2187.17264,0.00013
2185.24391,0.00012
2183.31519,0.00008
2181.38647,0.00005
2179.45774,0.00001
2177.52902,-0.00001
2175.60029,0.00001
2173.67157,0.00006
2171.74285,0.00009
2169.81412,0.00009
2167.88540,0.00009
2165.95668,0.00015
2164.02795,0.00025
2162.09923,0.00029
2160.17050,0.00028
2158.24178,0.00028
2156.31306,0.00031
2154.38433,0.00034
2152.45561,0.00035
2150.52689,0.00036
2148.59816,0.00038
2146.66944,0.00039
2144.74072,0.00042
2142.81199,0.00048
2140.88327,0.00049
2138.95454,0.00043
2137.02582,0.00039
2135.09710,0.00038
2133.16837,0.00037
2131.23965,0.00032
2129.31093,0.00028
2127.38220,0.00031
2125.45348,0.00035
2123.52476,0.00035
2121.59603,0.00035
2119.66731,0.00036
2117.73858,0.00037
2115.80986,0.00036
2113.88114,0.00034
2111.95241,0.00032
2110.02369,0.00030
2108.09497,0.00032
2106.16624,0.00034
2104.23752,0.00029
2102.30880,0.00018
2100.38007,0.00009
2098.45135,0.00004
2096.52262,0.00003
2094.59390,0.00000
2092.66518,-0.00008
2090.73645,-0.00009
2088.80773,-0.00002
2086.87901,-0.00002
2084.95028,-0.00014
2083.02156,-0.00028
2081.09283,-0.00034
2079.16411,-0.00033
2077.23539,-0.00030
2075.30666,-0.00029
2073.37794,-0.00029
2071.44922,-0.00027
2069.52049,-0.00026
2067.59177,-0.00021
2065.66305,-0.00011
2063.73432,0.00001
2061.80560,0.00009
2059.87687,0.00012
2057.94815,0.00018
2056.01943,0.00030
2054.09070,0.00048
2052.16198,0.00067
2050.23326,0.00078
2048.30453,0.00084
2046.37581,0.00095
2044.44709,0.00112
2042.51836,0.00134
2040.58964,0.00161
2038.66091,0.00184
2036.73219,0.00201
2034.80347,0.00221
2032.87474,0.00240
2030.94602,0.00256
2029.01730,0.00270
2027.08857,0.00281
2025.15985,0.00291
2023.23112,0.00304
2021.30240,0.00322
2019.37368,0.00339
2017.44495,0.00355
2015.51623,0.00367
2013.58751,0.00369
2011.65878,0.00364
2009.73006,0.00361
2007.80134,0.00361
2005.87261,0.00366
2003.94389,0.00372
2002.01516,0.00377
2000.08644,0.00380
1998.15772,0.00378
1996.22899,0.00370
1994.30027,0.00365
1992.37155,0.00375
1990.44282,0.00390
1988.51410,0.00393
1986.58538,0.00389
1984.65665,0.00382
1982.72793,0.00374
1980.79920,0.00364
1978.87048,0.00351
1976.94176,0.00337
1975.01303,0.00327
1973.08431,0.00318
1971.15559,0.00305
1969.22686,0.00293
1967.29814,0.00291
1965.36941,0.00282
1963.44069,0.00258
1961.51197,0.00230
1959.58324,0.00210
1957.65452,0.00198
1955.72580,0.00188
1953.79707,0.00170
1951.86835,0.00144
1949.93963,0.00120
1948.01090,0.00101
1946.08218,0.00083
1944.15345,0.00072
1942.22473,0.00076
1940.29601,0.00071
1938.36728,0.00045
1936.43856,0.00020
1934.50984,0.00008
1932.58111,0.00004
1930.65239,0.00004
1928.72367,0.00004
1926.79494,0.00000
1924.86622,0.00001
1922.93749,0.00021
1921.00877,0.00040
1919.08005,0.00059
1917.15132,0.00096
1915.22260,0.00125
1913.29388,0.00134
1911.36515,0.00157
1909.43643,0.00209
1907.50770,0.00263
1905.57898,0.00302
1903.65026,0.00337
1901.72153,0.00379
1899.79281,0.00429
1897.86409,0.00481
1895.93536,0.00535
1894.00664,0.00579
1892.07792,0.00614
1890.14919,0.00668
1888.22047,0.00736
1886.29174,0.00780
1884.36302,0.00800
1882.43430,0.00818
1880.50557,0.00838
1878.57685,0.00860
1876.64813,0.00872
1874.71940,0.00866
1872.79068,0.00846
1870.86196,0.00842
1868.93323,0.00874
1867.00451,0.00896
1865.07578,0.00861
1863.14706,0.00795
1861.21834,0.00737
1859.28961,0.00690
1857.36089,0.00642
1855.43217,0.00589
1853.50344,0.00535
1851.57472,0.00480
1849.64599,0.00422
1847.71727,0.00366
1845.78855,0.00335
1843.85982,0.00338
1841.93110,0.00323
1840.00238,0.00267
1838.07365,0.00205
1836.14493,0.00156
1834.21621,0.00104
1832.28748,0.00060
1830.35876,0.00054
1828.43003,0.00067
1826.50131,0.00061
1824.57259,0.00055
1822.64386,0.00051
1820.71514,0.00035
1818.78642,0.00017
1816.85769,0.00007
1814.92897,0.00000
1813.00025,-0.00022
1811.07152,-0.00018
1809.14280,-0.00001
1807.21407,-0.00005
1805.28535,-0.00031
1803.35663,-0.00045
1801.42790,-0.00020
1799.49918,0.00024
1797.57046,0.00039
1795.64173,0.00029
1793.71301,0.00062
1791.78428,0.00168
1789.85556,0.00261
1787.92684,0.00291
1785.99811,0.00318
1784.06939,0.00382
1782.14067,0.00463
1780.21194,0.00546
1778.28322,0.00606
1776.35450,0.00629
1774.42577,0.00673
1772.49705,0.00806
1770.56832,0.00969
1768.63960,0.01072
1766.71088,0.01124
1764.78215,0.01159
1762.85343,0.01224
1760.92471,0.01333
1758.99598,0.01438
1757.06726,0.01531
1755.13854,0.01606
1753.20981,0.01665
1751.28109,0.01778
1749.35236,0.01972
1747.42364,0.02155
1745.49492,0.02281
1743.56619,0.02393
1741.63747,0.02543
1739.70875,0.02722
1737.78002,0.02864
1735.85130,0.03012
1733.92257,0.03288
1731.99385,0.03595
1730.06513,0.03781
1728.13640,0.03902
1726.20768,0.04026
1724.27896,0.04167
1722.35023,0.04291
1720.42151,0.04402
1718.49279,0.04621
1716.56406,0.04988
1714.63534,0.05296
1712.70661,0.05454
1710.77789,0.05567
1708.84917,0.05725
1706.92044,0.05958
1704.99172,0.06215
1703.06300,0.06429
1701.13427,0.06715
1699.20555,0.07165
1697.27683,0.07644
1695.34810,0.08078
1693.41938,0.08411
1691.49065,0.08660
1689.56193,0.08918
1687.63321,0.09185
1685.70448,0.09551
1683.77576,0.10132
1681.84704,0.10657
1679.91831,0.10939
1677.98959,0.11137
1676.06087,0.11422
1674.13214,0.11779
1672.20342,0.12106
1670.27469,0.12459
1668.34597,0.12846
1666.41725,0.13112
1664.48852,0.13305
1662.55980,0.13565
1660.63108,0.13827
1658.70235,0.13964
1656.77363,0.14006
1654.84490,0.14150
1652.91618,0.14503
1650.98746,0.14758
1649.05873,0.14809
1647.13001,0.14899
1645.20129,0.15059
1643.27256,0.15128
1641.34384,0.15107
1639.41512,0.15062
1637.48639,0.15069
1635.55767,0.15173
1633.62894,0.15243
1631.70022,0.15180
1629.77150,0.15055
1627.84277,0.14931
1625.91405,0.14795
1623.98533,0.14628
1622.05660,0.14428
1620.12788,0.14193
1618.19916,0.13948
1616.27043,0.13706
1614.34171,0.13443
1612.41298,0.13153
1610.48426,0.12862
1608.55554,0.12583
1606.62681,0.12302
1604.69809,0.12012
1602.76937,0.11718
1600.84064,0.11432
1598.91192,0.11161
1596.98319,0.10910
1595.05447,0.10679
1593.12575,0.10453
1591.19702,0.10224
1589.26830,0.09997
1587.33958,0.09780
1585.41085,0.09570
1583.48213,0.09358
1581.55341,0.09140
1579.62468,0.08931
1577.69596,0.08771
1575.76723,0.08671
1573.83851,0.08555
1571.90979,0.08414
1569.98106,0.08315
1568.05234,0.08252
1566.12362,0.08156
1564.19489,0.08010
1562.26617,0.07831
1560.33745,0.07712
1558.40872,0.07746
1556.48000,0.07780
1554.55127,0.07700
1552.62255,0.07574
1550.69383,0.07456
1548.76510,0.07331
1546.83638,0.07170
1544.90766,0.06978
1542.97893,0.06799
1541.05021,0.06693
1539.12148,0.06621
1537.19276,0.06477
1535.26404,0.06279
1533.33531,0.06091
1531.40659,0.05911
1529.47787,0.05717
1527.54914,0.05514
1525.62042,0.05303
1523.69170,0.05089
1521.76297,0.04902
1519.83425,0.04742
1517.90552,0.04566
1515.97680,0.04354
1514.04808,0.04110
1512.11935,0.03848
1510.19063,0.03591
1508.26191,0.03367
1506.33318,0.03152
1504.40446,0.02888
1502.47574,0.02591
1500.54701,0.02314
1498.61829,0.02093
1496.68956,0.01922
1494.76084,0.01748
1492.83212,0.01565
1490.90339,0.01437
1488.97467,0.01401
1487.04595,0.01383
1485.11722,0.01332
1483.18850,0.01286
1481.25977,0.01283
1479.33105,0.01311
1477.40233,0.01365
1475.47360,0.01495
1473.54488,0.01769
1471.61616,0.02120
1469.68743,0.02355
1467.75871,0.02468
1465.82999,0.02587
1463.90126,0.02731
1461.97254,0.02792
1460.04381,0.02776
1458.11509,0.02853
1456.18637,0.03072
1454.25764,0.03211
1452.32892,0.03204
1450.40020,0.03161
1448.47147,0.03156
1446.54275,0.03175
1444.61403,0.03172
1442.68530,0.03128
1440.75658,0.03051
1438.82785,0.02964
1436.89913,0.02901
1434.97041,0.02837
1433.04168,0.02730
1431.11296,0.02609
1429.18424,0.02515
1427.25551,0.02459
1425.32679,0.02455
1423.39806,0.02503
1421.46934,0.02588
1419.54062,0.02730
1417.61189,0.02855
1415.68317,0.02770
1413.75445,0.02565
1411.82572,0.02586
1409.89700,0.02903
1407.96828,0.03216
1406.03955,0.03343
1404.11083,0.03338
1402.18210,0.03268
1400.25338,0.03189
1398.32466,0.03147
1396.39593,0.03152
1394.46721,0.03175
1392.53849,0.03165
1390.60976,0.03113
1388.68104,0.03067
1386.75232,0.03055
1384.82359,0.03027
1382.89487,0.02938
1380.96614,0.02802
1379.03742,0.02640
1377.10870,0.02451
1375.17997,0.02240
1373.25125,0.02028
1371.32253,0.01840
1369.39380,0.01690
1367.46508,0.01575
1365.53635,0.01478
1363.60763,0.01399
1361.67891,0.01342
1359.75018,0.01287
1357.82146,0.01218
1355.89274,0.01161
1353.96401,0.01127
1352.03529,0.01104
1350.10657,0.01083
1348.17784,0.01061
1346.24912,0.01035
1344.32039,0.01014
1342.39167,0.01002
1340.46295,0.01004
1338.53422,0.01009
1336.60550,0.01001
1334.67678,0.00979
1332.74805,0.00957
1330.81933,0.00948
1328.89061,0.00956
1326.96188,0.00974
1325.03316,0.00989
1323.10443,0.00999
1321.17571,0.01015
1319.24699,0.01045
1317.31826,0.01074
1315.38954,0.01090
1313.46082,0.01106
1311.53209,0.01129
1309.60337,0.01157
1307.67464,0.01193
1305.74592,0.01247
1303.81720,0.01320
1301.88847,0.01408
1299.95975,0.01509
1298.03103,0.01623
1296.10230,0.01753
1294.17358,0.01897
1292.24486,0.02066
1290.31613,0.02267
1288.38741,0.02486
1286.45868,0.02715
1284.52996,0.02956
1282.60124,0.03215
1280.67251,0.03502
1278.74379,0.03828
1276.81507,0.04195
1274.88634,0.04599
1272.95762,0.05037
1271.02890,0.05522
1269.10017,0.06067
1267.17145,0.06673
1265.24272,0.07347
1263.31400,0.08106
1261.38528,0.08970
1259.45655,0.09930
1257.52783,0.10958
1255.59911,0.12030
1253.67038,0.13135
1251.74166,0.14255
1249.81294,0.15362
1247.88421,0.16418
1245.95549,0.17403
1244.02676,0.18315
1242.09804,0.19139
1240.16932,0.19873
1238.24059,0.20537
1236.31187,0.21138
1234.38315,0.21673
1232.45442,0.22154
1230.52570,0.22586
1228.59697,0.22974
1226.66825,0.23331
1224.73953,0.23666
1222.81080,0.23967
1220.88208,0.24239
1218.95336,0.24498
1217.02463,0.24747
1215.09591,0.24983
1213.16719,0.25208
1211.23846,0.25433
1209.30974,0.25654
1207.38101,0.25846
1205.45229,0.26018
1203.52357,0.26202
1201.59484,0.26405
1199.66612,0.26603
1197.73740,0.26772
1195.80867,0.26909
1193.87995,0.27027
1191.95123,0.27144
1190.02250,0.27281
1188.09378,0.27443
1186.16505,0.27601
1184.23633,0.27743
1182.30761,0.27880
1180.37888,0.28008
1178.45016,0.28116
1176.52144,0.28226
1174.59271,0.28331
1172.66399,0.28388
1170.73526,0.28490
1168.80654,0.28690
1166.87782,0.28846
1164.94909,0.28941
1163.02037,0.29083
1161.09165,0.29205
1159.16292,0.29233
1157.23420,0.29230
1155.30548,0.29209
1153.37675,0.29068
1151.44803,0.28697
1149.51930,0.27945
1147.59058,0.26547
1145.66186,0.24434
1143.73313,0.21903
1141.80441,0.19392
1139.87569,0.17774
1137.94696,0.17853
1136.01824,0.19095
1134.08952,0.20616
1132.16079,0.22155
1130.23207,0.23640
1128.30334,0.25090
1126.37462,0.26643
1124.44590,0.28298
1122.51717,0.29899
1120.58845,0.31336
1118.65973,0.32573
1116.73100,0.33627
1114.80228,0.34547
1112.87355,0.35394
1110.94483,0.36234
1109.01611,0.37071
1107.08738,0.37864
1105.15866,0.38574
1103.22994,0.39184
1101.30121,0.39736
1099.37249,0.40250
1097.44377,0.40635
1095.51504,0.40860
1093.58632,0.41005
1091.65759,0.41080
1089.72887,0.41069
1087.80015,0.41004
1085.87142,0.40941
1083.94270,0.40906
1082.01398,0.40849
1080.08525,0.40710
1078.15653,0.40483
1076.22781,0.40187
1074.29908,0.39782
1072.37036,0.39302
1070.44163,0.38897
1068.51291,0.38605
1066.58419,0.38288
1064.65546,0.37845
1062.72674,0.37328
1060.79802,0.36791
1058.86929,0.36256
1056.94057,0.35716
1055.01184,0.35127
1053.08312,0.34481
1051.15440,0.33802
1049.22567,0.33128
1047.29695,0.32472
1045.36823,0.31790
1043.43950,0.31070
1041.51078,0.30355
1039.58206,0.29637
1037.65333,0.28855
1035.72461,0.28026
1033.79588,0.27240
1031.86716,0.26534
1029.93844,0.25856
1028.00971,0.25154
1026.08099,0.24461
1024.15227,0.23801
1022.22354,0.23152
1020.29482,0.22527
1018.36610,0.21943
1016.43737,0.21397
1014.50865,0.20889
1012.57992,0.20404
1010.65120,0.19938
1008.72248,0.19502
1006.79375,0.19082
1004.86503,0.18652
1002.93631,0.18227
1001.00758,0.17842
999.07886,0.17505
997.15013,0.17186
995.22141,0.16857
993.29269,0.16519
991.36396,0.16209
989.43524,0.15927
987.50652,0.15648
985.57779,0.15374
983.64907,0.15124
981.72035,0.14922
979.79162,0.14774
977.86290,0.14639
975.93417,0.14493
974.00545,0.14361
972.07673,0.14262
970.14800,0.14174
968.21928,0.14056
966.29056,0.13890
964.36183,0.13678
962.43311,0.13454
960.50439,0.13243
958.57566,0.13054
956.64694,0.12895
954.71821,0.12759
952.78949,0.12632
950.86077,0.12513
948.93204,0.12392
947.00332,0.12198
945.07460,0.11936
943.14587,0.11750
941.21715,0.11612
939.28842,0.11392
937.35970,0.11169
935.43098,0.11000
933.50225,0.10795
931.57353,0.10565
929.64481,0.10359
927.71608,0.10143
925.78736,0.09926
923.85864,0.09766
921.92991,0.09654
920.00119,0.09499
918.07246,0.09253
916.14374,0.08943
914.21502,0.08617
912.28629,0.08309
910.35757,0.08006
908.42885,0.07681
906.50012,0.07339
904.57140,0.06996
902.64268,0.06651
900.71395,0.06303
898.78523,0.05952
896.85650,0.05621
894.92778,0.05325
892.99906,0.05011
891.07033,0.04645
889.14161,0.04277
887.21289,0.03948
885.28416,0.03647
883.35544,0.03367
881.42671,0.03118
879.49799,0.02879
877.56927,0.02618
875.64054,0.02365
873.71182,0.02167
871.78310,0.01991
869.85437,0.01768
867.92565,0.01571
865.99693,0.01471
864.06820,0.01385
862.13948,0.01262
860.21075,0.01127
858.28203,0.00991
856.35331,0.00885
854.42458,0.00819
852.49586,0.00774
850.56714,0.00763
848.63841,0.00790
846.70969,0.00852
844.78097,0.00995
842.85224,0.01243
840.92352,0.01507
838.99479,0.01721
837.06607,0.01975
835.13735,0.02342
833.20862,0.02741
831.27990,0.03097
829.35118,0.03431
827.42245,0.03776
825.49373,0.04132
823.56501,0.04470
821.63628,0.04766
819.70756,0.05057
817.77883,0.05396
815.85011,0.05736
813.92139,0.05995
811.99266,0.06207
810.06394,0.06428
808.13522,0.06676
806.20649,0.06949
804.27777,0.07186
802.34904,0.07342
800.42032,0.07436
798.49160,0.07472
796.56287,0.07438
794.63415,0.07353
792.70543,0.07223
790.77670,0.07029
788.84798,0.06782
786.91926,0.06518
784.99053,0.06246
783.06181,0.05955
781.13308,0.05627
779.20436,0.05240
777.27564,0.04801
775.34691,0.04350
773.41819,0.03924
771.48947,0.03549
769.56074,0.03236
767.63202,0.02999
765.70330,0.02838
763.77457,0.02740
761.84585,0.02676
759.91712,0.02626
757.98840,0.02586
756.05968,0.02538
754.13095,0.02481
752.20223,0.02466
750.27351,0.02486
748.34478,0.02479
746.41606,0.02439
744.48733,0.02394
742.55861,0.02359
740.62989,0.02364
738.70116,0.02401
736.77244,0.02409
734.84372,0.02382
732.91499,0.02348
730.98627,0.02344
729.05755,0.02404
727.12882,0.02459
725.20010,0.02441
723.27137,0.02412
721.34265,0.02417
719.41393,0.02458
717.48520,0.02515
715.55648,0.02556
713.62776,0.02587
711.69903,0.02642
709.77031,0.02738
707.84159,0.02861
705.91286,0.02972
703.98414,0.03040
702.05541,0.03080
700.12669,0.03148
698.19797,0.03250
696.26924,0.03324
694.34052,0.03350
692.41180,0.03366
690.48307,0.03372
688.55435,0.03333
686.62562,0.03280
684.69690,0.03286
682.76818,0.03350
680.83945,0.03421
678.91073,0.03479
676.98201,0.03508
675.05328,0.03504
673.12456,0.03501
671.19584,0.03469
669.26711,0.03402
667.33839,0.03445
665.40966,0.03557
663.48094,0.03581
661.55222,0.03584
659.62349,0.03655
657.69477,0.03750
655.76605,0.03820
653.83732,0.03877
651.90860,0.03964
649.97988,0.04086
648.05115,0.04222
646.12243,0.04377
644.19370,0.04562
642.26498,0.04742
640.33626,0.04854
638.40753,0.04902
636.47881,0.04964
634.55009,0.05080
632.62136,0.05212
630.69264,0.05300
628.76391,0.05326
626.83519,0.05351
624.90647,0.05467
622.97774,0.05637
621.04902,0.05760
619.12030,0.05854
617.19157,0.05981
615.26285,0.06097
613.33413,0.06145
611.40540,0.06160
609.47668,0.06214
607.54795,0.06315
605.61923,0.06457
603.69051,0.06664
601.76178,0.06875
599.83306,0.07016
597.90434,0.07140
595.97561,0.07289
594.04689,0.07402
592.11817,0.07476
590.18944,0.07579
588.26072,0.07690
586.33199,0.07752
584.40327,0.07809
582.47455,0.07905
580.54582,0.07983
578.61710,0.08016
576.68838,0.08080
574.75965,0.08175
572.83093,0.08200
570.90220,0.08165
568.97348,0.08218
567.04476,0.08404
565.11603,0.08578
563.18731,0.08638
561.25859,0.08627
559.32986,0.08602
557.40114,0.08569
555.47242,0.08567
553.54369,0.08669
551.61497,0.08828
549.68624,0.08932
547.75752,0.09022
545.82880,0.09131
543.90007,0.09141
541.97135,0.09020
540.04263,0.08907
538.11390,0.08921
536.18518,0.09012
534.25646,0.09030
532.32773,0.08933
530.39901,0.08830
528.47028,0.08754
526.54156,0.08676
524.61284,0.08700
522.68411,0.08825
520.75539,0.08895
518.82667,0.08903
516.89794,0.09017
514.96922,0.09292
513.04049,0.09581
511.11177,0.09793
509.18305,0.10006
507.25432,0.10291
505.32560,0.10660
503.39688,0.11170
501.46815,0.11869
499.53943,0.12650
497.61071,0.13339
495.68198,0.13893
493.75326,0.14462
491.82453,0.15235
489.89581,0.16154
487.96709,0.16989
486.03836,0.17741
484.10964,0.18561
482.18092,0.19345
480.25219,0.19980
478.32347,0.20574
476.39475,0.21006
474.46602,0.21128
472.53730,0.21230
470.60857,0.21619
468.67985,0.22193
466.75113,0.22672
464.82240,0.22883
462.89368,0.22827
460.96496,0.22542
459.03623,0.22119
457.10751,0.21818
455.17878,0.21689
453.25006,0.21334
451.32134,0.20585
449.39261,0.19816
447.46389,0.19276
445.53517,0.18692
443.60644,0.17871
441.67772,0.17158
439.74900,0.16745
437.82027,0.16263
435.89155,0.15491
433.96282,0.14640
432.03410,0.13884
430.10538,0.13267
428.17665,0.12898
426.24793,0.12634
424.31921,0.12048
422.39048,0.11171
420.46176,0.10564
418.53304,0.10278
416.60431,0.09720
414.67559,0.08917
412.74686,0.08206
410.81814,0.07503
408.88942,0.06814
406.96069,0.06484
405.03197,0.06509
403.10325,0.06525
401.17452,0.06294
399.24580,0.05646
397.31708,0.04470
395.38835,0.03181
393.45963,0.02597
391.53090,0.03112
389.60218,0.04296
387.67346,0.05307
385.74473,0.05614
383.81601,0.04982
381.88729,0.03551
379.95856,0.01808
378.02984,0.00236
376.10111,0.00000
374.17239,0.00921
372.24367,0.01712
370.31494,0.01155
368.38622,0.00000
