3996.31543,0.00018
3994.38671,0.00017
3992.45799,0.00006
3990.52926,0.00000
3988.60054,0.00008
3986.67182,0.00029
3984.74309,0.00048
3982.81437,0.00054
3980.88564,0.00050
3978.95692,0.00043
3977.02820,0.00043
3975.09947,0.00054
3973.17075,0.00068
3971.24203,0.00070
3969.31330,0.00062
3967.38458,0.00058
3965.45586,0.00058
3963.52713,0.00055
3961.59841,0.00058
3959.66968,0.00074
3957.74096,0.00091
3955.81224,0.00098
3953.88351,0.00102
3951.95479,0.00105
3950.02607,0.00096
3948.09734,0.00073
3946.16862,0.00064
3944.23990,0.00076
3942.31117,0.00079
3940.38245,0.00071
3938.45372,0.00074
3936.52500,0.00101
3934.59628,0.00139
3932.66755,0.00152
3930.73883,0.00125
3928.81011,0.00098
3926.88138,0.00099
3924.95266,0.00109
3923.02393,0.00118
3921.09521,0.00130
3919.16649,0.00120
3917.23776,0.00081
3915.30904,0.00055
3913.38032,0.00063
3911.45159,0.00082
3909.52287,0.00103
3907.59415,0.00146
3905.66542,0.00197
3903.73670,0.00206
3901.80797,0.00164
3899.87925,0.00100
3897.95053,0.00058
3896.02180,0.00072
3894.09308,0.00114
3892.16436,0.00116
3890.23563,0.00086
3888.30691,0.00097
3886.37819,0.00131
3884.44946,0.00138
3882.52074,0.00134
3880.59201,0.00115
3878.66329,0.00084
3876.73457,0.00091
3874.80584,0.00129
3872.87712,0.00159
3870.94840,0.00147
3869.01967,0.00104
3867.09095,0.00097
3865.16222,0.00115
3863.23350,0.00098
3861.30478,0.00077
3859.37605,0.00114
3857.44733,0.00210
3855.51861,0.00281
3853.58988,0.00209
3851.66116,0.00053
3849.73244,0.00000
3847.80371,0.00050
3845.87499,0.00120
3843.94626,0.00166
3842.01754,0.00197
3840.08882,0.00216
3838.16009,0.00188
3836.23137,0.00126
3834.30265,0.00090
3832.37392,0.00091
3830.44520,0.00110
3828.51648,0.00132
3826.58775,0.00156
3824.65903,0.00201
3822.73030,0.00236
3820.80158,0.00199
3818.87286,0.00141
3816.94413,0.00104
3815.01541,0.00066
3813.08669,0.00074
3811.15796,0.00156
3809.22924,0.00242
3807.30052,0.00273
3805.37179,0.00280
3803.44307,0.00298
3801.51434,0.00277
3799.58562,0.00239
3797.65690,0.00239
3795.72817,0.00241
3793.79945,0.00232
3791.87073,0.00242
3789.94200,0.00279
3788.01328,0.00323
3786.08455,0.00348
3784.15583,0.00354
3782.22711,0.00368
3780.29838,0.00383
3778.36966,0.00386
3776.44094,0.00410
3774.51221,0.00465
3772.58349,0.00524
3770.65477,0.00558
3768.72604,0.00568
3766.79732,0.00581
3764.86859,0.00610
3762.93987,0.00668
3761.01115,0.00740
3759.08242,0.00787
3757.15370,0.00818
3755.22498,0.00890
3753.29625,0.01005
3751.36753,0.01094
3749.43881,0.01132
3747.51008,0.01182
3745.58136,0.01238
3743.65263,0.01262
3741.72391,0.01323
3739.79519,0.01462
3737.86646,0.01623
3735.93774,0.01732
3734.00902,0.01784
3732.08029,0.01851
3730.15157,0.01975
3728.22284,0.02144
3726.29412,0.02326
3724.36540,0.02509
3722.43667,0.02703
3720.50795,0.02909
3718.57923,0.03131
3716.65050,0.03381
3714.72178,0.03666
3712.79306,0.03975
3710.86433,0.04276
3708.93561,0.04562
3707.00688,0.04864
3705.07816,0.05201
3703.14944,0.05561
3701.22071,0.05927
3699.29199,0.06296
3697.36327,0.06666
3695.43454,0.07030
3693.50582,0.07384
3691.57710,0.07752
3689.64837,0.08148
3687.71965,0.08554
3685.79092,0.08963
3683.86220,0.09397
3681.93348,0.09861
3680.00475,0.10339
3678.07603,0.10828
3676.14731,0.11344
3674.21858,0.11860
3672.28986,0.12343
3670.36113,0.12825
3668.43241,0.13295
3666.50369,0.13720
3664.57496,0.14122
3662.64624,0.14520
3660.71752,0.14922
3658.78879,0.15327
3656.86007,0.15732
3654.93135,0.16126
3653.00262,0.16502
3651.07390,0.16859
3649.14517,0.17178
3647.21645,0.17464
3645.28773,0.17763
3643.35900,0.18090
3641.43028,0.18428
3639.50156,0.18759
3637.57283,0.19074
3635.64411,0.19366
3633.71539,0.19634
3631.78666,0.19881
3629.85794,0.20116
3627.92921,0.20357
3626.00049,0.20623
3624.07177,0.20913
3622.14304,0.21203
3620.21432,0.21452
3618.28560,0.21642
3616.35687,0.21814
3614.42815,0.22000
3612.49942,0.22185
3610.57070,0.22359
3608.64198,0.22532
3606.71325,0.22704
3604.78453,0.22886
3602.85581,0.23088
3600.92708,0.23302
3598.99836,0.23499
3597.06964,0.23667
3595.14091,0.23824
3593.21219,0.23998
3591.28346,0.24203
3589.35474,0.24418
3587.42602,0.24601
3585.49729,0.24757
3583.56857,0.24922
3581.63985,0.25086
3579.71112,0.25231
3577.78240,0.25376
3575.85368,0.25538
3573.92495,0.25702
3571.99623,0.25857
3570.06750,0.26004
3568.13878,0.26129
3566.21006,0.26245
3564.28133,0.26386
3562.35261,0.26543
3560.42389,0.26688
3558.49516,0.26824
3556.56644,0.26970
3554.63771,0.27115
3552.70899,0.27243
3550.78027,0.27377
3548.85154,0.27526
3546.92282,0.27662
3544.99410,0.27769
3543.06537,0.27881
3541.13665,0.28024
3539.20793,0.28182
3537.27920,0.28317
3535.35048,0.28429
3533.42175,0.28546
3531.49303,0.28673
3529.56431,0.28787
3527.63558,0.28887
3525.70686,0.28995
3523.77814,0.29108
3521.84941,0.29210
3519.92069,0.29300
3517.99197,0.29404
3516.06324,0.29538
3514.13452,0.29679
3512.20579,0.29801
3510.27707,0.29896
3508.34835,0.29985
3506.41962,0.30095
3504.49090,0.30215
3502.56218,0.30320
3500.63345,0.30418
3498.70473,0.30524
3496.77600,0.30623
3494.84728,0.30706
3492.91856,0.30791
3490.98983,0.30884
3489.06111,0.30962
3487.13239,0.31024
3485.20366,0.31110
3483.27494,0.31226
3481.34622,0.31329
3479.41749,0.31395
3477.48877,0.31453
3475.56004,0.31519
3473.63132,0.31578
3471.70260,0.31632
3469.77387,0.31714
3467.84515,0.31814
3465.91643,0.31884
3463.98770,0.31922
3462.05898,0.31967
3460.13026,0.32036
3458.20153,0.32114
3456.27281,0.32180
3454.34408,0.32231
3452.41536,0.32286
3450.48664,0.32351
3448.55791,0.32403
3446.62919,0.32428
3444.70047,0.32454
3442.77174,0.32489
3440.84302,0.32523
3438.91429,0.32563
3436.98557,0.32605
3435.05685,0.32636
3433.12812,0.32664
3431.19940,0.32695
3429.27068,0.32719
3427.34195,0.32742
3425.41323,0.32779
3423.48451,0.32828
3421.55578,0.32866
3419.62706,0.32866
3417.69833,0.32845
3415.76961,0.32838
3413.84089,0.32855
3411.91216,0.32880
3409.98344,0.32904
3408.05472,0.32937
3406.12599,0.32972
3404.19727,0.32989
3402.26855,0.32985
3400.33982,0.32968
3398.41110,0.32940
3396.48237,0.32915
3394.55365,0.32898
3392.62493,0.32884
3390.69620,0.32881
3388.76748,0.32891
3386.83876,0.32893
3384.91003,0.32883
3382.98131,0.32863
3381.05259,0.32835
3379.12386,0.32813
3377.19514,0.32803
3375.26641,0.32800
3373.33769,0.32799
3371.40897,0.32793
3369.48024,0.32771
3367.55152,0.32728
3365.62280,0.32681
3363.69407,0.32659
3361.76535,0.32652
3359.83662,0.32633
3357.90790,0.32582
3355.97918,0.32508
3354.05045,0.32444
3352.12173,0.32413
3350.19301,0.32396
3348.26428,0.32356
3346.33556,0.32299
3344.40684,0.32255
3342.47811,0.32235
3340.54939,0.32220
3338.62066,0.32186
3336.69194,0.32128
3334.76322,0.32059
3332.83449,0.32002
3330.90577,0.31972
3328.97705,0.31955
3327.04832,0.31926
3325.11960,0.31877
3323.19088,0.31833
3321.26215,0.31815
3319.33343,0.31792
3317.40470,0.31741
3315.47598,0.31688
3313.54726,0.31650
3311.61853,0.31608
3309.68981,0.31545
3307.76109,0.31475
3305.83236,0.31422
3303.90364,0.31399
3301.97491,0.31392
3300.04619,0.31375
3298.11747,0.31334
3296.18874,0.31276
3294.26002,0.31207
3292.33130,0.31141
3290.40257,0.31103
3288.47385,0.31094
3286.54513,0.31072
3284.61640,0.31009
3282.68768,0.30932
3280.75895,0.30872
3278.83023,0.30830
3276.90151,0.30787
3274.97278,0.30725
3273.04406,0.30655
3271.11534,0.30606
3269.18661,0.30575
3267.25789,0.30540
3265.32917,0.30497
3263.40044,0.30458
3261.47172,0.30421
3259.54299,0.30358
3257.61427,0.30267
3255.68555,0.30189
3253.75682,0.30132
3251.82810,0.30076
3249.89938,0.30013
3247.97065,0.29942
3246.04193,0.29864
3244.11320,0.29793
3242.18448,0.29737
3240.25576,0.29683
3238.32703,0.29625
3236.39831,0.29560
3234.46959,0.29481
3232.54086,0.29392
3230.61214,0.29301
3228.68342,0.29224
3226.75469,0.29170
3224.82597,0.29124
3222.89724,0.29066
3220.96852,0.28991
3219.03980,0.28914
3217.11107,0.28828
3215.18235,0.28724
3213.25363,0.28632
3211.32490,0.28566
3209.39618,0.28493
3207.46746,0.28395
3205.53873,0.28292
3203.61001,0.28202
3201.68128,0.28116
3199.75256,0.28019
3197.82384,0.27929
3195.89511,0.27860
3193.96639,0.27789
3192.03767,0.27699
3190.10894,0.27593
3188.18022,0.27485
3186.25149,0.27387
3184.32277,0.27295
3182.39405,0.27203
3180.46532,0.27114
3178.53660,0.27014
3176.60788,0.26896
3174.67915,0.26782
3172.75043,0.26679
3170.82171,0.26570
3168.89298,0.26449
3166.96426,0.26326
3165.03553,0.26216
3163.10681,0.26115
3161.17809,0.26010
3159.24936,0.25899
3157.32064,0.25789
3155.39192,0.25685
3153.46319,0.25585
3151.53447,0.25484
3149.60575,0.25377
3147.67702,0.25268
3145.74830,0.25161
3143.81957,0.25047
3141.89085,0.24937
3139.96213,0.24841
3138.03340,0.24741
3136.10468,0.24629
3134.17596,0.24522
3132.24723,0.24429
3130.31851,0.24333
3128.38978,0.24225
3126.46106,0.24118
3124.53234,0.24018
3122.60361,0.23913
3120.67489,0.23802
3118.74617,0.23687
3116.81744,0.23567
3114.88872,0.23452
3112.96000,0.23355
3111.03127,0.23265
3109.10255,0.23162
3107.17382,0.23047
3105.24510,0.22932
3103.31638,0.22817
3101.38765,0.22693
3099.45893,0.22562
3097.53021,0.22432
3095.60148,0.22306
3093.67276,0.22185
3091.74404,0.22066
3089.81531,0.21949
3087.88659,0.21835
3085.95786,0.21717
3084.02914,0.21594
3082.10042,0.21478
3080.17169,0.21372
3078.24297,0.21263
3076.31425,0.21149
3074.38552,0.21033
3072.45680,0.20913
3070.52807,0.20788
3068.59935,0.20660
3066.67063,0.20526
3064.74190,0.20393
3062.81318,0.20268
3060.88446,0.20142
3058.95573,0.20014
3057.02701,0.19893
3055.09829,0.19775
3053.16956,0.19653
3051.24084,0.19524
3049.31211,0.19399
3047.38339,0.19283
3045.45467,0.19175
3043.52594,0.19068
3041.59722,0.18953
3039.66850,0.18837
3037.73977,0.18739
3035.81105,0.18654
3033.88233,0.18553
3031.95360,0.18436
3030.02488,0.18330
3028.09615,0.18238
3026.16743,0.18151
3024.23871,0.18068
3022.30998,0.17976
3020.38126,0.17872
3018.45254,0.17783
3016.52381,0.17721
3014.59509,0.17672
3012.66636,0.17605
3010.73764,0.17502
3008.80892,0.17377
3006.88019,0.17262
3004.95147,0.17172
3003.02275,0.17100
3001.09402,0.17037
2999.16530,0.16985
2997.23658,0.16942
2995.30785,0.16887
2993.37913,0.16820
2991.45040,0.16764
2989.52168,0.16729
2987.59296,0.16708
2985.66423,0.16694
2983.73551,0.16667
2981.80679,0.16622
2979.87806,0.16580
2977.94934,0.16547
2976.02062,0.16517
2974.09189,0.16486
2972.16317,0.16460
2970.23444,0.16448
2968.30572,0.16448
2966.37700,0.16445
2964.44827,0.16446
2962.51955,0.16460
2960.59083,0.16455
2958.66210,0.16412
2956.73338,0.16362
2954.80466,0.16328
2952.87593,0.16294
2950.94721,0.16256
2949.01848,0.16235
2947.08976,0.16242
2945.16104,0.16281
2943.23231,0.16340
2941.30359,0.16408
2939.37487,0.16495
2937.44614,0.16601
2935.51742,0.16703
2933.58869,0.16785
2931.65997,0.16855
2929.73125,0.16918
2927.80252,0.16953
2925.87380,0.16918
2923.94508,0.16802
2922.01635,0.16622
2920.08763,0.16387
2918.15891,0.16103
2916.23018,0.15793
2914.30146,0.15489
2912.37273,0.15214
2910.44401,0.14961
2908.51529,0.14725
2906.58656,0.14515
2904.65784,0.14327
2902.72912,0.14153
2900.80039,0.13990
2898.87167,0.13831
2896.94295,0.13666
2895.01422,0.13497
2893.08550,0.13335
2891.15677,0.13186
2889.22805,0.13042
2887.29933,0.12901
2885.37060,0.12775
2883.44188,0.12672
2881.51316,0.12579
2879.58443,0.12490
2877.65571,0.12412
2875.72698,0.12350
2873.79826,0.12288
2871.86954,0.12209
2869.94081,0.12117
2868.01209,0.12040
2866.08337,0.11992
2864.15464,0.11971
2862.22592,0.11983
2860.29720,0.12033
2858.36847,0.12104
2856.43975,0.12164
2854.51102,0.12174
2852.58230,0.12090
2850.65358,0.11879
2848.72485,0.11562
2846.79613,0.11203
2844.86741,0.10858
2842.93868,0.10547
2841.00996,0.10283
2839.08124,0.10062
2837.15251,0.09869
2835.22379,0.09695
2833.29506,0.09540
2831.36634,0.09407
2829.43762,0.09287
2827.50889,0.09169
2825.58017,0.09050
2823.65145,0.08937
2821.72272,0.08831
2819.79400,0.08727
2817.86527,0.08630
2815.93655,0.08540
2814.00783,0.08451
2812.07910,0.08357
2810.15038,0.08267
2808.22166,0.08186
2806.29293,0.08105
2804.36421,0.08022
2802.43549,0.07951
2800.50676,0.07887
2798.57804,0.07802
2796.64931,0.07699
2794.72059,0.07610
2792.79187,0.07537
2790.86314,0.07460
2788.93442,0.07386
2787.00570,0.07322
2785.07697,0.07252
2783.14825,0.07172
2781.21953,0.07097
2779.29080,0.07036
2777.36208,0.06977
2775.43335,0.06910
2773.50463,0.06840
2771.57591,0.06769
2769.64718,0.06692
2767.71846,0.06614
2765.78974,0.06544
2763.86101,0.06482
2761.93229,0.06425
2760.00356,0.06369
2758.07484,0.06305
2756.14612,0.06232
2754.21739,0.06164
2752.28867,0.06113
2750.35995,0.06072
2748.43122,0.06021
2746.50250,0.05953
2744.57378,0.05881
2742.64505,0.05817
2740.71633,0.05762
2738.78760,0.05708
2736.85888,0.05652
2734.93016,0.05598
2733.00143,0.05540
2731.07271,0.05478
2729.14399,0.05416
2727.21526,0.05359
2725.28654,0.05302
2723.35782,0.05241
2721.42909,0.05174
2719.50037,0.05108
2717.57164,0.05044
2715.64292,0.04987
2713.71420,0.04935
2711.78547,0.04875
2709.85675,0.04814
2707.92803,0.04763
2705.99930,0.04718
2704.07058,0.04668
2702.14185,0.04611
2700.21313,0.04561
2698.28441,0.04514
2696.35568,0.04465
2694.42696,0.04414
2692.49824,0.04364
2690.56951,0.04315
2688.64079,0.04269
2686.71207,0.04225
2684.78334,0.04174
2682.85462,0.04119
2680.92589,0.04068
2678.99717,0.04023
2677.06845,0.03972
2675.13972,0.03921
2673.21100,0.03878
2671.28228,0.03834
2669.35355,0.03779
2667.42483,0.03725
2665.49611,0.03680
2663.56738,0.03639
2661.63866,0.03593
2659.70993,0.03541
2657.78121,0.03488
2655.85249,0.03443
2653.92376,0.03404
2651.99504,0.03367
2650.06632,0.03320
2648.13759,0.03272
2646.20887,0.03233
2644.28014,0.03195
2642.35142,0.03148
2640.42270,0.03100
2638.49397,0.03060
2636.56525,0.03024
2634.63653,0.02989
2632.70780,0.02949
2630.77908,0.02902
2628.85036,0.02859
2626.92163,0.02818
2624.99291,0.02778
2623.06418,0.02744
2621.13546,0.02715
2619.20674,0.02681
2617.27801,0.02645
2615.34929,0.02606
2613.42057,0.02562
2611.49184,0.02521
2609.56312,0.02487
2607.63440,0.02456
2605.70567,0.02425
2603.77695,0.02392
2601.84822,0.02359
2599.91950,0.02333
2597.99078,0.02308
2596.06205,0.02270
2594.13333,0.02228
2592.20461,0.02192
2590.27588,0.02159
2588.34716,0.02127
2586.41843,0.02098
2584.48971,0.02069
2582.56099,0.02038
2580.63226,0.02009
2578.70354,0.01980
2576.77482,0.01947
2574.84609,0.01915
2572.91737,0.01887
2570.98865,0.01858
2569.05992,0.01825
2567.13120,0.01792
2565.20247,0.01762
2563.27375,0.01737
2561.34503,0.01719
2559.41630,0.01707
2557.48758,0.01692
2555.55886,0.01668
2553.63013,0.01645
2551.70141,0.01624
2549.77269,0.01597
2547.84396,0.01567
2545.91524,0.01533
2543.98651,0.01497
2542.05779,0.01464
2540.12907,0.01442
2538.20034,0.01433
2536.27162,0.01427
2534.34290,0.01410
2532.41417,0.01380
2530.48545,0.01350
2528.55673,0.01324
2526.62800,0.01306
2524.69928,0.01293
2522.77055,0.01275
2520.84183,0.01251
2518.91311,0.01228
2516.98438,0.01212
2515.05566,0.01202
2513.12694,0.01187
2511.19821,0.01163
2509.26949,0.01139
2507.34076,0.01124
2505.41204,0.01113
2503.48332,0.01093
2501.55459,0.01067
2499.62587,0.01047
2497.69715,0.01031
2495.76842,0.01014
2493.83970,0.00996
2491.91098,0.00977
2489.98225,0.00958
2488.05353,0.00937
2486.12480,0.00915
2484.19608,0.00901
2482.26736,0.00892
2480.33863,0.00875
2478.40991,0.00854
2476.48119,0.00838
2474.55246,0.00825
2472.62374,0.00808
2470.69502,0.00789
2468.76629,0.00771
2466.83757,0.00747
2464.90884,0.00722
2462.98012,0.00708
2461.05140,0.00696
2459.12267,0.00679
2457.19395,0.00660
2455.26523,0.00639
2453.33650,0.00620
2451.40778,0.00609
2449.47905,0.00604
2447.55033,0.00591
2445.62161,0.00571
2443.69288,0.00552
2441.76416,0.00538
2439.83544,0.00527
2437.90671,0.00515
2435.97799,0.00501
2434.04927,0.00484
2432.12054,0.00466
2430.19182,0.00449
2428.26309,0.00434
2426.33437,0.00426
2424.40565,0.00427
2422.47692,0.00422
2420.54820,0.00398
2418.61948,0.00364
2416.69075,0.00346
2414.76203,0.00349
2412.83331,0.00349
2410.90458,0.00339
2408.97586,0.00324
2407.04713,0.00308
2405.11841,0.00297
2403.18969,0.00293
2401.26096,0.00288
2399.33224,0.00278
2397.40352,0.00265
2395.47479,0.00254
2393.54607,0.00245
2391.61734,0.00235
2389.68862,0.00225
2387.75990,0.00218
2385.83117,0.00217
2383.90245,0.00224
2381.97373,0.00237
2380.04500,0.00249
2378.11628,0.00257
2376.18756,0.00261
2374.25883,0.00261
2372.33011,0.00265
2370.40138,0.00277
2368.47266,0.00285
2366.54394,0.00293
2364.61521,0.00306
2362.68649,0.00312
2360.75777,0.00300
2358.82904,0.00275
2356.90032,0.00246
2354.97160,0.00211
2353.04287,0.00170
2351.11415,0.00142
2349.18542,0.00145
2347.25670,0.00173
2345.32798,0.00207
2343.39925,0.00225
2341.47053,0.00218
2339.54181,0.00187
2337.61308,0.00144
2335.68436,0.00111
2333.75563,0.00099
2331.82691,0.00098
2329.89819,0.00092
2327.96946,0.00089
2326.04074,0.00100
2324.11202,0.00115
2322.18329,0.00111
2320.25457,0.00085
2318.32585,0.00061
2316.39712,0.00054
2314.46840,0.00059
2312.53967,0.00063
2310.61095,0.00058
2308.68223,0.00044
2306.75350,0.00028
2304.82478,0.00017
2302.89606,0.00011
2300.96733,0.00008
2299.03861,0.00009
2297.10989,0.00012
2295.18116,0.00012
2293.25244,0.00008
2291.32371,0.00003
2289.39499,-0.00004
2287.46627,-0.00010
2285.53754,-0.00007
2283.60882,-0.00000
2281.68010,0.00003
2279.75137,0.00003
2277.82265,0.00005
2275.89392,0.00011
2273.96520,0.00017
2272.03648,0.00018
2270.10775,0.00014
2268.17903,0.00005
2266.25031,-0.00002
2264.32158,-0.00002
2262.39286,0.00000
2260.46414,-0.00000
2258.53541,-0.00001
2256.60669,0.00001
2254.67796,0.00003
2252.74924,0.00001
2250.82052,0.00001
2248.89179,0.00006
2246.96307,0.00011
2245.03435,0.00008
2243.10562,-0.00003
2241.17690,-0.00013
2239.24818,-0.00018
2237.31945,-0.00020
2235.39073,-0.00022
2233.46200,-0.00025
2231.53328,-0.00026
2229.60456,-0.00023
2227.67583,-0.00018
2225.74711,-0.00017
2223.81839,-0.00020
2221.88966,-0.00020
2219.96094,-0.00019
2218.03221,-0.00022
2216.10349,-0.00025
2214.17477,-0.00023
2212.24604,-0.00016
2210.31732,-0.00010
2208.38860,-0.00006
2206.45987,0.00000
2204.53115,0.00002
2202.60243,0.00004
2200.67370,0.00008
2198.74498,0.00013
2196.81625,0.00015
2194.88753,0.00017
2192.95881,0.00019
2191.03008,0.00017
2189.10136,0.00016
2187.17264,0.00018
2185.24391,0.00017
2183.31519,0.00015
2181.38647,0.00015
2179.45774,0.00016
2177.52902,0.00019
2175.60029,0.00020
2173.67157,0.00013
2171.74285,0.00007
2169.81412,0.00013
2167.88540,0.00024
2165.95668,0.00037
2164.02795,0.00045
2162.09923,0.00045
2160.17050,0.00040
2158.24178,0.00038
2156.31306,0.00039
2154.38433,0.00041
2152.45561,0.00045
2150.52689,0.00052
2148.59816,0.00056
2146.66944,0.00057
2144.74072,0.00056
2142.81199,0.00058
2140.88327,0.00061
2138.95454,0.00061
2137.02582,0.00064
2135.09710,0.00068
2133.16837,0.00070
2131.23965,0.00065
2129.31093,0.00055
2127.38220,0.00050
2125.45348,0.00045
2123.52476,0.00038
2121.59603,0.00038
2119.66731,0.00043
2117.73858,0.00042
2115.80986,0.00036
2113.88114,0.00028
2111.95241,0.00024
2110.02369,0.00028
2108.09497,0.00031
2106.16624,0.00030
2104.23752,0.00028
2102.30880,0.00024
2100.38007,0.00019
2098.45135,0.00018
2096.52262,0.00016
2094.59390,0.00009
2092.66518,0.00000
2090.73645,-0.00013
2088.80773,-0.00020
2086.87901,-0.00020
2084.95028,-0.00018
2083.02156,-0.00019
2081.09283,-0.00020
2079.16411,-0.00014
2077.23539,-0.00008
2075.30666,-0.00015
2073.37794,-0.00027
2071.44922,-0.00029
2069.52049,-0.00021
2067.59177,-0.00013
2065.66305,-0.00010
2063.73432,-0.00014
2061.80560,-0.00015
2059.87687,-0.00010
2057.94815,-0.00002
2056.01943,0.00004
2054.09070,0.00015
2052.16198,0.00028
2050.23326,0.00045
2048.30453,0.00066
2046.37581,0.00083
2044.44709,0.00095
2042.51836,0.00105
2040.58964,0.00122
2038.66091,0.00144
2036.73219,0.00168
2034.80347,0.00188
2032.87474,0.00207
2030.94602,0.00225
2029.01730,0.00245
2027.08857,0.00267
2025.15985,0.00285
2023.23112,0.00300
2021.30240,0.00315
2019.37368,0.00330
2017.44495,0.00343
2015.51623,0.00355
2013.58751,0.00364
2011.65878,0.00369
2009.73006,0.00367
2007.80134,0.00367
2005.87261,0.00376
2003.94389,0.00393
2002.01516,0.00405
2000.08644,0.00406
1998.15772,0.00408
1996.22899,0.00416
1994.30027,0.00421
1992.37155,0.00415
1990.44282,0.00397
1988.51410,0.00380
1986.58538,0.00372
1984.65665,0.00371
1982.72793,0.00367
1980.79920,0.00355
1978.87048,0.00343
1976.94176,0.00333
1975.01303,0.00324
1973.08431,0.00314
1971.15559,0.00305
1969.22686,0.00293
1967.29814,0.00274
1965.36941,0.00245
1963.44069,0.00215
1961.51197,0.00193
1959.58324,0.00181
1957.65452,0.00170
1955.72580,0.00154
1953.79707,0.00132
1951.86835,0.00112
1949.93963,0.00096
1948.01090,0.00086
1946.08218,0.00081
1944.15345,0.00070
1942.22473,0.00045
1940.29601,0.00022
1938.36728,0.00011
1936.43856,0.00006
1934.50984,0.00003
1932.58111,-0.00001
1930.65239,-0.00006
1928.72367,-0.00008
1926.79494,0.00000
1924.86622,0.00014
1922.93749,0.00021
1921.00877,0.00025
1919.08005,0.00040
1917.15132,0.00064
1915.22260,0.00092
1913.29388,0.00125
1911.36515,0.00163
1909.43643,0.00206
1907.50770,0.00254
1905.57898,0.00304
1903.65026,0.00356
1901.72153,0.00406
1899.79281,0.00457
1897.86409,0.00513
1895.93536,0.00572
1894.00664,0.00626
1892.07792,0.00674
1890.14919,0.00715
1888.22047,0.00750
1886.29174,0.00787
1884.36302,0.00828
1882.43430,0.00865
1880.50557,0.00892
1878.57685,0.00910
1876.64813,0.00921
1874.71940,0.00929
1872.79068,0.00936
1870.86196,0.00935
1868.93323,0.00905
1867.00451,0.00857
1865.07578,0.00821
1863.14706,0.00800
1861.21834,0.00769
1859.28961,0.00718
1857.36089,0.00659
1855.43217,0.00600
1853.50344,0.00546
1851.57472,0.00499
1849.64599,0.00462
1847.71727,0.00428
1845.78855,0.00375
1843.85982,0.00297
1841.93110,0.00230
1840.00238,0.00200
1838.07365,0.00183
1836.14493,0.00160
1834.21621,0.00135
1832.28748,0.00112
1830.35876,0.00083
1828.43003,0.00055
1826.50131,0.00035
1824.57259,0.00016
1822.64386,0.00000
1820.71514,-0.00006
1818.78642,-0.00006
1816.85769,-0.00006
1814.92897,0.00000
1813.00025,-0.00012
1811.07152,-0.00031
1809.14280,-0.00052
1807.21407,-0.00058
1805.28535,-0.00044
1803.35663,-0.00026
1801.42790,-0.00016
1799.49918,-0.00009
1797.57046,0.00012
1795.64173,0.00047
1793.71301,0.00079
1791.78428,0.00098
1789.85556,0.00123
1787.92684,0.00172
1785.99811,0.00236
1784.06939,0.00302
1782.14067,0.00363
1780.21194,0.00424
1778.28322,0.00494
1776.35450,0.00581
1774.42577,0.00667
1772.49705,0.00736
1770.56832,0.00793
1768.63960,0.00849
1766.71088,0.00907
1764.78215,0.00970
1762.85343,0.01042
1760.92471,0.01118
1758.99598,0.01199
1757.06726,0.01289
1755.13854,0.01385
1753.20981,0.01482
1751.28109,0.01576
1749.35236,0.01671
1747.42364,0.01777
1745.49492,0.01909
1743.56619,0.02064
1741.63747,0.02230
1739.70875,0.02398
1737.78002,0.02572
1735.85130,0.02754
1733.92257,0.02944
1731.99385,0.03124
1730.06513,0.03297
1728.13640,0.03472
1726.20768,0.03653
1724.27896,0.03847
1722.35023,0.04046
1720.42151,0.04239
1718.49279,0.04429
1716.56406,0.04617
1714.63534,0.04803
1712.70661,0.05000
1710.77789,0.05217
1708.84917,0.05455
1706.92044,0.05715
1704.99172,0.05988
1703.06300,0.06262
1701.13427,0.06565
1699.20555,0.06914
1697.27683,0.07284
1695.34810,0.07669
1693.41938,0.08030
1691.49065,0.08363
1689.56193,0.08707
1687.63321,0.09062
1685.70448,0.09459
1683.77576,0.09927
1681.84704,0.10356
1679.91831,0.10704
1677.98959,0.11038
1676.06087,0.11405
1674.13214,0.11783
1672.20342,0.12134
1670.27469,0.12483
1668.34597,0.12839
1666.41725,0.13153
1664.48852,0.13435
1662.55980,0.13717
1660.63108,0.13979
1658.70235,0.14205
1656.77363,0.14412
1654.84490,0.14624
1652.91618,0.14822
1650.98746,0.14953
1649.05873,0.15055
1647.13001,0.15162
1645.20129,0.15256
1643.27256,0.15327
1641.34384,0.15393
1639.41512,0.15461
1637.48639,0.15503
1635.55767,0.15484
1633.62894,0.15429
1631.70022,0.15383
1629.77150,0.15328
1627.84277,0.15232
1625.91405,0.15087
1623.98533,0.14883
1622.05660,0.14643
1620.12788,0.14419
1618.19916,0.14154
1616.27043,0.13786
1614.34171,0.13417
1612.41298,0.13117
1610.48426,0.12815
1608.55554,0.12469
1606.62681,0.12111
1604.69809,0.11766
1602.76937,0.11427
1600.84064,0.11099
1598.91192,0.10802
1596.98319,0.10533
1595.05447,0.10266
1593.12575,0.09995
1591.19702,0.09730
1589.26830,0.09475
1587.33958,0.09231
1585.41085,0.08993
1583.48213,0.08762
1581.55341,0.08554
1579.62468,0.08373
1577.69596,0.08178
1575.76723,0.07955
1573.83851,0.07792
1571.90979,0.07695
1569.98106,0.07578
1568.05234,0.07435
1566.12362,0.07327
1564.19489,0.07265
1562.26617,0.07226
1560.33745,0.07136
1558.40872,0.06945
1556.48000,0.06784
1554.55127,0.06711
1552.62255,0.06650
1550.69383,0.06558
1548.76510,0.06450
1546.83638,0.06348
1544.90766,0.06238
1542.97893,0.06080
1541.05021,0.05838
1539.12148,0.05566
1537.19276,0.05396
1535.26404,0.05275
1533.33531,0.05090
1531.40659,0.04877
1529.47787,0.04694
1527.54914,0.04503
1525.62042,0.04286
1523.69170,0.04069
1521.76297,0.03833
1519.83425,0.03598
1517.90552,0.03386
1515.97680,0.03157
1514.04808,0.02926
1512.11935,0.02728
1510.19063,0.02536
1508.26191,0.02244
1506.33318,0.01820
1504.40446,0.01487
1502.47574,0.01309
1500.54701,0.01151
1498.61829,0.00930
1496.68956,0.00681
1494.76084,0.00491
1492.83212,0.00378
1490.90339,0.00282
1488.97467,0.00175
1487.04595,0.00106
1485.11722,0.00101
1483.18850,0.00135
1481.25977,0.00195
1479.33105,0.00287
1477.40233,0.00419
1475.47360,0.00601
1473.54488,0.00845
1471.61616,0.01132
1469.68743,0.01397
1467.75871,0.01626
1465.82999,0.01827
1463.90126,0.01965
1461.97254,0.02033
1460.04381,0.02086
1458.11509,0.02150
1456.18637,0.02195
1454.25764,0.02217
1452.32892,0.02234
1450.40020,0.02249
1448.47147,0.02265
1446.54275,0.02287
1444.61403,0.02324
1442.68530,0.02387
1440.75658,0.02476
1438.82785,0.02572
1436.89913,0.02645
1434.97041,0.02686
1433.04168,0.02742
1431.11296,0.02858
1429.18424,0.02992
1427.25551,0.03066
1425.32679,0.03087
1423.39806,0.03119
1421.46934,0.03183
1419.54062,0.03253
1417.61189,0.03315
1415.68317,0.03368
1413.75445,0.03414
1411.82572,0.03456
1409.89700,0.03509
1407.96828,0.03581
1406.03955,0.03660
1404.11083,0.03720
1402.18210,0.03741
1400.25338,0.03696
1398.32466,0.03567
1396.39593,0.03370
1394.46721,0.03138
1392.53849,0.02921
1390.60976,0.02745
1388.68104,0.02600
1386.75232,0.02467
1384.82359,0.02341
1382.89487,0.02206
1380.96614,0.02062
1379.03742,0.01925
1377.10870,0.01792
1375.17997,0.01634
1373.25125,0.01459
1371.32253,0.01303
1369.39380,0.01166
1367.46508,0.01029
1365.53635,0.00897
1363.60763,0.00758
1361.67891,0.00615
1359.75018,0.00496
1357.82146,0.00406
1355.89274,0.00324
1353.96401,0.00245
1352.03529,0.00176
1350.10657,0.00112
1348.17784,0.00049
1346.24912,0.00000
1344.32039,-0.00029
1342.39167,-0.00048
1340.46295,-0.00075
1338.53422,-0.00117
1336.60550,-0.00158
1334.67678,-0.00183
1332.74805,-0.00195
1330.81933,-0.00198
1328.89061,-0.00185
1326.96188,-0.00144
1325.03316,-0.00076
1323.10443,0.00014
1321.17571,0.00139
1319.24699,0.00331
1317.31826,0.00602
1315.38954,0.00949
1313.46082,0.01354
1311.53209,0.01789
1309.60337,0.02252
1307.67464,0.02812
1305.74592,0.03626
1303.81720,0.04766
1301.88847,0.05882
1299.95975,0.06433
1298.03103,0.06523
1296.10230,0.06642
1294.17358,0.06815
1292.24486,0.06777
1290.31613,0.06482
1288.38741,0.06049
1286.45868,0.05576
1284.52996,0.05132
1282.60124,0.04766
1280.67251,0.04505
1278.74379,0.04375
1276.81507,0.04392
1274.88634,0.04545
1272.95762,0.04822
1271.02890,0.05211
1269.10017,0.05702
1267.17145,0.06296
1265.24272,0.07001
1263.31400,0.07809
1261.38528,0.08727
1259.45655,0.09764
1257.52783,0.10901
1255.59911,0.12115
1253.67038,0.13399
1251.74166,0.14712
1249.81294,0.15993
1247.88421,0.17208
1245.95549,0.18349
1244.02676,0.19423
1242.09804,0.20420
1240.16932,0.21331
1238.24059,0.22174
1236.31187,0.22960
1234.38315,0.23669
1232.45442,0.24303
1230.52570,0.24900
1228.59697,0.25472
1226.66825,0.26011
1224.73953,0.26530
1222.81080,0.27024
1220.88208,0.27480
1218.95336,0.27920
1217.02463,0.28357
1215.09591,0.28780
1213.16719,0.29205
1211.23846,0.29621
1209.30974,0.29999
1207.38101,0.30385
1205.45229,0.30862
1203.52357,0.31452
1201.59484,0.32147
1199.66612,0.33025
1197.73740,0.34201
1195.80867,0.35651
1193.87995,0.37147
1191.95123,0.38242
1190.02250,0.38666
1188.09378,0.38820
1186.16505,0.39118
1184.23633,0.39337
1182.30761,0.39101
1180.37888,0.38560
1178.45016,0.38011
1176.52144,0.37503
1174.59271,0.37025
1172.66399,0.36615
1170.73526,0.36265
1168.80654,0.35966
1166.87782,0.35765
1164.94909,0.35670
1163.02037,0.35614
1161.09165,0.35562
1159.16292,0.35554
1157.23420,0.35606
1155.30548,0.35708
1153.37675,0.35874
1151.44803,0.36079
1149.51930,0.36262
1147.59058,0.36421
1145.66186,0.36592
1143.73313,0.36777
1141.80441,0.36943
1139.87569,0.37124
1137.94696,0.37406
1136.01824,0.37760
1134.08952,0.38096
1132.16079,0.38410
1130.23207,0.38770
1128.30334,0.39182
1126.37462,0.39616
1124.44590,0.40101
1122.51717,0.40703
1120.58845,0.41434
1118.65973,0.42234
1116.73100,0.43068
1114.80228,0.43909
1112.87355,0.44702
1110.94483,0.45454
1109.01611,0.46288
1107.08738,0.47282
1105.15866,0.48170
1103.22994,0.48648
1101.30121,0.48949
1099.37249,0.49346
1097.44377,0.49711
1095.51504,0.49864
1093.58632,0.49793
1091.65759,0.49538
1089.72887,0.49184
1087.80015,0.48812
1085.87142,0.48469
1083.94270,0.48187
1082.01398,0.47920
1080.08525,0.47580
1078.15653,0.47187
1076.22781,0.46774
1074.29908,0.46314
1072.37036,0.45847
1070.44163,0.45392
1068.51291,0.44867
1066.58419,0.44243
1064.65546,0.43581
1062.72674,0.42934
1060.79802,0.42277
1058.86929,0.41578
1056.94057,0.40821
1055.01184,0.39987
1053.08312,0.39105
1051.15440,0.38260
1049.22567,0.37467
1047.29695,0.36652
1045.36823,0.35809
1043.43950,0.34979
1041.51078,0.34160
1039.58206,0.33338
1037.65333,0.32494
1035.72461,0.31640
1033.79588,0.30813
1031.86716,0.30014
1029.93844,0.29230
1028.00971,0.28473
1026.08099,0.27740
1024.15227,0.27020
1022.22354,0.26320
1020.29482,0.25645
1018.36610,0.25009
1016.43737,0.24416
1014.50865,0.23838
1012.57992,0.23258
1010.65120,0.22696
1008.72248,0.22185
1006.79375,0.21718
1004.86503,0.21256
1002.93631,0.20802
1001.00758,0.20379
999.07886,0.19993
997.15013,0.19627
995.22141,0.19271
993.29269,0.18955
991.36396,0.18699
989.43524,0.18465
987.50652,0.18214
985.57779,0.17972
983.64907,0.17763
981.72035,0.17579
979.79162,0.17434
977.86290,0.17348
975.93417,0.17300
974.00545,0.17255
972.07673,0.17167
970.14800,0.17013
968.21928,0.16833
966.29056,0.16660
964.36183,0.16494
962.43311,0.16327
960.50439,0.16160
958.57566,0.15984
956.64694,0.15780
954.71821,0.15557
952.78949,0.15342
950.86077,0.15142
948.93204,0.14925
947.00332,0.14688
945.07460,0.14465
943.14587,0.14246
941.21715,0.14002
939.28842,0.13732
937.35970,0.13447
935.43098,0.13164
933.50225,0.12885
931.57353,0.12594
929.64481,0.12293
927.71608,0.11960
925.78736,0.11576
923.85864,0.11177
921.92991,0.10790
920.00119,0.10399
918.07246,0.10015
916.14374,0.09638
914.21502,0.09238
912.28629,0.08831
910.35757,0.08430
908.42885,0.08012
906.50012,0.07593
904.57140,0.07184
902.64268,0.06736
900.71395,0.06268
898.78523,0.05846
896.85650,0.05463
894.92778,0.05115
892.99906,0.04806
891.07033,0.04477
889.14161,0.04113
887.21289,0.03755
885.28416,0.03411
883.35544,0.03062
881.42671,0.02723
879.49799,0.02429
877.56927,0.02183
875.64054,0.01958
873.71182,0.01730
871.78310,0.01492
869.85437,0.01245
867.92565,0.01008
865.99693,0.00794
864.06820,0.00609
862.13948,0.00473
860.21075,0.00384
858.28203,0.00303
856.35331,0.00196
854.42458,0.00081
852.49586,0.00000
850.56714,-0.00042
848.63841,-0.00053
846.70969,-0.00002
844.78097,0.00156
842.85224,0.00372
840.92352,0.00560
838.99479,0.00743
837.06607,0.00984
835.13735,0.01273
833.20862,0.01565
831.27990,0.01845
829.35118,0.02145
827.42245,0.02487
825.49373,0.02833
823.56501,0.03164
821.63628,0.03508
819.70756,0.03859
817.77883,0.04198
815.85011,0.04535
813.92139,0.04877
811.99266,0.05215
810.06394,0.05541
808.13522,0.05848
806.20649,0.06151
804.27777,0.06440
802.34904,0.06654
800.42032,0.06777
798.49160,0.06841
796.56287,0.06841
794.63415,0.06750
792.70543,0.06584
790.77670,0.06372
788.84798,0.06123
786.91926,0.05843
784.99053,0.05532
783.06181,0.05206
781.13308,0.04879
779.20436,0.04509
777.27564,0.04082
775.34691,0.03620
773.41819,0.03144
771.48947,0.02714
769.56074,0.02389
767.63202,0.02153
765.70330,0.01985
763.77457,0.01887
761.84585,0.01834
759.91712,0.01768
757.98840,0.01679
756.05968,0.01594
754.13095,0.01515
752.20223,0.01444
750.27351,0.01418
748.34478,0.01437
746.41606,0.01436
744.48733,0.01402
742.55861,0.01368
740.62989,0.01336
738.70116,0.01288
736.77244,0.01242
734.84372,0.01242
732.91499,0.01264
730.98627,0.01281
729.05755,0.01321
727.12882,0.01359
725.20010,0.01360
723.27137,0.01371
721.34265,0.01381
719.41393,0.01381
717.48520,0.01391
715.55648,0.01416
713.62776,0.01425
711.69903,0.01421
709.77031,0.01463
707.84159,0.01569
705.91286,0.01656
703.98414,0.01684
702.05541,0.01736
700.12669,0.01848
698.19797,0.01961
696.26924,0.02027
694.34052,0.02028
692.41180,0.01973
690.48307,0.01939
688.55435,0.01994
686.62562,0.02118
684.69690,0.02258
682.76818,0.02395
680.83945,0.02515
678.91073,0.02589
676.98201,0.02642
675.05328,0.02690
673.12456,0.02692
671.19584,0.02640
669.26711,0.02635
667.33839,0.02737
665.40966,0.02804
663.48094,0.02773
661.55222,0.02784
659.62349,0.02897
657.69477,0.03005
655.76605,0.03042
653.83732,0.03064
651.90860,0.03132
649.97988,0.03233
648.05115,0.03310
646.12243,0.03357
644.19370,0.03453
642.26498,0.03640
640.33626,0.03858
638.40753,0.04038
636.47881,0.04149
634.55009,0.04207
632.62136,0.04272
630.69264,0.04358
628.76391,0.04412
626.83519,0.04432
624.90647,0.04533
622.97774,0.04718
621.04902,0.04847
619.12030,0.04885
617.19157,0.04957
615.26285,0.05106
613.33413,0.05235
611.40540,0.05325
609.47668,0.05487
607.54795,0.05731
605.61923,0.05935
603.69051,0.06058
601.76178,0.06173
599.83306,0.06334
597.90434,0.06534
595.97561,0.06724
594.04689,0.06836
592.11817,0.06846
590.18944,0.06854
588.26072,0.06959
586.33199,0.07098
584.40327,0.07147
582.47455,0.07121
580.54582,0.07170
578.61710,0.07357
576.68838,0.07524
574.75965,0.07575
572.83093,0.07597
570.90220,0.07592
568.97348,0.07553
567.04476,0.07560
565.11603,0.07613
563.18731,0.07646
561.25859,0.07590
559.32986,0.07475
557.40114,0.07433
555.47242,0.07517
553.54369,0.07654
551.61497,0.07768
549.68624,0.07866
547.75752,0.07989
545.82880,0.08116
543.90007,0.08213
541.97135,0.08221
540.04263,0.08107
538.11390,0.08015
536.18518,0.08025
534.25646,0.08017
532.32773,0.07896
530.39901,0.07714
528.47028,0.07603
526.54156,0.07652
524.61284,0.07794
522.68411,0.07876
520.75539,0.07886
518.82667,0.07958
516.89794,0.08155
514.96922,0.08427
513.04049,0.08756
511.11177,0.09136
509.18305,0.09498
507.25432,0.09793
505.32560,0.10060
503.39688,0.10439
501.46815,0.11073
499.53943,0.11872
497.61071,0.12605
495.68198,0.13256
493.75326,0.14058
491.82453,0.15060
489.89581,0.16016
487.96709,0.16887
486.03836,0.17799
484.10964,0.18700
482.18092,0.19579
480.25219,0.20544
478.32347,0.21461
476.39475,0.21963
474.46602,0.22010
472.53730,0.22093
470.60857,0.22562
468.67985,0.23091
466.75113,0.23211
464.82240,0.22983
462.89368,0.22889
460.96496,0.23034
459.03623,0.22857
457.10751,0.21984
455.17878,0.20760
453.25006,0.19520
451.32134,0.18400
449.39261,0.17696
447.46389,0.17429
445.53517,0.17050
443.60644,0.16214
441.67772,0.15300
439.74900,0.14713
437.82027,0.14370
435.89155,0.13989
433.96282,0.13336
432.03410,0.12450
430.10538,0.11665
428.17665,0.10952
426.24793,0.09874
424.31921,0.08519
422.39048,0.07383
420.46176,0.06688
418.53304,0.06554
416.60431,0.06849
414.67559,0.06949
412.74686,0.06478
410.81814,0.05679
408.88942,0.05010
406.96069,0.04584
405.03197,0.04295
403.10325,0.04044
401.17452,0.03423
399.24580,0.02245
397.31708,0.01584
395.38835,0.01781
393.45963,0.01293
391.53090,0.00319
389.60218,0.00276
387.67346,0.00966
385.74473,0.00961
383.81601,0.00000
381.88729,0.00068
379.95856,0.02807
378.02984,0.05787
376.10111,0.05010
374.17239,0.01781
372.24367,0.00592
370.31494,0.00660
368.38622,0.00000
