3996.31543,0.00019
3994.38671,0.00003
3992.45799,-0.00001
3990.52926,0.00015
3988.60054,0.00027
3986.67182,0.00015
3984.74309,0.00000
3982.81437,0.00007
3980.88564,0.00028
3978.95692,0.00043
3977.02820,0.00051
3975.09947,0.00057
3973.17075,0.00062
3971.24203,0.00066
3969.31330,0.00068
3967.38458,0.00070
3965.45586,0.00079
3963.52713,0.00086
3961.59841,0.00074
3959.66968,0.00053
3957.74096,0.00050
3955.81224,0.00067
3953.88351,0.00091
3951.95479,0.00108
3950.02607,0.00108
3948.09734,0.00097
3946.16862,0.00100
3944.23990,0.00115
3942.31117,0.00109
3940.38245,0.00090
3938.45372,0.00089
3936.52500,0.00117
3934.59628,0.00156
3932.66755,0.00165
3930.73883,0.00139
3928.81011,0.00114
3926.88138,0.00101
3924.95266,0.00087
3923.02393,0.00083
3921.09521,0.00107
3919.16649,0.00123
3917.23776,0.00099
3915.30904,0.00063
3913.38032,0.00056
3911.45159,0.00077
3909.52287,0.00114
3907.59415,0.00173
3905.66542,0.00222
3903.73670,0.00211
3901.80797,0.00150
3899.87925,0.00084
3897.95053,0.00051
3896.02180,0.00083
3894.09308,0.00144
3892.16436,0.00158
3890.23563,0.00133
3888.30691,0.00144
3886.37819,0.00172
3884.44946,0.00169
3882.52074,0.00142
3880.59201,0.00084
3878.66329,0.00035
3876.73457,0.00065
3874.80584,0.00122
3872.87712,0.00142
3870.94840,0.00122
3869.01967,0.00096
3867.09095,0.00117
3865.16222,0.00155
3863.23350,0.00140
3861.30478,0.00109
3859.37605,0.00143
3857.44733,0.00250
3855.51861,0.00334
3853.58988,0.00237
3851.66116,0.00044
3849.73244,0.00000
3847.80371,0.00084
3845.87499,0.00182
3843.94626,0.00242
3842.01754,0.00265
3840.08882,0.00249
3838.16009,0.00170
3836.23137,0.00072
3834.30265,0.00037
3832.37392,0.00054
3830.44520,0.00082
3828.51648,0.00118
3826.58775,0.00169
3824.65903,0.00234
3822.73030,0.00270
3820.80158,0.00226
3818.87286,0.00169
3816.94413,0.00146
3815.01541,0.00110
3813.08669,0.00101
3811.15796,0.00159
3809.22924,0.00232
3807.30052,0.00256
3805.37179,0.00269
3803.44307,0.00313
3801.51434,0.00318
3799.58562,0.00272
3797.65690,0.00242
3795.72817,0.00223
3793.79945,0.00217
3791.87073,0.00244
3789.94200,0.00292
3788.01328,0.00340
3786.08455,0.00373
3784.15583,0.00389
3782.22711,0.00410
3780.29838,0.00433
3778.36966,0.00439
3776.44094,0.00455
3774.51221,0.00503
3772.58349,0.00560
3770.65477,0.00594
3768.72604,0.00601
3766.79732,0.00606
3764.86859,0.00631
3762.93987,0.00694
3761.01115,0.00771
3759.08242,0.00810
3757.15370,0.00844
3755.22498,0.00949
3753.29625,0.01094
3751.36753,0.01160
3749.43881,0.01139
3747.51008,0.01166
3745.58136,0.01241
3743.65263,0.01298
3741.72391,0.01398
3739.79519,0.01574
3737.86646,0.01752
3735.93774,0.01847
3734.00902,0.01873
3732.08029,0.01948
3730.15157,0.02126
3728.22284,0.02359
3726.29412,0.02578
3724.36540,0.02763
3722.43667,0.02951
3720.50795,0.03173
3718.57923,0.03428
3716.65050,0.03712
3714.72178,0.04016
3712.79306,0.04321
3710.86433,0.04609
3708.93561,0.04911
3707.00688,0.05264
3705.07816,0.05661
3703.14944,0.06077
3701.22071,0.06492
3699.29199,0.06889
3697.36327,0.07271
3695.43454,0.07654
3693.50582,0.08040
3691.57710,0.08434
3689.64837,0.08832
3687.71965,0.09229
3685.79092,0.09641
3683.86220,0.10090
3681.93348,0.10585
3680.00475,0.11111
3678.07603,0.11655
3676.14731,0.12208
3674.21858,0.12725
3672.28986,0.13192
3670.36113,0.13663
3668.43241,0.14139
3666.50369,0.14600
3664.57496,0.15057
3662.64624,0.15502
3660.71752,0.15919
3658.78879,0.16315
3656.86007,0.16715
3654.93135,0.17123
3653.00262,0.17528
3651.07390,0.17919
3649.14517,0.18264
3647.21645,0.18567
3645.28773,0.18888
3643.35900,0.19230
3641.43028,0.19567
3639.50156,0.19891
3637.57283,0.20217
3635.64411,0.20546
3633.71539,0.20878
3631.78666,0.21215
3629.85794,0.21520
3627.92921,0.21742
3626.00049,0.21949
3624.07177,0.22223
3622.14304,0.22525
3620.21432,0.22769
3618.28560,0.22932
3616.35687,0.23088
3614.42815,0.23279
3612.49942,0.23475
3610.57070,0.23664
3608.64198,0.23848
3606.71325,0.24028
3604.78453,0.24216
3602.85581,0.24418
3600.92708,0.24617
3598.99836,0.24799
3597.06964,0.24970
3595.14091,0.25144
3593.21219,0.25337
3591.28346,0.25559
3589.35474,0.25783
3587.42602,0.25956
3585.49729,0.26087
3583.56857,0.26238
3581.63985,0.26419
3579.71112,0.26599
3577.78240,0.26770
3575.85368,0.26939
3573.92495,0.27111
3571.99623,0.27295
3570.06750,0.27486
3568.13878,0.27644
3566.21006,0.27746
3564.28133,0.27843
3562.35261,0.27973
3560.42389,0.28122
3558.49516,0.28279
3556.56644,0.28437
3554.63771,0.28583
3552.70899,0.28717
3550.78027,0.28855
3548.85154,0.29005
3546.92282,0.29147
3544.99410,0.29264
3543.06537,0.29376
3541.13665,0.29501
3539.20793,0.29627
3537.27920,0.29741
3535.35048,0.29854
3533.42175,0.29988
3531.49303,0.30135
3529.56431,0.30269
3527.63558,0.30374
3525.70686,0.30457
3523.77814,0.30539
3521.84941,0.30646
3519.92069,0.30779
3517.99197,0.30915
3516.06324,0.31030
3514.13452,0.31125
3512.20579,0.31217
3510.27707,0.31322
3508.34835,0.31434
3506.41962,0.31545
3504.49090,0.31652
3502.56218,0.31750
3500.63345,0.31845
3498.70473,0.31954
3496.77600,0.32076
3494.84728,0.32196
3492.91856,0.32297
3490.98983,0.32373
3489.06111,0.32434
3487.13239,0.32501
3485.20366,0.32589
3483.27494,0.32687
3481.34622,0.32781
3479.41749,0.32867
3477.48877,0.32949
3475.56004,0.33026
3473.63132,0.33096
3471.70260,0.33151
3469.77387,0.33206
3467.84515,0.33289
3465.91643,0.33381
3463.98770,0.33449
3462.05898,0.33495
3460.13026,0.33537
3458.20153,0.33589
3456.27281,0.33657
3454.34408,0.33735
3452.41536,0.33809
3450.48664,0.33870
3448.55791,0.33908
3446.62919,0.33913
3444.70047,0.33909
3442.77174,0.33935
3440.84302,0.33999
3438.91429,0.34076
3436.98557,0.34127
3435.05685,0.34141
3433.12812,0.34154
3431.19940,0.34188
3429.27068,0.34230
3427.34195,0.34271
3425.41323,0.34306
3423.48451,0.34318
3421.55578,0.34313
3419.62706,0.34321
3417.69833,0.34352
3415.76961,0.34383
3413.84089,0.34399
3411.91216,0.34408
3409.98344,0.34426
3408.05472,0.34443
3406.12599,0.34453
3404.19727,0.34469
3402.26855,0.34499
3400.33982,0.34526
3398.41110,0.34519
3396.48237,0.34482
3394.55365,0.34454
3392.62493,0.34461
3390.69620,0.34484
3388.76748,0.34491
3386.83876,0.34470
3384.91003,0.34440
3382.98131,0.34426
3381.05259,0.34426
3379.12386,0.34417
3377.19514,0.34396
3375.26641,0.34377
3373.33769,0.34364
3371.40897,0.34332
3369.48024,0.34274
3367.55152,0.34228
3365.62280,0.34222
3363.69407,0.34234
3361.76535,0.34220
3359.83662,0.34175
3357.90790,0.34135
3355.97918,0.34122
3354.05045,0.34110
3352.12173,0.34074
3350.19301,0.34027
3348.26428,0.33985
3346.33556,0.33941
3344.40684,0.33891
3342.47811,0.33844
3340.54939,0.33805
3338.62066,0.33764
3336.69194,0.33713
3334.76322,0.33671
3332.83449,0.33647
3330.90577,0.33625
3328.97705,0.33599
3327.04832,0.33556
3325.11960,0.33487
3323.19088,0.33423
3321.26215,0.33386
3319.33343,0.33361
3317.40470,0.33335
3315.47598,0.33305
3313.54726,0.33275
3311.61853,0.33242
3309.68981,0.33203
3307.76109,0.33162
3305.83236,0.33121
3303.90364,0.33072
3301.97491,0.33015
3300.04619,0.32962
3298.11747,0.32920
3296.18874,0.32890
3294.26002,0.32862
3292.33130,0.32816
3290.40257,0.32757
3288.47385,0.32708
3286.54513,0.32669
3284.61640,0.32629
3282.68768,0.32586
3280.75895,0.32541
3278.83023,0.32499
3276.90151,0.32466
3274.97278,0.32426
3273.04406,0.32362
3271.11534,0.32294
3269.18661,0.32249
3267.25789,0.32204
3265.32917,0.32134
3263.40044,0.32059
3261.47172,0.32005
3259.54299,0.31964
3257.61427,0.31913
3255.68555,0.31845
3253.75682,0.31772
3251.82810,0.31706
3249.89938,0.31643
3247.97065,0.31571
3246.04193,0.31496
3244.11320,0.31427
3242.18448,0.31370
3240.25576,0.31317
3238.32703,0.31260
3236.39831,0.31206
3234.46959,0.31153
3232.54086,0.31089
3230.61214,0.31009
3228.68342,0.30915
3226.75469,0.30819
3224.82597,0.30727
3222.89724,0.30645
3220.96852,0.30576
3219.03980,0.30519
3217.11107,0.30458
3215.18235,0.30372
3213.25363,0.30280
3211.32490,0.30203
3209.39618,0.30125
3207.46746,0.30037
3205.53873,0.29944
3203.61001,0.29851
3201.68128,0.29765
3199.75256,0.29674
3197.82384,0.29572
3195.89511,0.29476
3193.96639,0.29376
3192.03767,0.29262
3190.10894,0.29140
3188.18022,0.29026
3186.25149,0.28922
3184.32277,0.28831
3182.39405,0.28746
3180.46532,0.28648
3178.53660,0.28541
3176.60788,0.28441
3174.67915,0.28334
3172.75043,0.28210
3170.82171,0.28094
3168.89298,0.27986
3166.96426,0.27870
3165.03553,0.27749
3163.10681,0.27639
3161.17809,0.27535
3159.24936,0.27428
3157.32064,0.27324
3155.39192,0.27225
3153.46319,0.27122
3151.53447,0.27019
3149.60575,0.26916
3147.67702,0.26809
3145.74830,0.26687
3143.81957,0.26561
3141.89085,0.26446
3139.96213,0.26342
3138.03340,0.26240
3136.10468,0.26141
3134.17596,0.26046
3132.24723,0.25942
3130.31851,0.25823
3128.38978,0.25696
3126.46106,0.25580
3124.53234,0.25471
3122.60361,0.25353
3120.67489,0.25227
3118.74617,0.25112
3116.81744,0.25019
3114.88872,0.24935
3112.96000,0.24842
3111.03127,0.24725
3109.10255,0.24592
3107.17382,0.24467
3105.24510,0.24350
3103.31638,0.24219
3101.38765,0.24080
3099.45893,0.23953
3097.53021,0.23832
3095.60148,0.23699
3093.67276,0.23571
3091.74404,0.23460
3089.81531,0.23346
3087.88659,0.23220
3085.95786,0.23092
3084.02914,0.22963
3082.10042,0.22832
3080.17169,0.22704
3078.24297,0.22581
3076.31425,0.22466
3074.38552,0.22354
3072.45680,0.22230
3070.52807,0.22099
3068.59935,0.21973
3066.67063,0.21854
3064.74190,0.21734
3062.81318,0.21603
3060.88446,0.21461
3058.95573,0.21315
3057.02701,0.21172
3055.09829,0.21040
3053.16956,0.20918
3051.24084,0.20792
3049.31211,0.20664
3047.38339,0.20544
3045.45467,0.20428
3043.52594,0.20309
3041.59722,0.20190
3039.66850,0.20067
3037.73977,0.19945
3035.81105,0.19842
3033.88233,0.19750
3031.95360,0.19649
3030.02488,0.19537
3028.09615,0.19429
3026.16743,0.19327
3024.23871,0.19220
3022.30998,0.19107
3020.38126,0.19000
3018.45254,0.18902
3016.52381,0.18804
3014.59509,0.18708
3012.66636,0.18612
3010.73764,0.18515
3008.80892,0.18421
3006.88019,0.18323
3004.95147,0.18226
3003.02275,0.18144
3001.09402,0.18069
2999.16530,0.17986
2997.23658,0.17904
2995.30785,0.17840
2993.37913,0.17779
2991.45040,0.17709
2989.52168,0.17645
2987.59296,0.17603
2985.66423,0.17578
2983.73551,0.17560
2981.80679,0.17534
2979.87806,0.17497
2977.94934,0.17464
2976.02062,0.17448
2974.09189,0.17447
2972.16317,0.17450
2970.23444,0.17453
2968.30572,0.17467
2966.37700,0.17498
2964.44827,0.17527
2962.51955,0.17539
2960.59083,0.17530
2958.66210,0.17504
2956.73338,0.17465
2954.80466,0.17419
2952.87593,0.17376
2950.94721,0.17339
2949.01848,0.17314
2947.08976,0.17322
2945.16104,0.17362
2943.23231,0.17421
2941.30359,0.17506
2939.37487,0.17616
2937.44614,0.17732
2935.51742,0.17856
2933.58869,0.17990
2931.65997,0.18114
2929.73125,0.18199
2927.80252,0.18231
2925.87380,0.18202
2923.94508,0.18114
2922.01635,0.17964
2920.08763,0.17740
2918.15891,0.17439
2916.23018,0.17084
2914.30146,0.16719
2912.37273,0.16379
2910.44401,0.16074
2908.51529,0.15799
2906.58656,0.15555
2904.65784,0.15344
2902.72912,0.15150
2900.80039,0.14957
2898.87167,0.14770
2896.94295,0.14593
2895.01422,0.14426
2893.08550,0.14266
2891.15677,0.14110
2889.22805,0.13956
2887.29933,0.13807
2885.37060,0.13672
2883.44188,0.13559
2881.51316,0.13461
2879.58443,0.13378
2877.65571,0.13308
2875.72698,0.13245
2873.79826,0.13176
2871.86954,0.13093
2869.94081,0.13011
2868.01209,0.12945
2866.08337,0.12895
2864.15464,0.12869
2862.22592,0.12890
2860.29720,0.12964
2858.36847,0.13062
2856.43975,0.13145
2854.51102,0.13171
2852.58230,0.13094
2850.65358,0.12874
2848.72485,0.12524
2846.79613,0.12115
2844.86741,0.11718
2842.93868,0.11361
2841.00996,0.11049
2839.08124,0.10790
2837.15251,0.10579
2835.22379,0.10396
2833.29506,0.10230
2831.36634,0.10078
2829.43762,0.09943
2827.50889,0.09822
2825.58017,0.09700
2823.65145,0.09577
2821.72272,0.09465
2819.79400,0.09361
2817.86527,0.09259
2815.93655,0.09159
2814.00783,0.09062
2812.07910,0.08971
2810.15038,0.08884
2808.22166,0.08792
2806.29293,0.08698
2804.36421,0.08608
2802.43549,0.08520
2800.50676,0.08433
2798.57804,0.08352
2796.64931,0.08271
2794.72059,0.08186
2792.79187,0.08107
2790.86314,0.08028
2788.93442,0.07935
2787.00570,0.07836
2785.07697,0.07751
2783.14825,0.07676
2781.21953,0.07602
2779.29080,0.07529
2777.36208,0.07464
2775.43335,0.07400
2773.50463,0.07328
2771.57591,0.07253
2769.64718,0.07179
2767.71846,0.07103
2765.78974,0.07025
2763.86101,0.06950
2761.93229,0.06880
2760.00356,0.06816
2758.07484,0.06751
2756.14612,0.06685
2754.21739,0.06621
2752.28867,0.06561
2750.35995,0.06502
2748.43122,0.06442
2746.50250,0.06376
2744.57378,0.06302
2742.64505,0.06230
2740.71633,0.06168
2738.78760,0.06111
2736.85888,0.06050
2734.93016,0.05988
2733.00143,0.05930
2731.07271,0.05872
2729.14399,0.05815
2727.21526,0.05762
2725.28654,0.05702
2723.35782,0.05630
2721.42909,0.05551
2719.50037,0.05476
2717.57164,0.05413
2715.64292,0.05363
2713.71420,0.05309
2711.78547,0.05246
2709.85675,0.05184
2707.92803,0.05130
2705.99930,0.05077
2704.07058,0.05016
2702.14185,0.04948
2700.21313,0.04886
2698.28441,0.04842
2696.35568,0.04801
2694.42696,0.04750
2692.49824,0.04691
2690.56951,0.04631
2688.64079,0.04580
2686.71207,0.04539
2684.78334,0.04492
2682.85462,0.04433
2680.92589,0.04377
2678.99717,0.04329
2677.06845,0.04283
2675.13972,0.04237
2673.21100,0.04188
2671.28228,0.04140
2669.35355,0.04094
2667.42483,0.04042
2665.49611,0.03982
2663.56738,0.03923
2661.63866,0.03869
2659.70993,0.03816
2657.78121,0.03767
2655.85249,0.03727
2653.92376,0.03687
2651.99504,0.03644
2650.06632,0.03599
2648.13759,0.03558
2646.20887,0.03516
2644.28014,0.03467
2642.35142,0.03416
2640.42270,0.03366
2638.49397,0.03320
2636.56525,0.03278
2634.63653,0.03234
2632.70780,0.03186
2630.77908,0.03140
2628.85036,0.03098
2626.92163,0.03057
2624.99291,0.03014
2623.06418,0.02969
2621.13546,0.02933
2619.20674,0.02905
2617.27801,0.02864
2615.34929,0.02814
2613.42057,0.02769
2611.49184,0.02736
2609.56312,0.02709
2607.63440,0.02679
2605.70567,0.02644
2603.77695,0.02602
2601.84822,0.02557
2599.91950,0.02516
2597.99078,0.02481
2596.06205,0.02450
2594.13333,0.02415
2592.20461,0.02372
2590.27588,0.02333
2588.34716,0.02300
2586.41843,0.02268
2584.48971,0.02238
2582.56099,0.02214
2580.63226,0.02183
2578.70354,0.02146
2576.77482,0.02112
2574.84609,0.02086
2572.91737,0.02058
2570.98865,0.02024
2569.05992,0.01989
2567.13120,0.01959
2565.20247,0.01930
2563.27375,0.01900
2561.34503,0.01870
2559.41630,0.01842
2557.48758,0.01818
2555.55886,0.01795
2553.63013,0.01770
2551.70141,0.01746
2549.77269,0.01723
2547.84396,0.01699
2545.91524,0.01671
2543.98651,0.01646
2542.05779,0.01622
2540.12907,0.01598
2538.20034,0.01575
2536.27162,0.01550
2534.34290,0.01522
2532.41417,0.01500
2530.48545,0.01484
2528.55673,0.01464
2526.62800,0.01439
2524.69928,0.01411
2522.77055,0.01386
2520.84183,0.01372
2518.91311,0.01360
2516.98438,0.01335
2515.05566,0.01303
2513.12694,0.01280
2511.19821,0.01264
2509.26949,0.01248
2507.34076,0.01227
2505.41204,0.01206
2503.48332,0.01189
2501.55459,0.01173
2499.62587,0.01156
2497.69715,0.01132
2495.76842,0.01105
2493.83970,0.01085
2491.91098,0.01072
2489.98225,0.01058
2488.05353,0.01041
2486.12480,0.01022
2484.19608,0.00999
2482.26736,0.00975
2480.33863,0.00957
2478.40991,0.00946
2476.48119,0.00937
2474.55246,0.00925
2472.62374,0.00902
2470.69502,0.00873
2468.76629,0.00846
2466.83757,0.00823
2464.90884,0.00808
2462.98012,0.00798
2461.05140,0.00786
2459.12267,0.00770
2457.19395,0.00752
2455.26523,0.00730
2453.33650,0.00705
2451.40778,0.00687
2449.47905,0.00676
2447.55033,0.00660
2445.62161,0.00636
2443.69288,0.00616
2441.76416,0.00604
2439.83544,0.00597
2437.90671,0.00587
2435.97799,0.00573
2434.04927,0.00561
2432.12054,0.00545
2430.19182,0.00528
2428.26309,0.00515
2426.33437,0.00499
2424.40565,0.00476
2422.47692,0.00453
2420.54820,0.00439
2418.61948,0.00433
2416.69075,0.00428
2414.76203,0.00420
2412.83331,0.00408
2410.90458,0.00391
2408.97586,0.00377
2407.04713,0.00366
2405.11841,0.00352
2403.18969,0.00336
2401.26096,0.00323
2399.33224,0.00317
2397.40352,0.00311
2395.47479,0.00302
2393.54607,0.00289
2391.61734,0.00277
2389.68862,0.00264
2387.75990,0.00252
2385.83117,0.00245
2383.90245,0.00248
2381.97373,0.00263
2380.04500,0.00281
2378.11628,0.00292
2376.18756,0.00297
2374.25883,0.00302
2372.33011,0.00310
2370.40138,0.00321
2368.47266,0.00330
2366.54394,0.00326
2364.61521,0.00311
2362.68649,0.00294
2360.75777,0.00267
2358.82904,0.00232
2356.90032,0.00201
2354.97160,0.00179
2353.04287,0.00162
2351.11415,0.00162
2349.18542,0.00188
2347.25670,0.00218
2345.32798,0.00223
2343.39925,0.00208
2341.47053,0.00193
2339.54181,0.00188
2337.61308,0.00187
2335.68436,0.00184
2333.75563,0.00173
2331.82691,0.00152
2329.89819,0.00125
2327.96946,0.00103
2326.04074,0.00093
2324.11202,0.00089
2322.18329,0.00087
2320.25457,0.00084
2318.32585,0.00075
2316.39712,0.00063
2314.46840,0.00053
2312.53967,0.00047
2310.61095,0.00047
2308.68223,0.00049
2306.75350,0.00043
2304.82478,0.00031
2302.89606,0.00021
2300.96733,0.00017
2299.03861,0.00016
2297.10989,0.00017
2295.18116,0.00017
2293.25244,0.00012
2291.32371,0.00007
2289.39499,0.00006
2287.46627,0.00009
2285.53754,0.00013
2283.60882,0.00017
2281.68010,0.00019
2279.75137,0.00019
2277.82265,0.00016
2275.89392,0.00007
2273.96520,-0.00003
2272.03648,-0.00004
2270.10775,0.00001
2268.17903,0.00005
2266.25031,0.00005
2264.32158,0.00002
2262.39286,0.00000
2260.46414,0.00001
2258.53541,-0.00000
2256.60669,-0.00004
2254.67796,-0.00007
2252.74924,-0.00008
2250.82052,-0.00009
2248.89179,-0.00009
2246.96307,-0.00009
2245.03435,-0.00012
2243.10562,-0.00009
2241.17690,-0.00006
2239.24818,-0.00007
2237.31945,-0.00010
2235.39073,-0.00018
2233.46200,-0.00027
2231.53328,-0.00031
2229.60456,-0.00025
2227.67583,-0.00016
2225.74711,-0.00013
2223.81839,-0.00013
2221.88966,-0.00015
2219.96094,-0.00016
2218.03221,-0.00017
2216.10349,-0.00016
2214.17477,-0.00012
2212.24604,-0.00009
2210.31732,-0.00005
2208.38860,-0.00001
2206.45987,0.00000
2204.53115,-0.00000
2202.60243,0.00004
2200.67370,0.00009
2198.74498,0.00014
2196.81625,0.00017
2194.88753,0.00015
2192.95881,0.00012
2191.03008,0.00014
2189.10136,0.00023
2187.17264,0.00029
2185.24391,0.00026
2183.31519,0.00023
2181.38647,0.00027
2179.45774,0.00029
2177.52902,0.00024
2175.60029,0.00017
2173.67157,0.00016
2171.74285,0.00020
2169.81412,0.00030
2167.88540,0.00041
2165.95668,0.00049
2164.02795,0.00048
2162.09923,0.00046
2160.17050,0.00048
2158.24178,0.00053
2156.31306,0.00055
2154.38433,0.00054
2152.45561,0.00052
2150.52689,0.00053
2148.59816,0.00055
2146.66944,0.00059
2144.74072,0.00063
2142.81199,0.00063
2140.88327,0.00057
2138.95454,0.00047
2137.02582,0.00040
2135.09710,0.00042
2133.16837,0.00051
2131.23965,0.00057
2129.31093,0.00057
2127.38220,0.00051
2125.45348,0.00047
2123.52476,0.00048
2121.59603,0.00048
2119.66731,0.00041
2117.73858,0.00034
2115.80986,0.00033
2113.88114,0.00037
2111.95241,0.00036
2110.02369,0.00029
2108.09497,0.00022
2106.16624,0.00018
2104.23752,0.00016
2102.30880,0.00015
2100.38007,0.00016
2098.45135,0.00013
2096.52262,0.00005
2094.59390,0.00000
2092.66518,-0.00005
2090.73645,-0.00009
2088.80773,-0.00018
2086.87901,-0.00027
2084.95028,-0.00032
2083.02156,-0.00034
2081.09283,-0.00035
2079.16411,-0.00033
2077.23539,-0.00036
2075.30666,-0.00045
2073.37794,-0.00050
2071.44922,-0.00051
2069.52049,-0.00053
2067.59177,-0.00052
2065.66305,-0.00049
2063.73432,-0.00049
2061.80560,-0.00047
2059.87687,-0.00037
2057.94815,-0.00024
2056.01943,-0.00015
2054.09070,-0.00008
2052.16198,0.00004
2050.23326,0.00022
2048.30453,0.00038
2046.37581,0.00056
2044.44709,0.00078
2042.51836,0.00098
2040.58964,0.00107
2038.66091,0.00117
2036.73219,0.00140
2034.80347,0.00172
2032.87474,0.00202
2030.94602,0.00228
2029.01730,0.00254
2027.08857,0.00279
2025.15985,0.00303
2023.23112,0.00323
2021.30240,0.00343
2019.37368,0.00369
2017.44495,0.00385
2015.51623,0.00383
2013.58751,0.00382
2011.65878,0.00399
2009.73006,0.00421
2007.80134,0.00436
2005.87261,0.00446
2003.94389,0.00459
2002.01516,0.00470
2000.08644,0.00472
1998.15772,0.00469
1996.22899,0.00468
1994.30027,0.00466
1992.37155,0.00452
1990.44282,0.00434
1988.51410,0.00426
1986.58538,0.00421
1984.65665,0.00416
1982.72793,0.00410
1980.79920,0.00401
1978.87048,0.00387
1976.94176,0.00373
1975.01303,0.00354
1973.08431,0.00332
1971.15559,0.00314
1969.22686,0.00298
1967.29814,0.00273
1965.36941,0.00244
1963.44069,0.00226
1961.51197,0.00218
1959.58324,0.00206
1957.65452,0.00183
1955.72580,0.00155
1953.79707,0.00131
1951.86835,0.00116
1949.93963,0.00108
1948.01090,0.00102
1946.08218,0.00092
1944.15345,0.00071
1942.22473,0.00041
1940.29601,0.00022
1938.36728,0.00022
1936.43856,0.00023
1934.50984,0.00013
1932.58111,0.00000
1930.65239,-0.00006
1928.72367,-0.00004
1926.79494,0.00004
1924.86622,0.00015
1922.93749,0.00025
1921.00877,0.00042
1919.08005,0.00064
1917.15132,0.00085
1915.22260,0.00120
1913.29388,0.00173
1911.36515,0.00225
1909.43643,0.00269
1907.50770,0.00315
1905.57898,0.00372
1903.65026,0.00434
1901.72153,0.00496
1899.79281,0.00563
1897.86409,0.00633
1895.93536,0.00696
1894.00664,0.00754
1892.07792,0.00815
1890.14919,0.00867
1888.22047,0.00906
1886.29174,0.00945
1884.36302,0.00983
1882.43430,0.01012
1880.50557,0.01037
1878.57685,0.01060
1876.64813,0.01079
1874.71940,0.01094
1872.79068,0.01107
1870.86196,0.01104
1868.93323,0.01061
1867.00451,0.00996
1865.07578,0.00945
1863.14706,0.00913
1861.21834,0.00876
1859.28961,0.00821
1857.36089,0.00749
1855.43217,0.00674
1853.50344,0.00606
1851.57472,0.00545
1849.64599,0.00494
1847.71727,0.00451
1845.78855,0.00392
1843.85982,0.00303
1841.93110,0.00228
1840.00238,0.00197
1838.07365,0.00181
1836.14493,0.00154
1834.21621,0.00128
1832.28748,0.00110
1830.35876,0.00080
1828.43003,0.00043
1826.50131,0.00019
1824.57259,0.00002
1822.64386,-0.00012
1820.71514,-0.00018
1818.78642,-0.00017
1816.85769,-0.00011
1814.92897,0.00000
1813.00025,-0.00011
1811.07152,-0.00027
1809.14280,-0.00036
1807.21407,-0.00027
1805.28535,-0.00003
1803.35663,0.00024
1801.42790,0.00046
1799.49918,0.00064
1797.57046,0.00096
1795.64173,0.00145
1793.71301,0.00188
1791.78428,0.00211
1789.85556,0.00244
1787.92684,0.00310
1785.99811,0.00386
1784.06939,0.00455
1782.14067,0.00525
1780.21194,0.00603
1778.28322,0.00688
1776.35450,0.00777
1774.42577,0.00862
1772.49705,0.00936
1770.56832,0.01001
1768.63960,0.01075
1766.71088,0.01164
1764.78215,0.01265
1762.85343,0.01362
1760.92471,0.01444
1758.99598,0.01519
1757.06726,0.01603
1755.13854,0.01706
1753.20981,0.01834
1751.28109,0.01972
1749.35236,0.02102
1747.42364,0.02228
1745.49492,0.02371
1743.56619,0.02537
1741.63747,0.02715
1739.70875,0.02897
1737.78002,0.03081
1735.85130,0.03271
1733.92257,0.03466
1731.99385,0.03656
1730.06513,0.03851
1728.13640,0.04054
1726.20768,0.04259
1724.27896,0.04466
1722.35023,0.04672
1720.42151,0.04872
1718.49279,0.05068
1716.56406,0.05254
1714.63534,0.05440
1712.70661,0.05641
1710.77789,0.05862
1708.84917,0.06100
1706.92044,0.06354
1704.99172,0.06618
1703.06300,0.06890
1701.13427,0.07202
1699.20555,0.07554
1697.27683,0.07920
1695.34810,0.08302
1693.41938,0.08674
1691.49065,0.09034
1689.56193,0.09411
1687.63321,0.09795
1685.70448,0.10210
1683.77576,0.10680
1681.84704,0.11110
1679.91831,0.11474
1677.98959,0.11832
1676.06087,0.12215
1674.13214,0.12603
1672.20342,0.12972
1670.27469,0.13350
1668.34597,0.13726
1666.41725,0.14048
1664.48852,0.14339
1662.55980,0.14633
1660.63108,0.14912
1658.70235,0.15165
1656.77363,0.15393
1654.84490,0.15599
1652.91618,0.15782
1650.98746,0.15949
1649.05873,0.16104
1647.13001,0.16230
1645.20129,0.16328
1643.27256,0.16424
1641.34384,0.16526
1639.41512,0.16623
1637.48639,0.16676
1635.55767,0.16645
1633.62894,0.16593
1631.70022,0.16581
1629.77150,0.16551
1627.84277,0.16445
1625.91405,0.16276
1623.98533,0.16054
1622.05660,0.15806
1620.12788,0.15580
1618.19916,0.15299
1616.27043,0.14886
1614.34171,0.14486
1612.41298,0.14185
1610.48426,0.13887
1608.55554,0.13544
1606.62681,0.13203
1604.69809,0.12887
1602.76937,0.12572
1600.84064,0.12259
1598.91192,0.11973
1596.98319,0.11711
1595.05447,0.11444
1593.12575,0.11169
1591.19702,0.10901
1589.26830,0.10642
1587.33958,0.10394
1585.41085,0.10160
1583.48213,0.09936
1581.55341,0.09736
1579.62468,0.09564
1577.69596,0.09373
1575.76723,0.09137
1573.83851,0.08951
1571.90979,0.08839
1569.98106,0.08705
1568.05234,0.08539
1566.12362,0.08413
1564.19489,0.08351
1562.26617,0.08327
1560.33745,0.08233
1558.40872,0.07988
1556.48000,0.07781
1554.55127,0.07706
1552.62255,0.07660
1550.69383,0.07582
1548.76510,0.07484
1546.83638,0.07395
1544.90766,0.07299
1542.97893,0.07140
1541.05021,0.06876
1539.12148,0.06586
1537.19276,0.06421
1535.26404,0.06306
1533.33531,0.06112
1531.40659,0.05884
1529.47787,0.05694
1527.54914,0.05503
1525.62042,0.05294
1523.69170,0.05075
1521.76297,0.04791
1519.83425,0.04472
1517.90552,0.04196
1515.97680,0.03949
1514.04808,0.03739
1512.11935,0.03582
1510.19063,0.03435
1508.26191,0.03164
1506.33318,0.02717
1504.40446,0.02374
1502.47574,0.02224
1500.54701,0.02105
1498.61829,0.01915
1496.68956,0.01682
1494.76084,0.01506
1492.83212,0.01416
1490.90339,0.01336
1488.97467,0.01219
1487.04595,0.01130
1485.11722,0.01125
1483.18850,0.01184
1481.25977,0.01278
1479.33105,0.01393
1477.40233,0.01537
1475.47360,0.01723
1473.54488,0.01965
1471.61616,0.02257
1469.68743,0.02533
1467.75871,0.02763
1465.82999,0.02948
1463.90126,0.03086
1461.97254,0.03194
1460.04381,0.03293
1458.11509,0.03364
1456.18637,0.03396
1454.25764,0.03429
1452.32892,0.03469
1450.40020,0.03497
1448.47147,0.03512
1446.54275,0.03534
1444.61403,0.03580
1442.68530,0.03643
1440.75658,0.03711
1438.82785,0.03773
1436.89913,0.03813
1434.97041,0.03852
1433.04168,0.03922
1431.11296,0.04018
1429.18424,0.04111
1427.25551,0.04185
1425.32679,0.04250
1423.39806,0.04322
1421.46934,0.04403
1419.54062,0.04477
1417.61189,0.04542
1415.68317,0.04617
1413.75445,0.04707
1411.82572,0.04802
1409.89700,0.04897
1407.96828,0.04993
1406.03955,0.05083
1404.11083,0.05149
1402.18210,0.05173
1400.25338,0.05130
1398.32466,0.05003
1396.39593,0.04803
1394.46721,0.04567
1392.53849,0.04354
1390.60976,0.04198
1388.68104,0.04067
1386.75232,0.03939
1384.82359,0.03817
1382.89487,0.03696
1380.96614,0.03563
1379.03742,0.03427
1377.10870,0.03290
1375.17997,0.03138
1373.25125,0.02978
1371.32253,0.02834
1369.39380,0.02698
1367.46508,0.02562
1365.53635,0.02434
1363.60763,0.02302
1361.67891,0.02161
1359.75018,0.02042
1357.82146,0.01952
1355.89274,0.01875
1353.96401,0.01805
1352.03529,0.01742
1350.10657,0.01685
1348.17784,0.01634
1346.24912,0.01589
1344.32039,0.01550
1342.39167,0.01514
1340.46295,0.01473
1338.53422,0.01431
1336.60550,0.01400
1334.67678,0.01387
1332.74805,0.01385
1330.81933,0.01385
1328.89061,0.01384
1326.96188,0.01387
1325.03316,0.01408
1323.10443,0.01455
1321.17571,0.01524
1319.24699,0.01605
1317.31826,0.01697
1315.38954,0.01810
1313.46082,0.01947
1311.53209,0.02106
1309.60337,0.02290
1307.67464,0.02520
1305.74592,0.02847
1303.81720,0.03283
1301.88847,0.03695
1299.95975,0.03923
1298.03103,0.04017
1296.10230,0.04137
1294.17358,0.04297
1292.24486,0.04421
1290.31613,0.04487
1288.38741,0.04526
1286.45868,0.04572
1284.52996,0.04648
1282.60124,0.04768
1280.67251,0.04946
1278.74379,0.05198
1276.81507,0.05523
1274.88634,0.05913
1272.95762,0.06363
1271.02890,0.06877
1269.10017,0.07466
1267.17145,0.08151
1265.24272,0.08949
1263.31400,0.09861
1261.38528,0.10883
1259.45655,0.12006
1257.52783,0.13220
1255.59911,0.14517
1253.67038,0.15873
1251.74166,0.17254
1249.81294,0.18627
1247.88421,0.19947
1245.95549,0.21184
1244.02676,0.22333
1242.09804,0.23385
1240.16932,0.24327
1238.24059,0.25172
1236.31187,0.25945
1234.38315,0.26658
1232.45442,0.27312
1230.52570,0.27915
1228.59697,0.28464
1226.66825,0.28952
1224.73953,0.29403
1222.81080,0.29849
1220.88208,0.30295
1218.95336,0.30731
1217.02463,0.31143
1215.09591,0.31516
1213.16719,0.31858
1211.23846,0.32194
1209.30974,0.32532
1207.38101,0.32866
1205.45229,0.33221
1203.52357,0.33615
1201.59484,0.34043
1199.66612,0.34524
1197.73740,0.35095
1195.80867,0.35739
1193.87995,0.36361
1191.95123,0.36825
1190.02250,0.37105
1188.09378,0.37332
1186.16505,0.37593
1184.23633,0.37830
1182.30761,0.37963
1180.37888,0.38002
1178.45016,0.37988
1176.52144,0.37978
1174.59271,0.38022
1172.66399,0.38102
1170.73526,0.38186
1168.80654,0.38273
1166.87782,0.38358
1164.94909,0.38464
1163.02037,0.38618
1161.09165,0.38783
1159.16292,0.38938
1157.23420,0.39121
1155.30548,0.39321
1153.37675,0.39513
1151.44803,0.39715
1149.51930,0.39916
1147.59058,0.40111
1145.66186,0.40348
1143.73313,0.40636
1141.80441,0.40918
1139.87569,0.41192
1137.94696,0.41501
1136.01824,0.41828
1134.08952,0.42133
1132.16079,0.42446
1130.23207,0.42828
1128.30334,0.43254
1126.37462,0.43675
1124.44590,0.44115
1122.51717,0.44618
1120.58845,0.45192
1118.65973,0.45828
1116.73100,0.46571
1114.80228,0.47404
1112.87355,0.48227
1110.94483,0.49038
1109.01611,0.49901
1107.08738,0.50784
1105.15866,0.51565
1103.22994,0.52189
1101.30121,0.52713
1099.37249,0.53184
1097.44377,0.53536
1095.51504,0.53738
1093.58632,0.53870
1091.65759,0.53935
1089.72887,0.53895
1087.80015,0.53773
1085.87142,0.53603
1083.94270,0.53413
1082.01398,0.53225
1080.08525,0.52996
1078.15653,0.52667
1076.22781,0.52280
1074.29908,0.51832
1072.37036,0.51304
1070.44163,0.50757
1068.51291,0.50236
1066.58419,0.49699
1064.65546,0.49070
1062.72674,0.48356
1060.79802,0.47604
1058.86929,0.46841
1056.94057,0.46099
1055.01184,0.45358
1053.08312,0.44591
1051.15440,0.43791
1049.22567,0.42945
1047.29695,0.42059
1045.36823,0.41162
1043.43950,0.40251
1041.51078,0.39327
1039.58206,0.38418
1037.65333,0.37522
1035.72461,0.36645
1033.79588,0.35783
1031.86716,0.34915
1029.93844,0.34033
1028.00971,0.33140
1026.08099,0.32290
1024.15227,0.31540
1022.22354,0.30843
1020.29482,0.30134
1018.36610,0.29430
1016.43737,0.28770
1014.50865,0.28160
1012.57992,0.27592
1010.65120,0.27058
1008.72248,0.26571
1006.79375,0.26116
1004.86503,0.25638
1002.93631,0.25147
1001.00758,0.24703
999.07886,0.24300
997.15013,0.23908
995.22141,0.23531
993.29269,0.23176
991.36396,0.22857
989.43524,0.22579
987.50652,0.22311
985.57779,0.22047
983.64907,0.21795
981.72035,0.21577
979.79162,0.21418
977.86290,0.21301
975.93417,0.21206
974.00545,0.21138
972.07673,0.21080
970.14800,0.21012
968.21928,0.20936
966.29056,0.20867
964.36183,0.20804
962.43311,0.20723
960.50439,0.20623
958.57566,0.20531
956.64694,0.20420
954.71821,0.20265
952.78949,0.20104
950.86077,0.19945
948.93204,0.19760
947.00332,0.19552
945.07460,0.19336
943.14587,0.19129
941.21715,0.18921
939.28842,0.18672
937.35970,0.18382
935.43098,0.18076
933.50225,0.17757
931.57353,0.17433
929.64481,0.17118
927.71608,0.16790
925.78736,0.16406
923.85864,0.15975
921.92991,0.15550
920.00119,0.15156
918.07246,0.14769
916.14374,0.14366
914.21502,0.13962
912.28629,0.13557
910.35757,0.13130
908.42885,0.12683
906.50012,0.12223
904.57140,0.11761
902.64268,0.11333
900.71395,0.10926
898.78523,0.10505
896.85650,0.10084
894.92778,0.09682
892.99906,0.09281
891.07033,0.08885
889.14161,0.08524
887.21289,0.08200
885.28416,0.07866
883.35544,0.07515
881.42671,0.07186
879.49799,0.06901
877.56927,0.06655
875.64054,0.06408
873.71182,0.06139
871.78310,0.05882
869.85437,0.05663
867.92565,0.05474
865.99693,0.05291
864.06820,0.05096
862.13948,0.04891
860.21075,0.04695
858.28203,0.04513
856.35331,0.04344
854.42458,0.04227
852.49586,0.04165
850.56714,0.04129
848.63841,0.04121
846.70969,0.04145
844.78097,0.04220
842.85224,0.04381
840.92352,0.04618
838.99479,0.04887
837.06607,0.05164
835.13735,0.05445
833.20862,0.05753
831.27990,0.06097
829.35118,0.06463
827.42245,0.06847
825.49373,0.07242
823.56501,0.07637
821.63628,0.08027
819.70756,0.08399
817.77883,0.08749
815.85011,0.09092
813.92139,0.09441
811.99266,0.09786
810.06394,0.10125
808.13522,0.10494
806.20649,0.10877
804.27777,0.11203
802.34904,0.11443
800.42032,0.11590
798.49160,0.11658
796.56287,0.11655
794.63415,0.11573
792.70543,0.11442
790.77670,0.11291
788.84798,0.11094
786.91926,0.10842
784.99053,0.10542
783.06181,0.10211
781.13308,0.09866
779.20436,0.09480
777.27564,0.09023
775.34691,0.08536
773.41819,0.08072
771.48947,0.07666
769.56074,0.07368
767.63202,0.07160
765.70330,0.06980
763.77457,0.06866
761.84585,0.06836
759.91712,0.06828
757.98840,0.06797
756.05968,0.06721
754.13095,0.06623
752.20223,0.06555
750.27351,0.06515
748.34478,0.06482
746.41606,0.06456
744.48733,0.06410
742.55861,0.06346
740.62989,0.06316
738.70116,0.06326
736.77244,0.06338
734.84372,0.06355
732.91499,0.06400
730.98627,0.06438
729.05755,0.06442
727.12882,0.06472
725.20010,0.06570
723.27137,0.06658
721.34265,0.06671
719.41393,0.06644
717.48520,0.06643
715.55648,0.06677
713.62776,0.06723
711.69903,0.06768
709.77031,0.06812
707.84159,0.06858
705.91286,0.06905
703.98414,0.06955
702.05541,0.07043
700.12669,0.07188
698.19797,0.07339
696.26924,0.07436
694.34052,0.07479
692.41180,0.07500
690.48307,0.07526
688.55435,0.07545
686.62562,0.07545
684.69690,0.07553
682.76818,0.07582
680.83945,0.07622
678.91073,0.07675
676.98201,0.07735
675.05328,0.07773
673.12456,0.07779
671.19584,0.07803
669.26711,0.07897
667.33839,0.07999
665.40966,0.07999
663.48094,0.07935
661.55222,0.07900
659.62349,0.07936
657.69477,0.08054
655.76605,0.08237
653.83732,0.08439
651.90860,0.08627
649.97988,0.08810
648.05115,0.08969
646.12243,0.09089
644.19370,0.09233
642.26498,0.09426
640.33626,0.09592
638.40753,0.09698
636.47881,0.09797
634.55009,0.09937
632.62136,0.10118
630.69264,0.10295
628.76391,0.10385
626.83519,0.10382
624.90647,0.10424
622.97774,0.10560
621.04902,0.10688
619.12030,0.10751
617.19157,0.10830
615.26285,0.11000
613.33413,0.11208
611.40540,0.11389
609.47668,0.11541
607.54795,0.11671
605.61923,0.11825
603.69051,0.12051
601.76178,0.12279
599.83306,0.12436
597.90434,0.12574
595.97561,0.12746
594.04689,0.12930
592.11817,0.13107
590.18944,0.13267
588.26072,0.13417
586.33199,0.13550
584.40327,0.13647
582.47455,0.13699
580.54582,0.13701
578.61710,0.13704
576.68838,0.13783
574.75965,0.13906
572.83093,0.13976
570.90220,0.13982
568.97348,0.13956
567.04476,0.13904
565.11603,0.13872
563.18731,0.13890
561.25859,0.13928
559.32986,0.13968
557.40114,0.13997
555.47242,0.14026
553.54369,0.14107
551.61497,0.14258
549.68624,0.14399
547.75752,0.14457
545.82880,0.14476
543.90007,0.14533
541.97135,0.14618
540.04263,0.14675
538.11390,0.14658
536.18518,0.14570
534.25646,0.14471
532.32773,0.14381
530.39901,0.14259
528.47028,0.14135
526.54156,0.14118
524.61284,0.14207
522.68411,0.14284
520.75539,0.14342
518.82667,0.14416
516.89794,0.14498
514.96922,0.14624
513.04049,0.14807
511.11177,0.15047
509.18305,0.15399
507.25432,0.15936
505.32560,0.16651
503.39688,0.17367
501.46815,0.17908
499.53943,0.18456
497.61071,0.19364
495.68198,0.20510
493.75326,0.21423
491.82453,0.22035
489.89581,0.22714
487.96709,0.23669
486.03836,0.24718
484.10964,0.25527
482.18092,0.26062
480.25219,0.26647
478.32347,0.27519
476.39475,0.28599
474.46602,0.29644
472.53730,0.30460
470.60857,0.30941
468.67985,0.31099
466.75113,0.31049
464.82240,0.30809
462.89368,0.30420
460.96496,0.30068
459.03623,0.29771
457.10751,0.29398
455.17878,0.28866
453.25006,0.28024
451.32134,0.26954
449.39261,0.26076
447.46389,0.25501
445.53517,0.24914
443.60644,0.24150
441.67772,0.23386
439.74900,0.22740
437.82027,0.22085
435.89155,0.21358
433.96282,0.20734
432.03410,0.20366
430.10538,0.20232
428.17665,0.20139
426.24793,0.19556
424.31921,0.18013
422.39048,0.16042
420.46176,0.14713
418.53304,0.14396
416.60431,0.14478
414.67559,0.14142
412.74686,0.13228
410.81814,0.12031
408.88942,0.10849
406.96069,0.10082
405.03197,0.10254
403.10325,0.11185
401.17452,0.11696
399.24580,0.10822
397.31708,0.09004
395.38835,0.07637
393.45963,0.07313
391.53090,0.07497
389.60218,0.07318
387.67346,0.06816
385.74473,0.07119
383.81601,0.09042
381.88729,0.11608
379.95856,0.12576
378.02984,0.10878
376.10111,0.09006
374.17239,0.10845
372.24367,0.13956
370.31494,0.10751
368.38622,0.00000
