3996.31543,0.00000
3994.38671,0.00009
3992.45799,0.00023
3990.52926,0.00035
3988.60054,0.00051
3986.67182,0.00063
3984.74309,0.00057
3982.81437,0.00042
3980.88564,0.00046
3978.95692,0.00069
3977.02820,0.00078
3975.09947,0.00075
3973.17075,0.00076
3971.24203,0.00078
3969.31330,0.00083
3967.38458,0.00097
3965.45586,0.00107
3963.52713,0.00098
3961.59841,0.00095
3959.66968,0.00101
3957.74096,0.00087
3955.81224,0.00074
3953.88351,0.00089
3951.95479,0.00108
3950.02607,0.00106
3948.09734,0.00110
3946.16862,0.00132
3944.23990,0.00125
3942.31117,0.00110
3940.38245,0.00131
3938.45372,0.00163
3936.52500,0.00189
3934.59628,0.00185
3932.66755,0.00149
3930.73883,0.00133
3928.81011,0.00162
3926.88138,0.00180
3924.95266,0.00170
3923.02393,0.00187
3921.09521,0.00210
3919.16649,0.00188
3917.23776,0.00144
3915.30904,0.00131
3913.38032,0.00150
3911.45159,0.00182
3909.52287,0.00251
3907.59415,0.00322
3905.66542,0.00321
3903.73670,0.00263
3901.80797,0.00185
3899.87925,0.00097
3897.95053,0.00103
3896.02180,0.00191
3894.09308,0.00219
3892.16436,0.00178
3890.23563,0.00229
3888.30691,0.00315
3886.37819,0.00284
3884.44946,0.00260
3882.52074,0.00225
3880.59201,0.00138
3878.66329,0.00188
3876.73457,0.00302
3874.80584,0.00352
3872.87712,0.00360
3870.94840,0.00269
3869.01967,0.00216
3867.09095,0.00258
3865.16222,0.00221
3863.23350,0.00174
3861.30478,0.00225
3859.37605,0.00364
3857.44733,0.00489
3855.51861,0.00397
3853.58988,0.00101
3851.66116,0.00000
3849.73244,0.00107
3847.80371,0.00233
3845.87499,0.00303
3843.94626,0.00342
3842.01754,0.00377
3840.08882,0.00333
3838.16009,0.00235
3836.23137,0.00203
3834.30265,0.00211
3832.37392,0.00202
3830.44520,0.00231
3828.51648,0.00271
3826.58775,0.00325
3824.65903,0.00416
3822.73030,0.00385
3820.80158,0.00315
3818.87286,0.00346
3816.94413,0.00266
3815.01541,0.00189
3813.08669,0.00274
3811.15796,0.00381
3809.22924,0.00392
3807.30052,0.00362
3805.37179,0.00441
3803.44307,0.00437
3801.51434,0.00291
3799.58562,0.00268
3797.65690,0.00277
3795.72817,0.00271
3793.79945,0.00312
3791.87073,0.00349
3789.94200,0.00380
3788.01328,0.00400
3786.08455,0.00393
3784.15583,0.00410
3782.22711,0.00440
3780.29838,0.00398
3778.36966,0.00379
3776.44094,0.00451
3774.51221,0.00537
3772.58349,0.00568
3770.65477,0.00544
3768.72604,0.00559
3766.79732,0.00593
3764.86859,0.00650
3762.93987,0.00751
3761.01115,0.00779
3759.08242,0.00769
3757.15370,0.00862
3755.22498,0.01012
3753.29625,0.01032
3751.36753,0.00925
3749.43881,0.00962
3747.51008,0.01108
3745.58136,0.01056
3743.65263,0.01009
3741.72391,0.01197
3739.79519,0.01408
3737.86646,0.01498
3735.93774,0.01478
3734.00902,0.01478
3732.08029,0.01594
3730.15157,0.01820
3728.22284,0.02011
3726.29412,0.02131
3724.36540,0.02265
3722.43667,0.02419
3720.50795,0.02597
3718.57923,0.02824
3716.65050,0.03101
3714.72178,0.03333
3712.79306,0.03447
3710.86433,0.03588
3708.93561,0.03879
3707.00688,0.04241
3705.07816,0.04564
3703.14944,0.04809
3701.22071,0.05073
3699.29199,0.05418
3697.36327,0.05770
3695.43454,0.06138
3693.50582,0.06490
3691.57710,0.06727
3689.64837,0.06889
3687.71965,0.07166
3685.79092,0.07576
3683.86220,0.07983
3681.93348,0.08375
3680.00475,0.08779
3678.07603,0.09123
3676.14731,0.09410
3674.21858,0.09878
3672.28986,0.10329
3670.36113,0.10583
3668.43241,0.10934
3666.50369,0.11368
3664.57496,0.11730
3662.64624,0.12071
3660.71752,0.12428
3658.78879,0.12737
3656.86007,0.13015
3654.93135,0.13414
3653.00262,0.13809
3651.07390,0.13990
3649.14517,0.14090
3647.21645,0.14313
3645.28773,0.14649
3643.35900,0.14954
3641.43028,0.15216
3639.50156,0.15492
3637.57283,0.15777
3635.64411,0.16050
3633.71539,0.16337
3631.78666,0.16574
3629.85794,0.16640
3627.92921,0.16760
3626.00049,0.17064
3624.07177,0.17365
3622.14304,0.17561
3620.21432,0.17656
3618.28560,0.17779
3616.35687,0.17975
3614.42815,0.18134
3612.49942,0.18270
3610.57070,0.18395
3608.64198,0.18485
3606.71325,0.18636
3604.78453,0.18856
3602.85581,0.19041
3600.92708,0.19188
3598.99836,0.19333
3597.06964,0.19444
3595.14091,0.19546
3593.21219,0.19734
3591.28346,0.19962
3589.35474,0.20080
3587.42602,0.20131
3585.49729,0.20260
3583.56857,0.20419
3581.63985,0.20540
3579.71112,0.20650
3577.78240,0.20777
3575.85368,0.20914
3573.92495,0.21072
3571.99623,0.21260
3570.06750,0.21399
3568.13878,0.21419
3566.21006,0.21438
3564.28133,0.21549
3562.35261,0.21666
3560.42389,0.21768
3558.49516,0.21897
3556.56644,0.22039
3554.63771,0.22148
3552.70899,0.22233
3550.78027,0.22352
3548.85154,0.22474
3546.92282,0.22547
3544.99410,0.22608
3543.06537,0.22708
3541.13665,0.22832
3539.20793,0.22939
3537.27920,0.23008
3535.35048,0.23077
3533.42175,0.23175
3531.49303,0.23277
3529.56431,0.23367
3527.63558,0.23449
3525.70686,0.23535
3523.77814,0.23630
3521.84941,0.23743
3519.92069,0.23850
3517.99197,0.23928
3516.06324,0.24010
3514.13452,0.24113
3512.20579,0.24206
3510.27707,0.24268
3508.34835,0.24342
3506.41962,0.24422
3504.49090,0.24467
3502.56218,0.24517
3500.63345,0.24605
3498.70473,0.24689
3496.77600,0.24761
3494.84728,0.24853
3492.91856,0.24946
3490.98983,0.25004
3489.06111,0.25030
3487.13239,0.25069
3485.20366,0.25141
3483.27494,0.25203
3481.34622,0.25244
3479.41749,0.25300
3477.48877,0.25369
3475.56004,0.25436
3473.63132,0.25496
3471.70260,0.25546
3469.77387,0.25587
3467.84515,0.25630
3465.91643,0.25690
3463.98770,0.25747
3462.05898,0.25781
3460.13026,0.25810
3458.20153,0.25852
3456.27281,0.25907
3454.34408,0.25959
3452.41536,0.25992
3450.48664,0.26011
3448.55791,0.26011
3446.62919,0.26021
3444.70047,0.26062
3442.77174,0.26092
3440.84302,0.26102
3438.91429,0.26102
3436.98557,0.26111
3435.05685,0.26147
3433.12812,0.26187
3431.19940,0.26193
3429.27068,0.26167
3427.34195,0.26160
3425.41323,0.26197
3423.48451,0.26240
3421.55578,0.26245
3419.62706,0.26235
3417.69833,0.26243
3415.76961,0.26262
3413.84089,0.26285
3411.91216,0.26302
3409.98344,0.26311
3408.05472,0.26314
3406.12599,0.26314
3404.19727,0.26308
3402.26855,0.26314
3400.33982,0.26335
3398.41110,0.26336
3396.48237,0.26320
3394.55365,0.26299
3392.62493,0.26278
3390.69620,0.26280
3388.76748,0.26290
3386.83876,0.26281
3384.91003,0.26266
3382.98131,0.26267
3381.05259,0.26268
3379.12386,0.26251
3377.19514,0.26223
3375.26641,0.26196
3373.33769,0.26165
3371.40897,0.26140
3369.48024,0.26141
3367.55152,0.26151
3365.62280,0.26133
3363.69407,0.26092
3361.76535,0.26047
3359.83662,0.26015
3357.90790,0.25998
3355.97918,0.26000
3354.05045,0.26008
3352.12173,0.25993
3350.19301,0.25936
3348.26428,0.25855
3346.33556,0.25790
3344.40684,0.25774
3342.47811,0.25799
3340.54939,0.25813
3338.62066,0.25787
3336.69194,0.25739
3334.76322,0.25687
3332.83449,0.25641
3330.90577,0.25607
3328.97705,0.25582
3327.04832,0.25555
3325.11960,0.25520
3323.19088,0.25471
3321.26215,0.25413
3319.33343,0.25367
3317.40470,0.25341
3315.47598,0.25327
3313.54726,0.25319
3311.61853,0.25306
3309.68981,0.25273
3307.76109,0.25238
3305.83236,0.25214
3303.90364,0.25186
3301.97491,0.25146
3300.04619,0.25111
3298.11747,0.25091
3296.18874,0.25074
3294.26002,0.25052
3292.33130,0.25017
3290.40257,0.24970
3288.47385,0.24929
3286.54513,0.24899
3284.61640,0.24869
3282.68768,0.24827
3280.75895,0.24784
3278.83023,0.24751
3276.90151,0.24719
3274.97278,0.24675
3273.04406,0.24630
3271.11534,0.24591
3269.18661,0.24553
3267.25789,0.24523
3265.32917,0.24503
3263.40044,0.24471
3261.47172,0.24415
3259.54299,0.24348
3257.61427,0.24288
3255.68555,0.24247
3253.75682,0.24219
3251.82810,0.24182
3249.89938,0.24129
3247.97065,0.24076
3246.04193,0.24025
3244.11320,0.23974
3242.18448,0.23924
3240.25576,0.23870
3238.32703,0.23818
3236.39831,0.23777
3234.46959,0.23737
3232.54086,0.23684
3230.61214,0.23631
3228.68342,0.23578
3226.75469,0.23514
3224.82597,0.23450
3222.89724,0.23397
3220.96852,0.23344
3219.03980,0.23288
3217.11107,0.23232
3215.18235,0.23177
3213.25363,0.23126
3211.32490,0.23068
3209.39618,0.23000
3207.46746,0.22931
3205.53873,0.22848
3203.61001,0.22746
3201.68128,0.22662
3199.75256,0.22610
3197.82384,0.22559
3195.89511,0.22488
3193.96639,0.22404
3192.03767,0.22328
3190.10894,0.22270
3188.18022,0.22213
3186.25149,0.22140
3184.32277,0.22051
3182.39405,0.21962
3180.46532,0.21882
3178.53660,0.21807
3176.60788,0.21730
3174.67915,0.21647
3172.75043,0.21559
3170.82171,0.21470
3168.89298,0.21392
3166.96426,0.21325
3165.03553,0.21257
3163.10681,0.21171
3161.17809,0.21075
3159.24936,0.20989
3157.32064,0.20915
3155.39192,0.20837
3153.46319,0.20750
3151.53447,0.20662
3149.60575,0.20574
3147.67702,0.20481
3145.74830,0.20391
3143.81957,0.20315
3141.89085,0.20244
3139.96213,0.20169
3138.03340,0.20099
3136.10468,0.20033
3134.17596,0.19948
3132.24723,0.19851
3130.31851,0.19765
3128.38978,0.19678
3126.46106,0.19583
3124.53234,0.19499
3122.60361,0.19431
3120.67489,0.19369
3118.74617,0.19297
3116.81744,0.19212
3114.88872,0.19122
3112.96000,0.19036
3111.03127,0.18954
3109.10255,0.18870
3107.17382,0.18774
3105.24510,0.18661
3103.31638,0.18550
3101.38765,0.18460
3099.45893,0.18386
3097.53021,0.18301
3095.60148,0.18204
3093.67276,0.18112
3091.74404,0.18020
3089.81531,0.17926
3087.88659,0.17836
3085.95786,0.17748
3084.02914,0.17659
3082.10042,0.17562
3080.17169,0.17460
3078.24297,0.17368
3076.31425,0.17284
3074.38552,0.17191
3072.45680,0.17091
3070.52807,0.16995
3068.59935,0.16901
3066.67063,0.16802
3064.74190,0.16695
3062.81318,0.16585
3060.88446,0.16488
3058.95573,0.16404
3057.02701,0.16316
3055.09829,0.16216
3053.16956,0.16108
3051.24084,0.16003
3049.31211,0.15913
3047.38339,0.15835
3045.45467,0.15762
3043.52594,0.15685
3041.59722,0.15594
3039.66850,0.15491
3037.73977,0.15396
3035.81105,0.15318
3033.88233,0.15233
3031.95360,0.15126
3030.02488,0.15025
3028.09615,0.14948
3026.16743,0.14880
3024.23871,0.14800
3022.30998,0.14711
3020.38126,0.14624
3018.45254,0.14540
3016.52381,0.14458
3014.59509,0.14380
3012.66636,0.14301
3010.73764,0.14221
3008.80892,0.14148
3006.88019,0.14082
3004.95147,0.14013
3003.02275,0.13942
3001.09402,0.13880
2999.16530,0.13831
2997.23658,0.13782
2995.30785,0.13722
2993.37913,0.13665
2991.45040,0.13625
2989.52168,0.13597
2987.59296,0.13558
2985.66423,0.13500
2983.73551,0.13438
2981.80679,0.13391
2979.87806,0.13365
2977.94934,0.13353
2976.02062,0.13345
2974.09189,0.13333
2972.16317,0.13320
2970.23444,0.13312
2968.30572,0.13307
2966.37700,0.13291
2964.44827,0.13257
2962.51955,0.13214
2960.59083,0.13176
2958.66210,0.13157
2956.73338,0.13146
2954.80466,0.13114
2952.87593,0.13062
2950.94721,0.13016
2949.01848,0.12982
2947.08976,0.12952
2945.16104,0.12936
2943.23231,0.12940
2941.30359,0.12949
2939.37487,0.12957
2937.44614,0.12971
2935.51742,0.12994
2933.58869,0.13014
2931.65997,0.13021
2929.73125,0.13017
2927.80252,0.13007
2925.87380,0.12987
2923.94508,0.12936
2922.01635,0.12844
2920.08763,0.12721
2918.15891,0.12580
2916.23018,0.12410
2914.30146,0.12208
2912.37273,0.12002
2910.44401,0.11816
2908.51529,0.11657
2906.58656,0.11516
2904.65784,0.11383
2902.72912,0.11259
2900.80039,0.11143
2898.87167,0.11024
2896.94295,0.10905
2895.01422,0.10790
2893.08550,0.10672
2891.15677,0.10557
2889.22805,0.10462
2887.29933,0.10384
2885.37060,0.10300
2883.44188,0.10210
2881.51316,0.10127
2879.58443,0.10047
2877.65571,0.09959
2875.72698,0.09876
2873.79826,0.09808
2871.86954,0.09741
2869.94081,0.09666
2868.01209,0.09593
2866.08337,0.09530
2864.15464,0.09474
2862.22592,0.09430
2860.29720,0.09409
2858.36847,0.09417
2856.43975,0.09445
2854.51102,0.09477
2852.58230,0.09476
2850.65358,0.09396
2848.72485,0.09223
2846.79613,0.08988
2844.86741,0.08730
2842.93868,0.08490
2841.00996,0.08296
2839.08124,0.08139
2837.15251,0.07998
2835.22379,0.07872
2833.29506,0.07760
2831.36634,0.07657
2829.43762,0.07561
2827.50889,0.07472
2825.58017,0.07392
2823.65145,0.07320
2821.72272,0.07253
2819.79400,0.07182
2817.86527,0.07102
2815.93655,0.07021
2814.00783,0.06951
2812.07910,0.06890
2810.15038,0.06825
2808.22166,0.06755
2806.29293,0.06688
2804.36421,0.06620
2802.43549,0.06543
2800.50676,0.06471
2798.57804,0.06416
2796.64931,0.06366
2794.72059,0.06306
2792.79187,0.06239
2790.86314,0.06177
2788.93442,0.06116
2787.00570,0.06048
2785.07697,0.05979
2783.14825,0.05924
2781.21953,0.05884
2779.29080,0.05843
2777.36208,0.05791
2775.43335,0.05732
2773.50463,0.05666
2771.57591,0.05596
2769.64718,0.05529
2767.71846,0.05468
2765.78974,0.05411
2763.86101,0.05362
2761.93229,0.05322
2760.00356,0.05279
2758.07484,0.05222
2756.14612,0.05162
2754.21739,0.05111
2752.28867,0.05060
2750.35995,0.05004
2748.43122,0.04952
2746.50250,0.04910
2744.57378,0.04865
2742.64505,0.04815
2740.71633,0.04766
2738.78760,0.04717
2736.85888,0.04659
2734.93016,0.04600
2733.00143,0.04548
2731.07271,0.04507
2729.14399,0.04467
2727.21526,0.04424
2725.28654,0.04376
2723.35782,0.04320
2721.42909,0.04260
2719.50037,0.04211
2717.57164,0.04173
2715.64292,0.04132
2713.71420,0.04081
2711.78547,0.04027
2709.85675,0.03979
2707.92803,0.03932
2705.99930,0.03884
2704.07058,0.03839
2702.14185,0.03797
2700.21313,0.03750
2698.28441,0.03695
2696.35568,0.03645
2694.42696,0.03606
2692.49824,0.03572
2690.56951,0.03534
2688.64079,0.03496
2686.71207,0.03467
2684.78334,0.03444
2682.85462,0.03410
2680.92589,0.03362
2678.99717,0.03315
2677.06845,0.03278
2675.13972,0.03237
2673.21100,0.03193
2671.28228,0.03156
2669.35355,0.03123
2667.42483,0.03088
2665.49611,0.03049
2663.56738,0.03010
2661.63866,0.02972
2659.70993,0.02934
2657.78121,0.02895
2655.85249,0.02854
2653.92376,0.02817
2651.99504,0.02784
2650.06632,0.02750
2648.13759,0.02716
2646.20887,0.02686
2644.28014,0.02652
2642.35142,0.02615
2640.42270,0.02587
2638.49397,0.02564
2636.56525,0.02531
2634.63653,0.02494
2632.70780,0.02459
2630.77908,0.02420
2628.85036,0.02378
2626.92163,0.02343
2624.99291,0.02314
2623.06418,0.02287
2621.13546,0.02259
2619.20674,0.02228
2617.27801,0.02192
2615.34929,0.02158
2613.42057,0.02130
2611.49184,0.02106
2609.56312,0.02081
2607.63440,0.02055
2605.70567,0.02034
2603.77695,0.02011
2601.84822,0.01979
2599.91950,0.01949
2597.99078,0.01925
2596.06205,0.01896
2594.13333,0.01861
2592.20461,0.01835
2590.27588,0.01818
2588.34716,0.01793
2586.41843,0.01759
2584.48971,0.01730
2582.56099,0.01709
2580.63226,0.01688
2578.70354,0.01670
2576.77482,0.01650
2574.84609,0.01624
2572.91737,0.01599
2570.98865,0.01574
2569.05992,0.01549
2567.13120,0.01531
2565.20247,0.01520
2563.27375,0.01508
2561.34503,0.01486
2559.41630,0.01454
2557.48758,0.01428
2555.55886,0.01412
2553.63013,0.01390
2551.70141,0.01360
2549.77269,0.01339
2547.84396,0.01333
2545.91524,0.01323
2543.98651,0.01301
2542.05779,0.01283
2540.12907,0.01277
2538.20034,0.01270
2536.27162,0.01249
2534.34290,0.01222
2532.41417,0.01197
2530.48545,0.01179
2528.55673,0.01164
2526.62800,0.01150
2524.69928,0.01139
2522.77055,0.01126
2520.84183,0.01111
2518.91311,0.01094
2516.98438,0.01072
2515.05566,0.01052
2513.12694,0.01029
2511.19821,0.01001
2509.26949,0.00983
2507.34076,0.00977
2505.41204,0.00971
2503.48332,0.00955
2501.55459,0.00934
2499.62587,0.00919
2497.69715,0.00916
2495.76842,0.00914
2493.83970,0.00906
2491.91098,0.00888
2489.98225,0.00869
2488.05353,0.00854
2486.12480,0.00837
2484.19608,0.00823
2482.26736,0.00808
2480.33863,0.00787
2478.40991,0.00764
2476.48119,0.00747
2474.55246,0.00733
2472.62374,0.00719
2470.69502,0.00708
2468.76629,0.00701
2466.83757,0.00693
2464.90884,0.00683
2462.98012,0.00669
2461.05140,0.00657
2459.12267,0.00646
2457.19395,0.00630
2455.26523,0.00616
2453.33650,0.00608
2451.40778,0.00594
2449.47905,0.00572
2447.55033,0.00555
2445.62161,0.00545
2443.69288,0.00528
2441.76416,0.00512
2439.83544,0.00499
2437.90671,0.00486
2435.97799,0.00472
2434.04927,0.00462
2432.12054,0.00454
2430.19182,0.00442
2428.26309,0.00435
2426.33437,0.00436
2424.40565,0.00432
2422.47692,0.00418
2420.54820,0.00398
2418.61948,0.00378
2416.69075,0.00365
2414.76203,0.00355
2412.83331,0.00341
2410.90458,0.00326
2408.97586,0.00315
2407.04713,0.00307
2405.11841,0.00294
2403.18969,0.00278
2401.26096,0.00274
2399.33224,0.00274
2397.40352,0.00267
2395.47479,0.00256
2393.54607,0.00250
2391.61734,0.00246
2389.68862,0.00244
2387.75990,0.00241
2385.83117,0.00235
2383.90245,0.00231
2381.97373,0.00236
2380.04500,0.00249
2378.11628,0.00265
2376.18756,0.00270
2374.25883,0.00259
2372.33011,0.00250
2370.40138,0.00253
2368.47266,0.00263
2366.54394,0.00279
2364.61521,0.00290
2362.68649,0.00283
2360.75777,0.00268
2358.82904,0.00249
2356.90032,0.00206
2354.97160,0.00139
2353.04287,0.00101
2351.11415,0.00141
2349.18542,0.00213
2347.25670,0.00236
2345.32798,0.00212
2343.39925,0.00183
2341.47053,0.00156
2339.54181,0.00130
2337.61308,0.00115
2335.68436,0.00117
2333.75563,0.00134
2331.82691,0.00149
2329.89819,0.00143
2327.96946,0.00126
2326.04074,0.00113
2324.11202,0.00100
2322.18329,0.00079
2320.25457,0.00062
2318.32585,0.00064
2316.39712,0.00076
2314.46840,0.00079
2312.53967,0.00073
2310.61095,0.00064
2308.68223,0.00056
2306.75350,0.00046
2304.82478,0.00032
2302.89606,0.00022
2300.96733,0.00021
2299.03861,0.00025
2297.10989,0.00030
2295.18116,0.00031
2293.25244,0.00030
2291.32371,0.00026
2289.39499,0.00022
2287.46627,0.00022
2285.53754,0.00025
2283.60882,0.00024
2281.68010,0.00016
2279.75137,0.00007
2277.82265,0.00003
2275.89392,0.00001
2273.96520,0.00000
2272.03648,-0.00001
2270.10775,0.00001
2268.17903,0.00007
2266.25031,0.00015
2264.32158,0.00017
2262.39286,0.00009
2260.46414,0.00000
2258.53541,-0.00003
2256.60669,-0.00001
2254.67796,0.00001
2252.74924,0.00001
2250.82052,0.00002
2248.89179,-0.00000
2246.96307,-0.00003
2245.03435,-0.00004
2243.10562,-0.00002
2241.17690,-0.00002
2239.24818,-0.00007
2237.31945,-0.00017
2235.39073,-0.00024
2233.46200,-0.00023
2231.53328,-0.00017
2229.60456,-0.00008
2227.67583,0.00005
2225.74711,0.00009
2223.81839,0.00002
2221.88966,0.00001
2219.96094,0.00003
2218.03221,0.00002
2216.10349,0.00002
2214.17477,0.00004
2212.24604,0.00004
2210.31732,-0.00001
2208.38860,-0.00005
2206.45987,0.00000
2204.53115,0.00004
2202.60243,0.00004
2200.67370,0.00008
2198.74498,0.00012
2196.81625,0.00012
2194.88753,0.00014
2192.95881,0.00015
2191.03008,0.00010
2189.10136,0.00004
2187.17264,0.00003
2185.24391,0.00005
2183.31519,0.00002
2181.38647,0.00001
2179.45774,-0.00001
2177.52902,-0.00002
2175.60029,-0.00002
2173.67157,-0.00003
2171.74285,-0.00003
2169.81412,0.00001
2167.88540,0.00006
2165.95668,0.00004
2164.02795,-0.00004
2162.09923,-0.00003
2160.17050,0.00004
2158.24178,0.00004
2156.31306,-0.00001
2154.38433,-0.00003
2152.45561,-0.00001
2150.52689,0.00003
2148.59816,0.00003
2146.66944,-0.00000
2144.74072,0.00002
2142.81199,0.00009
2140.88327,0.00014
2138.95454,0.00019
2137.02582,0.00018
2135.09710,0.00015
2133.16837,0.00015
2131.23965,0.00016
2129.31093,0.00017
2127.38220,0.00017
2125.45348,0.00015
2123.52476,0.00010
2121.59603,0.00006
2119.66731,0.00009
2117.73858,0.00013
2115.80986,0.00009
2113.88114,0.00001
2111.95241,0.00000
2110.02369,0.00003
2108.09497,0.00002
2106.16624,-0.00003
2104.23752,-0.00006
2102.30880,-0.00006
2100.38007,-0.00005
2098.45135,-0.00003
2096.52262,-0.00000
2094.59390,0.00000
2092.66518,-0.00006
2090.73645,-0.00014
2088.80773,-0.00022
2086.87901,-0.00028
2084.95028,-0.00032
2083.02156,-0.00039
2081.09283,-0.00047
2079.16411,-0.00050
2077.23539,-0.00044
2075.30666,-0.00038
2073.37794,-0.00040
2071.44922,-0.00046
2069.52049,-0.00043
2067.59177,-0.00033
2065.66305,-0.00027
2063.73432,-0.00017
2061.80560,-0.00012
2059.87687,-0.00017
2057.94815,-0.00013
2056.01943,0.00003
2054.09070,0.00016
2052.16198,0.00023
2050.23326,0.00032
2048.30453,0.00046
2046.37581,0.00061
2044.44709,0.00071
2042.51836,0.00073
2040.58964,0.00084
2038.66091,0.00108
2036.73219,0.00128
2034.80347,0.00147
2032.87474,0.00167
2030.94602,0.00183
2029.01730,0.00204
2027.08857,0.00227
2025.15985,0.00245
2023.23112,0.00256
2021.30240,0.00265
2019.37368,0.00270
2017.44495,0.00276
2015.51623,0.00297
2013.58751,0.00316
2011.65878,0.00318
2009.73006,0.00322
2007.80134,0.00330
2005.87261,0.00338
2003.94389,0.00349
2002.01516,0.00357
2000.08644,0.00357
1998.15772,0.00359
1996.22899,0.00373
1994.30027,0.00368
1992.37155,0.00337
1990.44282,0.00336
1988.51410,0.00349
1986.58538,0.00353
1984.65665,0.00353
1982.72793,0.00348
1980.79920,0.00338
1978.87048,0.00323
1976.94176,0.00312
1975.01303,0.00305
1973.08431,0.00304
1971.15559,0.00309
1969.22686,0.00292
1967.29814,0.00259
1965.36941,0.00250
1963.44069,0.00244
1961.51197,0.00222
1959.58324,0.00202
1957.65452,0.00187
1955.72580,0.00172
1953.79707,0.00161
1951.86835,0.00149
1949.93963,0.00136
1948.01090,0.00131
1946.08218,0.00131
1944.15345,0.00100
1942.22473,0.00062
1940.29601,0.00069
1938.36728,0.00072
1936.43856,0.00058
1934.50984,0.00055
1932.58111,0.00060
1930.65239,0.00063
1928.72367,0.00062
1926.79494,0.00066
1924.86622,0.00058
1922.93749,0.00059
1921.00877,0.00097
1919.08005,0.00088
1917.15132,0.00077
1915.22260,0.00122
1913.29388,0.00158
1911.36515,0.00175
1909.43643,0.00199
1907.50770,0.00248
1905.57898,0.00301
1903.65026,0.00340
1901.72153,0.00374
1899.79281,0.00412
1897.86409,0.00445
1895.93536,0.00474
1894.00664,0.00530
1892.07792,0.00585
1890.14919,0.00598
1888.22047,0.00634
1886.29174,0.00683
1884.36302,0.00698
1882.43430,0.00708
1880.50557,0.00722
1878.57685,0.00738
1876.64813,0.00758
1874.71940,0.00792
1872.79068,0.00828
1870.86196,0.00793
1868.93323,0.00698
1867.00451,0.00660
1865.07578,0.00670
1863.14706,0.00651
1861.21834,0.00603
1859.28961,0.00553
1857.36089,0.00511
1855.43217,0.00472
1853.50344,0.00437
1851.57472,0.00412
1849.64599,0.00399
1847.71727,0.00383
1845.78855,0.00297
1843.85982,0.00191
1841.93110,0.00187
1840.00238,0.00200
1838.07365,0.00162
1836.14493,0.00135
1834.21621,0.00143
1832.28748,0.00117
1830.35876,0.00052
1828.43003,0.00045
1826.50131,0.00040
1824.57259,0.00000
1822.64386,0.00004
1820.71514,0.00019
1818.78642,0.00012
1816.85769,0.00015
1814.92897,0.00034
1813.00025,0.00027
1811.07152,0.00000
1809.14280,-0.00005
1807.21407,0.00022
1805.28535,0.00044
1803.35663,0.00030
1801.42790,-0.00008
1799.49918,0.00001
1797.57046,0.00070
1795.64173,0.00121
1793.71301,0.00086
1791.78428,0.00061
1789.85556,0.00149
1787.92684,0.00234
1785.99811,0.00257
1784.06939,0.00289
1782.14067,0.00324
1780.21194,0.00364
1778.28322,0.00461
1776.35450,0.00557
1774.42577,0.00563
1772.49705,0.00528
1770.56832,0.00591
1768.63960,0.00685
1766.71088,0.00772
1764.78215,0.00838
1762.85343,0.00829
1760.92471,0.00859
1758.99598,0.00932
1757.06726,0.00985
1755.13854,0.01096
1753.20981,0.01182
1751.28109,0.01184
1749.35236,0.01226
1747.42364,0.01337
1745.49492,0.01450
1743.56619,0.01538
1741.63747,0.01617
1739.70875,0.01755
1737.78002,0.01977
1735.85130,0.02057
1733.92257,0.02064
1731.99385,0.02261
1730.06513,0.02465
1728.13640,0.02612
1726.20768,0.02747
1724.27896,0.02893
1722.35023,0.03101
1720.42151,0.03254
1718.49279,0.03279
1716.56406,0.03382
1714.63534,0.03609
1712.70661,0.03838
1710.77789,0.04029
1708.84917,0.04185
1706.92044,0.04344
1704.99172,0.04613
1703.06300,0.04901
1701.13427,0.05052
1699.20555,0.05291
1697.27683,0.05572
1695.34810,0.05835
1693.41938,0.06210
1691.49065,0.06530
1689.56193,0.06828
1687.63321,0.07151
1685.70448,0.07344
1683.77576,0.07575
1681.84704,0.08016
1679.91831,0.08398
1677.98959,0.08646
1676.06087,0.08842
1674.13214,0.09142
1672.20342,0.09447
1670.27469,0.09630
1668.34597,0.09913
1666.41725,0.10266
1664.48852,0.10466
1662.55980,0.10622
1660.63108,0.10907
1658.70235,0.11229
1656.77363,0.11424
1654.84490,0.11371
1652.91618,0.11389
1650.98746,0.11790
1649.05873,0.11966
1647.13001,0.11861
1645.20129,0.11933
1643.27256,0.12139
1641.34384,0.12282
1639.41512,0.12342
1637.48639,0.12239
1635.55767,0.12101
1633.62894,0.12188
1631.70022,0.12290
1629.77150,0.12219
1627.84277,0.12096
1625.91405,0.11972
1623.98533,0.11773
1622.05660,0.11627
1620.12788,0.11524
1618.19916,0.11219
1616.27043,0.10845
1614.34171,0.10647
1612.41298,0.10466
1610.48426,0.10187
1608.55554,0.09889
1606.62681,0.09625
1604.69809,0.09364
1602.76937,0.09086
1600.84064,0.08823
1598.91192,0.08583
1596.98319,0.08344
1595.05447,0.08110
1593.12575,0.07900
1591.19702,0.07700
1589.26830,0.07499
1587.33958,0.07307
1585.41085,0.07123
1583.48213,0.06963
1581.55341,0.06859
1579.62468,0.06756
1577.69596,0.06515
1575.76723,0.06291
1573.83851,0.06295
1571.90979,0.06247
1569.98106,0.06040
1568.05234,0.05935
1566.12362,0.05928
1564.19489,0.05969
1562.26617,0.05963
1560.33745,0.05658
1558.40872,0.05347
1556.48000,0.05414
1554.55127,0.05457
1552.62255,0.05394
1550.69383,0.05296
1548.76510,0.05250
1546.83638,0.05245
1544.90766,0.05189
1542.97893,0.05034
1541.05021,0.04699
1539.12148,0.04477
1537.19276,0.04542
1535.26404,0.04434
1533.33531,0.04156
1531.40659,0.04039
1529.47787,0.03961
1527.54914,0.03783
1525.62042,0.03614
1523.69170,0.03425
1521.76297,0.03165
1519.83425,0.02996
1517.90552,0.02823
1515.97680,0.02635
1514.04808,0.02548
1512.11935,0.02486
1510.19063,0.02317
1508.26191,0.01863
1506.33318,0.01371
1504.40446,0.01279
1502.47574,0.01276
1500.54701,0.01114
1498.61829,0.00851
1496.68956,0.00636
1494.76084,0.00598
1492.83212,0.00574
1490.90339,0.00403
1488.97467,0.00240
1487.04595,0.00217
1485.11722,0.00253
1483.18850,0.00256
1481.25977,0.00271
1479.33105,0.00363
1477.40233,0.00478
1475.47360,0.00560
1473.54488,0.00623
1471.61616,0.00814
1469.68743,0.01118
1467.75871,0.01283
1465.82999,0.01303
1463.90126,0.01411
1461.97254,0.01625
1460.04381,0.01683
1458.11509,0.01548
1456.18637,0.01535
1454.25764,0.01698
1452.32892,0.01792
1450.40020,0.01782
1448.47147,0.01739
1446.54275,0.01750
1444.61403,0.01805
1442.68530,0.01858
1440.75658,0.01919
1438.82785,0.01910
1436.89913,0.01858
1434.97041,0.01951
1433.04168,0.02063
1431.11296,0.02067
1429.18424,0.02084
1427.25551,0.02162
1425.32679,0.02226
1423.39806,0.02309
1421.46934,0.02362
1419.54062,0.02326
1417.61189,0.02380
1415.68317,0.02523
1413.75445,0.02613
1411.82572,0.02675
1409.89700,0.02769
1407.96828,0.02869
1406.03955,0.02932
1404.11083,0.03013
1402.18210,0.03090
1400.25338,0.03050
1398.32466,0.02930
1396.39593,0.02759
1394.46721,0.02561
1392.53849,0.02436
1390.60976,0.02319
1388.68104,0.02127
1386.75232,0.01961
1384.82359,0.01882
1382.89487,0.01796
1380.96614,0.01685
1379.03742,0.01589
1377.10870,0.01489
1375.17997,0.01344
1373.25125,0.01222
1371.32253,0.01147
1369.39380,0.01054
1367.46508,0.00968
1365.53635,0.00878
1363.60763,0.00737
1361.67891,0.00622
1359.75018,0.00568
1357.82146,0.00510
1355.89274,0.00431
1353.96401,0.00358
1352.03529,0.00300
1350.10657,0.00248
1348.17784,0.00205
1346.24912,0.00177
1344.32039,0.00155
1342.39167,0.00110
1340.46295,0.00034
1338.53422,0.00000
1336.60550,0.00026
1334.67678,0.00046
1332.74805,0.00030
1330.81933,0.00003
1328.89061,-0.00009
1326.96188,-0.00007
1325.03316,0.00000
1323.10443,0.00013
1321.17571,0.00025
1319.24699,0.00036
1317.31826,0.00061
1315.38954,0.00086
1313.46082,0.00104
1311.53209,0.00139
1309.60337,0.00182
1307.67464,0.00217
1305.74592,0.00252
1303.81720,0.00293
1301.88847,0.00353
1299.95975,0.00438
1298.03103,0.00542
1296.10230,0.00657
1294.17358,0.00779
1292.24486,0.00908
1290.31613,0.01054
1288.38741,0.01230
1286.45868,0.01443
1284.52996,0.01676
1282.60124,0.01915
1280.67251,0.02169
1278.74379,0.02460
1276.81507,0.02791
1274.88634,0.03142
1272.95762,0.03517
1271.02890,0.03955
1269.10017,0.04467
1267.17145,0.05033
1265.24272,0.05645
1263.31400,0.06321
1261.38528,0.07085
1259.45655,0.07949
1257.52783,0.08886
1255.59911,0.09863
1253.67038,0.10870
1251.74166,0.11898
1249.81294,0.12914
1247.88421,0.13880
1245.95549,0.14777
1244.02676,0.15616
1242.09804,0.16406
1240.16932,0.17132
1238.24059,0.17792
1236.31187,0.18393
1234.38315,0.18937
1232.45442,0.19428
1230.52570,0.19874
1228.59697,0.20275
1226.66825,0.20629
1224.73953,0.20960
1222.81080,0.21290
1220.88208,0.21606
1218.95336,0.21894
1217.02463,0.22169
1215.09591,0.22445
1213.16719,0.22721
1211.23846,0.22983
1209.30974,0.23223
1207.38101,0.23453
1205.45229,0.23703
1203.52357,0.23978
1201.59484,0.24247
1199.66612,0.24480
1197.73740,0.24688
1195.80867,0.24900
1193.87995,0.25124
1191.95123,0.25342
1190.02250,0.25551
1188.09378,0.25775
1186.16505,0.26007
1184.23633,0.26240
1182.30761,0.26497
1180.37888,0.26762
1178.45016,0.27003
1176.52144,0.27234
1174.59271,0.27464
1172.66399,0.27671
1170.73526,0.27863
1168.80654,0.28062
1166.87782,0.28277
1164.94909,0.28504
1163.02037,0.28719
1161.09165,0.28918
1159.16292,0.29126
1157.23420,0.29347
1155.30548,0.29551
1153.37675,0.29724
1151.44803,0.29891
1149.51930,0.30082
1147.59058,0.30298
1145.66186,0.30514
1143.73313,0.30704
1141.80441,0.30878
1139.87569,0.31075
1137.94696,0.31290
1136.01824,0.31509
1134.08952,0.31742
1132.16079,0.32015
1130.23207,0.32339
1128.30334,0.32692
1126.37462,0.33040
1124.44590,0.33398
1122.51717,0.33810
1120.58845,0.34270
1118.65973,0.34741
1116.73100,0.35235
1114.80228,0.35789
1112.87355,0.36402
1110.94483,0.37051
1109.01611,0.37719
1107.08738,0.38384
1105.15866,0.39010
1103.22994,0.39582
1101.30121,0.40058
1099.37249,0.40423
1097.44377,0.40730
1095.51504,0.40977
1093.58632,0.41152
1091.65759,0.41255
1089.72887,0.41247
1087.80015,0.41141
1085.87142,0.41008
1083.94270,0.40851
1082.01398,0.40665
1080.08525,0.40456
1078.15653,0.40197
1076.22781,0.39884
1074.29908,0.39512
1072.37036,0.39104
1070.44163,0.38737
1068.51291,0.38416
1066.58419,0.38056
1064.65546,0.37613
1062.72674,0.37108
1060.79802,0.36571
1058.86929,0.36046
1056.94057,0.35534
1055.01184,0.34978
1053.08312,0.34358
1051.15440,0.33710
1049.22567,0.33083
1047.29695,0.32467
1045.36823,0.31801
1043.43950,0.31104
1041.51078,0.30451
1039.58206,0.29824
1037.65333,0.29156
1035.72461,0.28446
1033.79588,0.27758
1031.86716,0.27169
1029.93844,0.26633
1028.00971,0.26051
1026.08099,0.25439
1024.15227,0.24861
1022.22354,0.24336
1020.29482,0.23846
1018.36610,0.23347
1016.43737,0.22845
1014.50865,0.22397
1012.57992,0.22015
1010.65120,0.21655
1008.72248,0.21302
1006.79375,0.20953
1004.86503,0.20596
1002.93631,0.20240
1001.00758,0.19912
999.07886,0.19608
997.15013,0.19315
995.22141,0.19032
993.29269,0.18751
991.36396,0.18464
989.43524,0.18180
987.50652,0.17921
985.57779,0.17715
983.64907,0.17550
981.72035,0.17399
979.79162,0.17271
977.86290,0.17165
975.93417,0.17062
974.00545,0.16961
972.07673,0.16871
970.14800,0.16796
968.21928,0.16740
966.29056,0.16694
964.36183,0.16632
962.43311,0.16550
960.50439,0.16479
958.57566,0.16425
956.64694,0.16346
954.71821,0.16217
952.78949,0.16068
950.86077,0.15933
948.93204,0.15790
947.00332,0.15608
945.07460,0.15389
943.14587,0.15148
941.21715,0.14913
939.28842,0.14704
937.35970,0.14497
935.43098,0.14264
933.50225,0.14008
931.57353,0.13743
929.64481,0.13470
927.71608,0.13178
925.78736,0.12871
923.85864,0.12554
921.92991,0.12205
920.00119,0.11822
918.07246,0.11433
916.14374,0.11059
914.21502,0.10707
912.28629,0.10348
910.35757,0.09963
908.42885,0.09564
906.50012,0.09153
904.57140,0.08738
902.64268,0.08354
900.71395,0.08013
898.78523,0.07678
896.85650,0.07314
894.92778,0.06929
892.99906,0.06550
891.07033,0.06195
889.14161,0.05870
887.21289,0.05562
885.28416,0.05252
883.35544,0.04948
881.42671,0.04660
879.49799,0.04396
877.56927,0.04155
875.64054,0.03921
873.71182,0.03707
871.78310,0.03523
869.85437,0.03343
867.92565,0.03147
865.99693,0.02957
864.06820,0.02770
862.13948,0.02557
860.21075,0.02353
858.28203,0.02202
856.35331,0.02079
854.42458,0.01964
852.49586,0.01875
850.56714,0.01830
848.63841,0.01832
846.70969,0.01847
844.78097,0.01852
842.85224,0.01889
840.92352,0.02007
838.99479,0.02184
837.06607,0.02376
835.13735,0.02607
833.20862,0.02909
831.27990,0.03213
829.35118,0.03439
827.42245,0.03635
825.49373,0.03877
823.56501,0.04151
821.63628,0.04426
819.70756,0.04727
817.77883,0.05048
815.85011,0.05349
813.92139,0.05632
811.99266,0.05924
810.06394,0.06223
808.13522,0.06491
806.20649,0.06715
804.27777,0.06923
802.34904,0.07135
800.42032,0.07310
798.49160,0.07401
796.56287,0.07414
794.63415,0.07371
792.70543,0.07299
790.77670,0.07188
788.84798,0.07016
786.91926,0.06829
784.99053,0.06663
783.06181,0.06470
781.13308,0.06182
779.20436,0.05823
777.27564,0.05463
775.34691,0.05115
773.41819,0.04789
771.48947,0.04515
769.56074,0.04292
767.63202,0.04114
765.70330,0.04016
763.77457,0.03992
761.84585,0.03967
759.91712,0.03897
757.98840,0.03818
756.05968,0.03777
754.13095,0.03756
752.20223,0.03729
750.27351,0.03704
748.34478,0.03679
746.41606,0.03668
744.48733,0.03682
742.55861,0.03682
740.62989,0.03641
738.70116,0.03578
736.77244,0.03542
734.84372,0.03560
732.91499,0.03596
730.98627,0.03614
729.05755,0.03614
727.12882,0.03609
725.20010,0.03632
723.27137,0.03687
721.34265,0.03749
719.41393,0.03797
717.48520,0.03818
715.55648,0.03799
713.62776,0.03760
711.69903,0.03778
709.77031,0.03872
707.84159,0.03968
705.91286,0.04035
703.98414,0.04108
702.05541,0.04217
700.12669,0.04352
698.19797,0.04481
696.26924,0.04567
694.34052,0.04609
692.41180,0.04640
690.48307,0.04664
688.55435,0.04658
686.62562,0.04644
684.69690,0.04668
682.76818,0.04730
680.83945,0.04750
678.91073,0.04679
676.98201,0.04602
675.05328,0.04603
673.12456,0.04653
671.19584,0.04615
669.26711,0.04444
667.33839,0.04376
665.40966,0.04510
663.48094,0.04642
661.55222,0.04719
659.62349,0.04811
657.69477,0.04913
655.76605,0.05006
653.83732,0.05106
651.90860,0.05254
649.97988,0.05464
648.05115,0.05698
646.12243,0.05907
644.19370,0.06099
642.26498,0.06303
640.33626,0.06512
638.40753,0.06697
636.47881,0.06848
634.55009,0.06977
632.62136,0.07104
630.69264,0.07234
628.76391,0.07344
626.83519,0.07407
624.90647,0.07442
622.97774,0.07464
621.04902,0.07501
619.12030,0.07623
617.19157,0.07811
615.26285,0.08006
613.33413,0.08177
611.40540,0.08290
609.47668,0.08384
607.54795,0.08522
605.61923,0.08657
603.69051,0.08751
601.76178,0.08881
599.83306,0.09094
597.90434,0.09296
595.97561,0.09402
594.04689,0.09467
592.11817,0.09551
590.18944,0.09613
588.26072,0.09631
586.33199,0.09676
584.40327,0.09776
582.47455,0.09868
580.54582,0.09910
578.61710,0.09930
576.68838,0.09976
574.75965,0.10043
572.83093,0.10079
570.90220,0.10098
568.97348,0.10110
567.04476,0.10074
565.11603,0.09977
563.18731,0.09843
561.25859,0.09756
559.32986,0.09773
557.40114,0.09868
555.47242,0.09972
553.54369,0.10015
551.61497,0.10003
549.68624,0.10050
547.75752,0.10183
545.82880,0.10301
543.90007,0.10349
541.97135,0.10330
540.04263,0.10257
538.11390,0.10168
536.18518,0.10136
534.25646,0.10166
532.32773,0.10153
530.39901,0.10037
528.47028,0.09859
526.54156,0.09747
524.61284,0.09827
522.68411,0.10024
520.75539,0.10163
518.82667,0.10180
516.89794,0.10193
514.96922,0.10295
513.04049,0.10388
511.11177,0.10459
509.18305,0.10659
507.25432,0.11059
505.32560,0.11567
503.39688,0.12047
501.46815,0.12460
499.53943,0.12830
497.61071,0.13246
495.68198,0.13802
493.75326,0.14497
491.82453,0.15240
489.89581,0.15926
487.96709,0.16581
486.03836,0.17207
484.10964,0.17754
482.18092,0.18404
480.25219,0.19281
478.32347,0.20202
476.39475,0.21031
474.46602,0.21660
472.53730,0.21959
470.60857,0.22086
468.67985,0.22320
466.75113,0.22568
464.82240,0.22482
462.89368,0.22115
460.96496,0.21838
459.03623,0.21704
457.10751,0.21527
455.17878,0.21191
453.25006,0.20622
451.32134,0.19809
449.39261,0.19010
447.46389,0.18623
445.53517,0.18573
443.60644,0.18387
441.67772,0.17901
439.74900,0.17194
437.82027,0.16249
435.89155,0.15306
433.96282,0.14829
432.03410,0.14613
430.10538,0.13907
428.17665,0.12783
426.24793,0.12187
424.31921,0.12296
422.39048,0.12110
420.46176,0.11147
418.53304,0.10247
416.60431,0.09774
414.67559,0.09058
412.74686,0.08161
410.81814,0.07492
408.88942,0.06950
406.96069,0.06469
405.03197,0.06216
403.10325,0.06080
401.17452,0.05636
399.24580,0.04878
397.31708,0.04852
395.38835,0.05641
393.45963,0.05246
391.53090,0.03232
389.60218,0.01243
387.67346,0.00263
385.74473,0.00000
383.81601,0.00039
381.88729,0.00554
379.95856,0.01043
378.02984,0.01200
376.10111,0.01215
374.17239,0.01036
372.24367,0.00148
370.31494,-0.00661
368.38622,0.00000
