3996.31543,-0.00030
3994.38671,-0.00014
3992.45799,-0.00015
3990.52926,-0.00026
3988.60054,-0.00028
3986.67182,-0.00028
3984.74309,-0.00034
3982.81437,-0.00035
3980.88564,-0.00022
3978.95692,-0.00008
3977.02820,0.00000
3975.09947,0.00010
3973.17075,0.00023
3971.24203,0.00031
3969.31330,0.00025
3967.38458,0.00013
3965.45586,0.00005
3963.52713,0.00000
3961.59841,0.00004
3959.66968,0.00019
3957.74096,0.00037
3955.81224,0.00051
3953.88351,0.00051
3951.95479,0.00041
3950.02607,0.00043
3948.09734,0.00064
3946.16862,0.00082
3944.23990,0.00094
3942.31117,0.00113
3940.38245,0.00115
3938.45372,0.00082
3936.52500,0.00037
3934.59628,0.00014
3932.66755,0.00030
3930.73883,0.00064
3928.81011,0.00061
3926.88138,0.00031
3924.95266,0.00028
3923.02393,0.00044
3921.09521,0.00046
3919.16649,0.00054
3917.23776,0.00087
3915.30904,0.00110
3913.38032,0.00092
3911.45159,0.00059
3909.52287,0.00036
3907.59415,0.00026
3905.66542,0.00050
3903.73670,0.00126
3901.80797,0.00214
3899.87925,0.00264
3897.95053,0.00247
3896.02180,0.00163
3894.09308,0.00077
3892.16436,0.00068
3890.23563,0.00102
3888.30691,0.00093
3886.37819,0.00080
3884.44946,0.00111
3882.52074,0.00154
3880.59201,0.00199
3878.66329,0.00204
3876.73457,0.00136
3874.80584,0.00076
3872.87712,0.00088
3870.94840,0.00156
3869.01967,0.00209
3867.09095,0.00187
3865.16222,0.00159
3863.23350,0.00197
3861.30478,0.00224
3859.37605,0.00160
3857.44733,0.00038
3855.51861,0.00000
3853.58988,0.00170
3851.66116,0.00377
3849.73244,0.00374
3847.80371,0.00241
3845.87499,0.00131
3843.94626,0.00091
3842.01754,0.00098
3840.08882,0.00135
3838.16009,0.00203
3836.23137,0.00262
3834.30265,0.00274
3832.37392,0.00258
3830.44520,0.00223
3828.51648,0.00174
3826.58775,0.00133
3824.65903,0.00101
3822.73030,0.00107
3820.80158,0.00183
3818.87286,0.00246
3816.94413,0.00278
3815.01541,0.00323
3813.08669,0.00305
3811.15796,0.00203
3809.22924,0.00123
3807.30052,0.00142
3805.37179,0.00184
3803.44307,0.00188
3801.51434,0.00228
3799.58562,0.00285
3797.65690,0.00294
3795.72817,0.00296
3793.79945,0.00301
3791.87073,0.00280
3789.94200,0.00237
3788.01328,0.00194
3786.08455,0.00179
3784.15583,0.00195
3782.22711,0.00216
3780.29838,0.00251
3778.36966,0.00306
3776.44094,0.00323
3774.51221,0.00283
3772.58349,0.00250
3770.65477,0.00286
3768.72604,0.00355
3766.79732,0.00388
3764.86859,0.00389
3762.93987,0.00375
3761.01115,0.00370
3759.08242,0.00407
3757.15370,0.00432
3755.22498,0.00394
3753.29625,0.00381
3751.36753,0.00489
3749.43881,0.00605
3747.51008,0.00590
3745.58136,0.00589
3743.65263,0.00710
3741.72391,0.00778
3739.79519,0.00720
3737.86646,0.00687
3735.93774,0.00795
3734.00902,0.00970
3732.08029,0.01083
3730.15157,0.01114
3728.22284,0.01133
3726.29412,0.01207
3724.36540,0.01325
3722.43667,0.01446
3720.50795,0.01549
3718.57923,0.01624
3716.65050,0.01663
3714.72178,0.01705
3712.79306,0.01856
3710.86433,0.02153
3708.93561,0.02431
3707.00688,0.02569
3705.07816,0.02637
3703.14944,0.02769
3701.22071,0.03006
3699.29199,0.03238
3697.36327,0.03399
3695.43454,0.03510
3693.50582,0.03594
3691.57710,0.03724
3689.64837,0.03993
3687.71965,0.04298
3685.79092,0.04468
3683.86220,0.04533
3681.93348,0.04601
3680.00475,0.04702
3678.07603,0.04855
3676.14731,0.05157
3674.21858,0.05529
3672.28986,0.05765
3670.36113,0.05974
3668.43241,0.06234
3666.50369,0.06411
3664.57496,0.06504
3662.64624,0.06601
3660.71752,0.06726
3658.78879,0.06880
3656.86007,0.07076
3654.93135,0.07237
3653.00262,0.07295
3651.07390,0.07420
3649.14517,0.07771
3647.21645,0.08118
3645.28773,0.08232
3643.35900,0.08234
3641.43028,0.08272
3639.50156,0.08352
3637.57283,0.08439
3635.64411,0.08531
3633.71539,0.08606
3631.78666,0.08667
3629.85794,0.08835
3627.92921,0.09124
3626.00049,0.09286
3624.07177,0.09266
3622.14304,0.09233
3620.21432,0.09306
3618.28560,0.09439
3616.35687,0.09511
3614.42815,0.09541
3612.49942,0.09599
3610.57070,0.09684
3608.64198,0.09793
3606.71325,0.09894
3604.78453,0.09922
3602.85581,0.09917
3600.92708,0.09955
3598.99836,0.10026
3597.06964,0.10103
3595.14091,0.10199
3593.21219,0.10284
3591.28346,0.10304
3589.35474,0.10322
3587.42602,0.10436
3585.49729,0.10570
3583.56857,0.10620
3581.63985,0.10628
3579.71112,0.10661
3577.78240,0.10722
3575.85368,0.10785
3573.92495,0.10818
3571.99623,0.10807
3570.06750,0.10792
3568.13878,0.10868
3566.21006,0.11045
3564.28133,0.11178
3562.35261,0.11209
3560.42389,0.11209
3558.49516,0.11218
3556.56644,0.11227
3554.63771,0.11256
3552.70899,0.11326
3550.78027,0.11389
3548.85154,0.11409
3546.92282,0.11445
3544.99410,0.11537
3543.06537,0.11624
3541.13665,0.11659
3539.20793,0.11660
3537.27920,0.11674
3535.35048,0.11718
3533.42175,0.11778
3531.49303,0.11832
3529.56431,0.11875
3527.63558,0.11915
3525.70686,0.11971
3523.77814,0.12050
3521.84941,0.12125
3519.92069,0.12171
3517.99197,0.12194
3516.06324,0.12216
3514.13452,0.12251
3512.20579,0.12312
3510.27707,0.12393
3508.34835,0.12459
3506.41962,0.12491
3504.49090,0.12525
3502.56218,0.12596
3500.63345,0.12676
3498.70473,0.12730
3496.77600,0.12777
3494.84728,0.12834
3492.91856,0.12880
3490.98983,0.12904
3489.06111,0.12915
3487.13239,0.12930
3485.20366,0.12950
3483.27494,0.12974
3481.34622,0.13017
3479.41749,0.13073
3477.48877,0.13104
3475.56004,0.13116
3473.63132,0.13142
3471.70260,0.13183
3469.77387,0.13220
3467.84515,0.13245
3465.91643,0.13265
3463.98770,0.13292
3462.05898,0.13328
3460.13026,0.13356
3458.20153,0.13361
3456.27281,0.13353
3454.34408,0.13358
3452.41536,0.13376
3450.48664,0.13380
3448.55791,0.13368
3446.62919,0.13361
3444.70047,0.13342
3442.77174,0.13306
3440.84302,0.13271
3438.91429,0.13238
3436.98557,0.13216
3435.05685,0.13211
3433.12812,0.13212
3431.19940,0.13216
3429.27068,0.13209
3427.34195,0.13177
3425.41323,0.13137
3423.48451,0.13117
3421.55578,0.13127
3419.62706,0.13143
3417.69833,0.13145
3415.76961,0.13147
3413.84089,0.13153
3411.91216,0.13141
3409.98344,0.13116
3408.05472,0.13100
3406.12599,0.13092
3404.19727,0.13088
3402.26855,0.13091
3400.33982,0.13083
3398.41110,0.13053
3396.48237,0.13025
3394.55365,0.13025
3392.62493,0.13045
3390.69620,0.13051
3388.76748,0.13034
3386.83876,0.13019
3384.91003,0.13012
3382.98131,0.12991
3381.05259,0.12962
3379.12386,0.12937
3377.19514,0.12906
3375.26641,0.12876
3373.33769,0.12860
3371.40897,0.12862
3369.48024,0.12874
3367.55152,0.12878
3365.62280,0.12861
3363.69407,0.12837
3361.76535,0.12818
3359.83662,0.12802
3357.90790,0.12797
3355.97918,0.12799
3354.05045,0.12779
3352.12173,0.12742
3350.19301,0.12714
3348.26428,0.12694
3346.33556,0.12668
3344.40684,0.12641
3342.47811,0.12614
3340.54939,0.12583
3338.62066,0.12566
3336.69194,0.12576
3334.76322,0.12597
3332.83449,0.12603
3330.90577,0.12587
3328.97705,0.12550
3327.04832,0.12502
3325.11960,0.12466
3323.19088,0.12449
3321.26215,0.12444
3319.33343,0.12435
3317.40470,0.12406
3315.47598,0.12367
3313.54726,0.12341
3311.61853,0.12326
3309.68981,0.12319
3307.76109,0.12319
3305.83236,0.12305
3303.90364,0.12266
3301.97491,0.12222
3300.04619,0.12197
3298.11747,0.12188
3296.18874,0.12185
3294.26002,0.12181
3292.33130,0.12170
3290.40257,0.12152
3288.47385,0.12139
3286.54513,0.12125
3284.61640,0.12100
3282.68768,0.12076
3280.75895,0.12065
3278.83023,0.12066
3276.90151,0.12076
3274.97278,0.12080
3273.04406,0.12059
3271.11534,0.12016
3269.18661,0.11971
3267.25789,0.11947
3265.32917,0.11951
3263.40044,0.11959
3261.47172,0.11935
3259.54299,0.11882
3257.61427,0.11835
3255.68555,0.11808
3253.75682,0.11808
3251.82810,0.11818
3249.89938,0.11810
3247.97065,0.11790
3246.04193,0.11777
3244.11320,0.11760
3242.18448,0.11736
3240.25576,0.11712
3238.32703,0.11683
3236.39831,0.11659
3234.46959,0.11645
3232.54086,0.11625
3230.61214,0.11587
3228.68342,0.11547
3226.75469,0.11519
3224.82597,0.11499
3222.89724,0.11479
3220.96852,0.11456
3219.03980,0.11432
3217.11107,0.11406
3215.18235,0.11371
3213.25363,0.11337
3211.32490,0.11319
3209.39618,0.11309
3207.46746,0.11283
3205.53873,0.11240
3203.61001,0.11199
3201.68128,0.11168
3199.75256,0.11145
3197.82384,0.11129
3195.89511,0.11108
3193.96639,0.11068
3192.03767,0.11018
3190.10894,0.10975
3188.18022,0.10947
3186.25149,0.10931
3184.32277,0.10906
3182.39405,0.10853
3180.46532,0.10797
3178.53660,0.10768
3176.60788,0.10747
3174.67915,0.10705
3172.75043,0.10653
3170.82171,0.10609
3168.89298,0.10574
3166.96426,0.10537
3165.03553,0.10490
3163.10681,0.10449
3161.17809,0.10429
3159.24936,0.10414
3157.32064,0.10380
3155.39192,0.10331
3153.46319,0.10281
3151.53447,0.10233
3149.60575,0.10189
3147.67702,0.10149
3145.74830,0.10109
3143.81957,0.10074
3141.89085,0.10039
3139.96213,0.09988
3138.03340,0.09928
3136.10468,0.09877
3134.17596,0.09837
3132.24723,0.09797
3130.31851,0.09760
3128.38978,0.09733
3126.46106,0.09712
3124.53234,0.09680
3122.60361,0.09639
3120.67489,0.09594
3118.74617,0.09548
3116.81744,0.09503
3114.88872,0.09459
3112.96000,0.09409
3111.03127,0.09361
3109.10255,0.09326
3107.17382,0.09288
3105.24510,0.09225
3103.31638,0.09154
3101.38765,0.09100
3099.45893,0.09053
3097.53021,0.09001
3095.60148,0.08952
3093.67276,0.08909
3091.74404,0.08866
3089.81531,0.08814
3087.88659,0.08747
3085.95786,0.08673
3084.02914,0.08614
3082.10042,0.08576
3080.17169,0.08547
3078.24297,0.08511
3076.31425,0.08463
3074.38552,0.08405
3072.45680,0.08342
3070.52807,0.08279
3068.59935,0.08219
3066.67063,0.08167
3064.74190,0.08118
3062.81318,0.08067
3060.88446,0.08015
3058.95573,0.07968
3057.02701,0.07926
3055.09829,0.07885
3053.16956,0.07836
3051.24084,0.07780
3049.31211,0.07735
3047.38339,0.07706
3045.45467,0.07661
3043.52594,0.07590
3041.59722,0.07520
3039.66850,0.07467
3037.73977,0.07424
3035.81105,0.07388
3033.88233,0.07356
3031.95360,0.07318
3030.02488,0.07272
3028.09615,0.07225
3026.16743,0.07191
3024.23871,0.07167
3022.30998,0.07135
3020.38126,0.07089
3018.45254,0.07039
3016.52381,0.06994
3014.59509,0.06960
3012.66636,0.06928
3010.73764,0.06881
3008.80892,0.06830
3006.88019,0.06785
3004.95147,0.06746
3003.02275,0.06710
3001.09402,0.06677
2999.16530,0.06638
2997.23658,0.06594
2995.30785,0.06559
2993.37913,0.06532
2991.45040,0.06499
2989.52168,0.06459
2987.59296,0.06420
2985.66423,0.06394
2983.73551,0.06375
2981.80679,0.06360
2979.87806,0.06335
2977.94934,0.06284
2976.02062,0.06221
2974.09189,0.06176
2972.16317,0.06145
2970.23444,0.06111
2968.30572,0.06071
2966.37700,0.06031
2964.44827,0.05994
2962.51955,0.05958
2960.59083,0.05927
2958.66210,0.05906
2956.73338,0.05893
2954.80466,0.05878
2952.87593,0.05854
2950.94721,0.05828
2949.01848,0.05801
2947.08976,0.05771
2945.16104,0.05745
2943.23231,0.05727
2941.30359,0.05701
2939.37487,0.05662
2937.44614,0.05627
2935.51742,0.05609
2933.58869,0.05601
2931.65997,0.05593
2929.73125,0.05564
2927.80252,0.05510
2925.87380,0.05453
2923.94508,0.05391
2922.01635,0.05300
2920.08763,0.05204
2918.15891,0.05135
2916.23018,0.05081
2914.30146,0.05031
2912.37273,0.05001
2910.44401,0.04986
2908.51529,0.04964
2906.58656,0.04929
2904.65784,0.04881
2902.72912,0.04831
2900.80039,0.04794
2898.87167,0.04757
2896.94295,0.04707
2895.01422,0.04665
2893.08550,0.04634
2891.15677,0.04595
2889.22805,0.04544
2887.29933,0.04492
2885.37060,0.04444
2883.44188,0.04392
2881.51316,0.04342
2879.58443,0.04305
2877.65571,0.04274
2875.72698,0.04243
2873.79826,0.04215
2871.86954,0.04179
2869.94081,0.04131
2868.01209,0.04085
2866.08337,0.04047
2864.15464,0.04015
2862.22592,0.03979
2860.29720,0.03931
2858.36847,0.03878
2856.43975,0.03840
2854.51102,0.03817
2852.58230,0.03787
2850.65358,0.03738
2848.72485,0.03687
2846.79613,0.03655
2844.86741,0.03633
2842.93868,0.03596
2841.00996,0.03556
2839.08124,0.03526
2837.15251,0.03486
2835.22379,0.03430
2833.29506,0.03383
2831.36634,0.03346
2829.43762,0.03304
2827.50889,0.03263
2825.58017,0.03234
2823.65145,0.03210
2821.72272,0.03177
2819.79400,0.03138
2817.86527,0.03105
2815.93655,0.03078
2814.00783,0.03035
2812.07910,0.02981
2810.15038,0.02947
2808.22166,0.02933
2806.29293,0.02911
2804.36421,0.02874
2802.43549,0.02835
2800.50676,0.02806
2798.57804,0.02784
2796.64931,0.02757
2794.72059,0.02726
2792.79187,0.02701
2790.86314,0.02680
2788.93442,0.02654
2787.00570,0.02624
2785.07697,0.02590
2783.14825,0.02551
2781.21953,0.02519
2779.29080,0.02493
2777.36208,0.02464
2775.43335,0.02434
2773.50463,0.02410
2771.57591,0.02393
2769.64718,0.02370
2767.71846,0.02337
2765.78974,0.02307
2763.86101,0.02282
2761.93229,0.02249
2760.00356,0.02214
2758.07484,0.02191
2756.14612,0.02175
2754.21739,0.02155
2752.28867,0.02137
2750.35995,0.02117
2748.43122,0.02091
2746.50250,0.02065
2744.57378,0.02037
2742.64505,0.02010
2740.71633,0.01985
2738.78760,0.01962
2736.85888,0.01936
2734.93016,0.01908
2733.00143,0.01880
2731.07271,0.01857
2729.14399,0.01836
2727.21526,0.01814
2725.28654,0.01793
2723.35782,0.01770
2721.42909,0.01745
2719.50037,0.01722
2717.57164,0.01704
2715.64292,0.01687
2713.71420,0.01669
2711.78547,0.01645
2709.85675,0.01620
2707.92803,0.01599
2705.99930,0.01578
2704.07058,0.01552
2702.14185,0.01524
2700.21313,0.01497
2698.28441,0.01471
2696.35568,0.01450
2694.42696,0.01439
2692.49824,0.01430
2690.56951,0.01415
2688.64079,0.01396
2686.71207,0.01376
2684.78334,0.01354
2682.85462,0.01329
2680.92589,0.01308
2678.99717,0.01292
2677.06845,0.01274
2675.13972,0.01249
2673.21100,0.01223
2671.28228,0.01204
2669.35355,0.01187
2667.42483,0.01170
2665.49611,0.01153
2663.56738,0.01139
2661.63866,0.01124
2659.70993,0.01101
2657.78121,0.01077
2655.85249,0.01063
2653.92376,0.01055
2651.99504,0.01041
2650.06632,0.01019
2648.13759,0.00999
2646.20887,0.00987
2644.28014,0.00977
2642.35142,0.00956
2640.42270,0.00930
2638.49397,0.00914
2636.56525,0.00909
2634.63653,0.00904
2632.70780,0.00890
2630.77908,0.00870
2628.85036,0.00851
2626.92163,0.00832
2624.99291,0.00816
2623.06418,0.00809
2621.13546,0.00802
2619.20674,0.00788
2617.27801,0.00772
2615.34929,0.00762
2613.42057,0.00749
2611.49184,0.00725
2609.56312,0.00705
2607.63440,0.00698
2605.70567,0.00687
2603.77695,0.00669
2601.84822,0.00655
2599.91950,0.00647
2597.99078,0.00637
2596.06205,0.00627
2594.13333,0.00618
2592.20461,0.00607
2590.27588,0.00595
2588.34716,0.00582
2586.41843,0.00562
2584.48971,0.00547
2582.56099,0.00544
2580.63226,0.00542
2578.70354,0.00537
2576.77482,0.00539
2574.84609,0.00539
2572.91737,0.00523
2570.98865,0.00501
2569.05992,0.00491
2567.13120,0.00491
2565.20247,0.00493
2563.27375,0.00493
2561.34503,0.00486
2559.41630,0.00471
2557.48758,0.00457
2555.55886,0.00448
2553.63013,0.00441
2551.70141,0.00436
2549.77269,0.00438
2547.84396,0.00439
2545.91524,0.00426
2543.98651,0.00404
2542.05779,0.00389
2540.12907,0.00384
2538.20034,0.00379
2536.27162,0.00365
2534.34290,0.00349
2532.41417,0.00344
2530.48545,0.00343
2528.55673,0.00340
2526.62800,0.00339
2524.69928,0.00341
2522.77055,0.00345
2520.84183,0.00344
2518.91311,0.00331
2516.98438,0.00316
2515.05566,0.00310
2513.12694,0.00310
2511.19821,0.00310
2509.26949,0.00306
2507.34076,0.00300
2505.41204,0.00297
2503.48332,0.00290
2501.55459,0.00277
2499.62587,0.00264
2497.69715,0.00252
2495.76842,0.00240
2493.83970,0.00231
2491.91098,0.00225
2489.98225,0.00221
2488.05353,0.00223
2486.12480,0.00226
2484.19608,0.00227
2482.26736,0.00221
2480.33863,0.00206
2478.40991,0.00193
2476.48119,0.00187
2474.55246,0.00185
2472.62374,0.00184
2470.69502,0.00183
2468.76629,0.00180
2466.83757,0.00171
2464.90884,0.00160
2462.98012,0.00150
2461.05140,0.00149
2459.12267,0.00153
2457.19395,0.00156
2455.26523,0.00155
2453.33650,0.00154
2451.40778,0.00155
2449.47905,0.00152
2447.55033,0.00148
2445.62161,0.00153
2443.69288,0.00156
2441.76416,0.00149
2439.83544,0.00140
2437.90671,0.00129
2435.97799,0.00113
2434.04927,0.00104
2432.12054,0.00109
2430.19182,0.00114
2428.26309,0.00112
2426.33437,0.00107
2424.40565,0.00105
2422.47692,0.00104
2420.54820,0.00099
2418.61948,0.00090
2416.69075,0.00076
2414.76203,0.00068
2412.83331,0.00072
2410.90458,0.00079
2408.97586,0.00080
2407.04713,0.00079
2405.11841,0.00074
2403.18969,0.00064
2401.26096,0.00054
2399.33224,0.00046
2397.40352,0.00043
2395.47479,0.00044
2393.54607,0.00044
2391.61734,0.00039
2389.68862,0.00034
2387.75990,0.00035
2385.83117,0.00037
2383.90245,0.00036
2381.97373,0.00033
2380.04500,0.00026
2378.11628,0.00013
2376.18756,0.00000
2374.25883,0.00000
2372.33011,0.00016
2370.40138,0.00040
2368.47266,0.00048
2366.54394,0.00035
2364.61521,0.00023
2362.68649,0.00034
2360.75777,0.00060
2358.82904,0.00080
2356.90032,0.00094
2354.97160,0.00115
2353.04287,0.00132
2351.11415,0.00115
2349.18542,0.00062
2347.25670,0.00014
2345.32798,0.00005
2343.39925,0.00023
2341.47053,0.00044
2339.54181,0.00062
2337.61308,0.00075
2335.68436,0.00071
2333.75563,0.00054
2331.82691,0.00040
2329.89819,0.00037
2327.96946,0.00040
2326.04074,0.00041
2324.11202,0.00037
2322.18329,0.00032
2320.25457,0.00034
2318.32585,0.00045
2316.39712,0.00057
2314.46840,0.00058
2312.53967,0.00051
2310.61095,0.00042
2308.68223,0.00032
2306.75350,0.00019
2304.82478,0.00011
2302.89606,0.00010
2300.96733,0.00014
2299.03861,0.00019
2297.10989,0.00024
2295.18116,0.00022
2293.25244,0.00019
2291.32371,0.00020
2289.39499,0.00022
2287.46627,0.00016
2285.53754,0.00004
2283.60882,-0.00006
2281.68010,-0.00011
2279.75137,-0.00008
2277.82265,0.00001
2275.89392,0.00006
2273.96520,0.00005
2272.03648,0.00006
2270.10775,0.00010
2268.17903,0.00013
2266.25031,0.00013
2264.32158,0.00010
2262.39286,0.00005
2260.46414,0.00003
2258.53541,0.00002
2256.60669,-0.00001
2254.67796,-0.00002
2252.74924,0.00000
2250.82052,-0.00001
2248.89179,-0.00008
2246.96307,-0.00014
2245.03435,-0.00013
2243.10562,-0.00010
2241.17690,-0.00013
2239.24818,-0.00016
2237.31945,-0.00010
2235.39073,-0.00007
2233.46200,-0.00010
2231.53328,-0.00011
2229.60456,-0.00013
2227.67583,-0.00016
2225.74711,-0.00015
2223.81839,-0.00011
2221.88966,-0.00013
2219.96094,-0.00022
2218.03221,-0.00027
2216.10349,-0.00024
2214.17477,-0.00014
2212.24604,-0.00007
2210.31732,-0.00005
2208.38860,-0.00004
2206.45987,0.00000
2204.53115,0.00003
2202.60243,0.00002
2200.67370,-0.00003
2198.74498,-0.00009
2196.81625,-0.00016
2194.88753,-0.00021
2192.95881,-0.00021
2191.03008,-0.00017
2189.10136,-0.00015
2187.17264,-0.00016
2185.24391,-0.00015
2183.31519,-0.00011
2181.38647,-0.00007
2179.45774,-0.00005
2177.52902,-0.00006
2175.60029,-0.00009
2173.67157,-0.00010
2171.74285,-0.00009
2169.81412,-0.00007
2167.88540,-0.00000
2165.95668,0.00008
2164.02795,0.00010
2162.09923,0.00004
2160.17050,-0.00003
2158.24178,-0.00003
2156.31306,0.00003
2154.38433,0.00006
2152.45561,0.00003
2150.52689,0.00000
2148.59816,-0.00000
2146.66944,0.00001
2144.74072,-0.00001
2142.81199,-0.00002
2140.88327,0.00004
2138.95454,0.00010
2137.02582,0.00012
2135.09710,0.00010
2133.16837,0.00002
2131.23965,-0.00005
2129.31093,-0.00005
2127.38220,-0.00003
2125.45348,-0.00000
2123.52476,-0.00001
2121.59603,-0.00006
2119.66731,-0.00010
2117.73858,-0.00010
2115.80986,-0.00007
2113.88114,-0.00006
2111.95241,-0.00016
2110.02369,-0.00029
2108.09497,-0.00029
2106.16624,-0.00023
2104.23752,-0.00024
2102.30880,-0.00028
2100.38007,-0.00026
2098.45135,-0.00020
2096.52262,-0.00010
2094.59390,0.00000
2092.66518,-0.00007
2090.73645,-0.00017
2088.80773,-0.00022
2086.87901,-0.00021
2084.95028,-0.00023
2083.02156,-0.00031
2081.09283,-0.00037
2079.16411,-0.00036
2077.23539,-0.00031
2075.30666,-0.00024
2073.37794,-0.00013
2071.44922,-0.00004
2069.52049,-0.00002
2067.59177,0.00001
2065.66305,0.00013
2063.73432,0.00023
2061.80560,0.00022
2059.87687,0.00024
2057.94815,0.00040
2056.01943,0.00059
2054.09070,0.00068
2052.16198,0.00072
2050.23326,0.00084
2048.30453,0.00104
2046.37581,0.00125
2044.44709,0.00145
2042.51836,0.00167
2040.58964,0.00191
2038.66091,0.00216
2036.73219,0.00242
2034.80347,0.00268
2032.87474,0.00293
2030.94602,0.00318
2029.01730,0.00341
2027.08857,0.00363
2025.15985,0.00389
2023.23112,0.00414
2021.30240,0.00433
2019.37368,0.00449
2017.44495,0.00467
2015.51623,0.00485
2013.58751,0.00498
2011.65878,0.00511
2009.73006,0.00524
2007.80134,0.00532
2005.87261,0.00540
2003.94389,0.00549
2002.01516,0.00551
2000.08644,0.00549
1998.15772,0.00543
1996.22899,0.00530
1994.30027,0.00521
1992.37155,0.00532
1990.44282,0.00550
1988.51410,0.00552
1986.58538,0.00539
1984.65665,0.00522
1982.72793,0.00508
1980.79920,0.00501
1978.87048,0.00502
1976.94176,0.00501
1975.01303,0.00485
1973.08431,0.00461
1971.15559,0.00445
1969.22686,0.00439
1967.29814,0.00436
1965.36941,0.00431
1963.44069,0.00419
1961.51197,0.00403
1959.58324,0.00390
1957.65452,0.00380
1955.72580,0.00370
1953.79707,0.00360
1951.86835,0.00352
1949.93963,0.00340
1948.01090,0.00326
1946.08218,0.00317
1944.15345,0.00316
1942.22473,0.00322
1940.29601,0.00323
1938.36728,0.00316
1936.43856,0.00315
1934.50984,0.00322
1932.58111,0.00324
1930.65239,0.00323
1928.72367,0.00319
1926.79494,0.00314
1924.86622,0.00322
1922.93749,0.00351
1921.00877,0.00382
1919.08005,0.00416
1917.15132,0.00465
1915.22260,0.00501
1913.29388,0.00519
1911.36515,0.00546
1909.43643,0.00593
1907.50770,0.00641
1905.57898,0.00675
1903.65026,0.00709
1901.72153,0.00752
1899.79281,0.00800
1897.86409,0.00846
1895.93536,0.00890
1894.00664,0.00927
1892.07792,0.00956
1890.14919,0.00995
1888.22047,0.01043
1886.29174,0.01077
1884.36302,0.01100
1882.43430,0.01115
1880.50557,0.01122
1878.57685,0.01127
1876.64813,0.01132
1874.71940,0.01131
1872.79068,0.01112
1870.86196,0.01093
1868.93323,0.01099
1867.00451,0.01104
1865.07578,0.01073
1863.14706,0.01016
1861.21834,0.00959
1859.28961,0.00911
1857.36089,0.00863
1855.43217,0.00810
1853.50344,0.00760
1851.57472,0.00715
1849.64599,0.00669
1847.71727,0.00625
1845.78855,0.00601
1843.85982,0.00601
1841.93110,0.00582
1840.00238,0.00533
1838.07365,0.00496
1836.14493,0.00481
1834.21621,0.00461
1832.28748,0.00439
1830.35876,0.00438
1828.43003,0.00444
1826.50131,0.00438
1824.57259,0.00427
1822.64386,0.00412
1820.71514,0.00393
1818.78642,0.00383
1816.85769,0.00377
1814.92897,0.00364
1813.00025,0.00356
1811.07152,0.00374
1809.14280,0.00401
1807.21407,0.00404
1805.28535,0.00383
1803.35663,0.00368
1801.42790,0.00384
1799.49918,0.00413
1797.57046,0.00418
1795.64173,0.00404
1793.71301,0.00421
1791.78428,0.00477
1789.85556,0.00510
1787.92684,0.00496
1785.99811,0.00477
1784.06939,0.00481
1782.14067,0.00500
1780.21194,0.00524
1778.28322,0.00531
1776.35450,0.00515
1774.42577,0.00517
1772.49705,0.00573
1770.56832,0.00639
1768.63960,0.00662
1766.71088,0.00649
1764.78215,0.00626
1762.85343,0.00620
1760.92471,0.00640
1758.99598,0.00658
1757.06726,0.00662
1755.13854,0.00642
1753.20981,0.00601
1751.28109,0.00590
1749.35236,0.00628
1747.42364,0.00663
1745.49492,0.00660
1743.56619,0.00636
1741.63747,0.00625
1739.70875,0.00636
1737.78002,0.00634
1735.85130,0.00638
1733.92257,0.00724
1731.99385,0.00839
1730.06513,0.00890
1728.13640,0.00901
1726.20768,0.00920
1724.27896,0.00954
1722.35023,0.00978
1720.42151,0.00992
1718.49279,0.01072
1716.56406,0.01239
1714.63534,0.01370
1712.70661,0.01417
1710.77789,0.01435
1708.84917,0.01471
1706.92044,0.01548
1704.99172,0.01635
1703.06300,0.01695
1701.13427,0.01798
1699.20555,0.01989
1697.27683,0.02175
1695.34810,0.02329
1693.41938,0.02442
1691.49065,0.02515
1689.56193,0.02586
1687.63321,0.02663
1685.70448,0.02809
1683.77576,0.03081
1681.84704,0.03308
1679.91831,0.03389
1677.98959,0.03433
1676.06087,0.03538
1674.13214,0.03690
1672.20342,0.03831
1670.27469,0.03996
1668.34597,0.04176
1666.41725,0.04282
1664.48852,0.04358
1662.55980,0.04486
1660.63108,0.04616
1658.70235,0.04664
1656.77363,0.04659
1654.84490,0.04740
1652.91618,0.04979
1650.98746,0.05144
1649.05873,0.05170
1647.13001,0.05254
1645.20129,0.05403
1643.27256,0.05469
1641.34384,0.05458
1639.41512,0.05444
1637.48639,0.05488
1635.55767,0.05602
1633.62894,0.05671
1631.70022,0.05638
1629.77150,0.05573
1627.84277,0.05522
1625.91405,0.05473
1623.98533,0.05423
1622.05660,0.05361
1620.12788,0.05256
1618.19916,0.05134
1616.27043,0.05029
1614.34171,0.04914
1612.41298,0.04771
1610.48426,0.04623
1608.55554,0.04484
1606.62681,0.04338
1604.69809,0.04179
1602.76937,0.04023
1600.84064,0.03874
1598.91192,0.03727
1596.98319,0.03583
1595.05447,0.03449
1593.12575,0.03328
1591.19702,0.03221
1589.26830,0.03120
1587.33958,0.03018
1585.41085,0.02913
1583.48213,0.02812
1581.55341,0.02711
1579.62468,0.02607
1577.69596,0.02531
1575.76723,0.02498
1573.83851,0.02450
1571.90979,0.02369
1569.98106,0.02316
1568.05234,0.02290
1566.12362,0.02243
1564.19489,0.02164
1562.26617,0.02069
1560.33745,0.02026
1558.40872,0.02088
1556.48000,0.02121
1554.55127,0.02062
1552.62255,0.01979
1550.69383,0.01917
1548.76510,0.01858
1546.83638,0.01771
1544.90766,0.01668
1542.97893,0.01597
1541.05021,0.01595
1539.12148,0.01617
1537.19276,0.01568
1535.26404,0.01488
1533.33531,0.01438
1531.40659,0.01391
1529.47787,0.01317
1527.54914,0.01243
1525.62042,0.01185
1523.69170,0.01141
1521.76297,0.01116
1519.83425,0.01086
1517.90552,0.01034
1515.97680,0.00973
1514.04808,0.00896
1512.11935,0.00797
1510.19063,0.00698
1508.26191,0.00651
1506.33318,0.00653
1504.40446,0.00589
1502.47574,0.00456
1500.54701,0.00332
1498.61829,0.00268
1496.68956,0.00246
1494.76084,0.00206
1492.83212,0.00136
1490.90339,0.00091
1488.97467,0.00099
1487.04595,0.00109
1485.11722,0.00087
1483.18850,0.00058
1481.25977,0.00041
1479.33105,0.00021
1477.40233,0.00000
1475.47360,0.00011
1473.54488,0.00090
1471.61616,0.00195
1469.68743,0.00236
1467.75871,0.00231
1465.82999,0.00259
1463.90126,0.00312
1461.97254,0.00318
1460.04381,0.00305
1458.11509,0.00370
1456.18637,0.00490
1454.25764,0.00527
1452.32892,0.00489
1450.40020,0.00461
1448.47147,0.00474
1446.54275,0.00509
1444.61403,0.00531
1442.68530,0.00533
1440.75658,0.00514
1438.82785,0.00504
1436.89913,0.00548
1434.97041,0.00610
1433.04168,0.00623
1431.11296,0.00620
1429.18424,0.00641
1427.25551,0.00664
1425.32679,0.00677
1423.39806,0.00683
1421.46934,0.00684
1419.54062,0.00722
1417.61189,0.00796
1415.68317,0.00842
1413.75445,0.00866
1411.82572,0.00910
1409.89700,0.00969
1407.96828,0.01025
1406.03955,0.01093
1404.11083,0.01166
1402.18210,0.01199
1400.25338,0.01184
1398.32466,0.01147
1396.39593,0.01091
1394.46721,0.01009
1392.53849,0.00899
1390.60976,0.00775
1388.68104,0.00662
1386.75232,0.00576
1384.82359,0.00506
1382.89487,0.00447
1380.96614,0.00398
1379.03742,0.00355
1377.10870,0.00311
1375.17997,0.00274
1373.25125,0.00247
1371.32253,0.00214
1369.39380,0.00175
1367.46508,0.00140
1365.53635,0.00109
1363.60763,0.00089
1361.67891,0.00079
1359.75018,0.00064
1357.82146,0.00039
1355.89274,0.00016
1353.96401,0.00000
1352.03529,-0.00022
1350.10657,-0.00037
1348.17784,-0.00049
1346.24912,-0.00063
1344.32039,-0.00080
1342.39167,-0.00090
1340.46295,-0.00082
1338.53422,-0.00065
1336.60550,-0.00057
1334.67678,-0.00067
1332.74805,-0.00082
1330.81933,-0.00089
1328.89061,-0.00089
1326.96188,-0.00087
1325.03316,-0.00082
1323.10443,-0.00064
1321.17571,-0.00040
1319.24699,-0.00018
1317.31826,0.00002
1315.38954,0.00027
1313.46082,0.00053
1311.53209,0.00073
1309.60337,0.00097
1307.67464,0.00143
1305.74592,0.00209
1303.81720,0.00285
1301.88847,0.00360
1299.95975,0.00422
1298.03103,0.00478
1296.10230,0.00541
1294.17358,0.00615
1292.24486,0.00694
1290.31613,0.00777
1288.38741,0.00865
1286.45868,0.00950
1284.52996,0.01036
1282.60124,0.01152
1280.67251,0.01302
1278.74379,0.01459
1276.81507,0.01614
1274.88634,0.01788
1272.95762,0.02005
1271.02890,0.02267
1269.10017,0.02554
1267.17145,0.02859
1265.24272,0.03194
1263.31400,0.03572
1261.38528,0.04003
1259.45655,0.04478
1257.52783,0.04973
1255.59911,0.05477
1253.67038,0.05987
1251.74166,0.06497
1249.81294,0.06995
1247.88421,0.07473
1245.95549,0.07927
1244.02676,0.08358
1242.09804,0.08759
1240.16932,0.09134
1238.24059,0.09489
1236.31187,0.09817
1234.38315,0.10116
1232.45442,0.10404
1230.52570,0.10687
1228.59697,0.10953
1226.66825,0.11196
1224.73953,0.11426
1222.81080,0.11654
1220.88208,0.11889
1218.95336,0.12133
1217.02463,0.12373
1215.09591,0.12596
1213.16719,0.12807
1211.23846,0.13017
1209.30974,0.13233
1207.38101,0.13460
1205.45229,0.13695
1203.52357,0.13943
1201.59484,0.14201
1199.66612,0.14434
1197.73740,0.14642
1195.80867,0.14876
1193.87995,0.15124
1191.95123,0.15337
1190.02250,0.15515
1188.09378,0.15682
1186.16505,0.15866
1184.23633,0.16068
1182.30761,0.16254
1180.37888,0.16414
1178.45016,0.16582
1176.52144,0.16772
1174.59271,0.16963
1172.66399,0.17152
1170.73526,0.17348
1168.80654,0.17542
1166.87782,0.17735
1164.94909,0.17907
1163.02037,0.18039
1161.09165,0.18171
1159.16292,0.18335
1157.23420,0.18519
1155.30548,0.18690
1153.37675,0.18815
1151.44803,0.18911
1149.51930,0.19021
1147.59058,0.19141
1145.66186,0.19251
1143.73313,0.19350
1141.80441,0.19428
1139.87569,0.19499
1137.94696,0.19582
1136.01824,0.19699
1134.08952,0.19853
1132.16079,0.20001
1130.23207,0.20159
1128.30334,0.20350
1126.37462,0.20534
1124.44590,0.20693
1122.51717,0.20850
1120.58845,0.21036
1118.65973,0.21264
1116.73100,0.21512
1114.80228,0.21762
1112.87355,0.22042
1110.94483,0.22361
1109.01611,0.22654
1107.08738,0.22892
1105.15866,0.23116
1103.22994,0.23345
1101.30121,0.23572
1099.37249,0.23783
1097.44377,0.23929
1095.51504,0.23974
1093.58632,0.23978
1091.65759,0.23997
1089.72887,0.24009
1087.80015,0.23998
1085.87142,0.23989
1083.94270,0.24019
1082.01398,0.24076
1080.08525,0.24088
1078.15653,0.24018
1076.22781,0.23928
1074.29908,0.23871
1072.37036,0.23830
1070.44163,0.23762
1068.51291,0.23652
1066.58419,0.23531
1064.65546,0.23428
1062.72674,0.23339
1060.79802,0.23229
1058.86929,0.23088
1056.94057,0.22929
1055.01184,0.22749
1053.08312,0.22554
1051.15440,0.22348
1049.22567,0.22129
1047.29695,0.21904
1045.36823,0.21670
1043.43950,0.21426
1041.51078,0.21199
1039.58206,0.21009
1037.65333,0.20821
1035.72461,0.20604
1033.79588,0.20390
1031.86716,0.20216
1029.93844,0.20037
1028.00971,0.19810
1026.08099,0.19558
1024.15227,0.19295
1022.22354,0.19030
1020.29482,0.18811
1018.36610,0.18645
1016.43737,0.18485
1014.50865,0.18314
1012.57992,0.18142
1010.65120,0.17964
1008.72248,0.17775
1006.79375,0.17603
1004.86503,0.17472
1002.93631,0.17357
1001.00758,0.17220
999.07886,0.17067
997.15013,0.16914
995.22141,0.16754
993.29269,0.16589
991.36396,0.16440
989.43524,0.16309
987.50652,0.16187
985.57779,0.16063
983.64907,0.15919
981.72035,0.15776
979.79162,0.15672
977.86290,0.15597
975.93417,0.15538
974.00545,0.15491
972.07673,0.15414
970.14800,0.15302
968.21928,0.15208
966.29056,0.15139
964.36183,0.15047
962.43311,0.14917
960.50439,0.14776
958.57566,0.14644
956.64694,0.14529
954.71821,0.14434
952.78949,0.14340
950.86077,0.14228
948.93204,0.14098
947.00332,0.13938
945.07460,0.13749
943.14587,0.13557
941.21715,0.13364
939.28842,0.13172
937.35970,0.13008
935.43098,0.12862
933.50225,0.12704
931.57353,0.12540
929.64481,0.12345
927.71608,0.12096
925.78736,0.11852
923.85864,0.11642
921.92991,0.11431
920.00119,0.11199
918.07246,0.10945
916.14374,0.10688
914.21502,0.10451
912.28629,0.10198
910.35757,0.09888
908.42885,0.09558
906.50012,0.09243
904.57140,0.08943
902.64268,0.08659
900.71395,0.08375
898.78523,0.08097
896.85650,0.07817
894.92778,0.07516
892.99906,0.07217
891.07033,0.06921
889.14161,0.06593
887.21289,0.06273
885.28416,0.06007
883.35544,0.05772
881.42671,0.05543
879.49799,0.05332
877.56927,0.05137
875.64054,0.04935
873.71182,0.04727
871.78310,0.04540
869.85437,0.04373
867.92565,0.04181
865.99693,0.03966
864.06820,0.03811
862.13948,0.03717
860.21075,0.03586
858.28203,0.03400
856.35331,0.03222
854.42458,0.03077
852.49586,0.02930
850.56714,0.02774
848.63841,0.02655
846.70969,0.02585
844.78097,0.02524
842.85224,0.02470
840.92352,0.02440
838.99479,0.02420
837.06607,0.02394
835.13735,0.02388
833.20862,0.02418
831.27990,0.02468
829.35118,0.02541
827.42245,0.02638
825.49373,0.02741
823.56501,0.02840
821.63628,0.02929
819.70756,0.03041
817.77883,0.03230
815.85011,0.03464
813.92139,0.03684
811.99266,0.03905
810.06394,0.04153
808.13522,0.04421
806.20649,0.04719
804.27777,0.05043
802.34904,0.05338
800.42032,0.05584
798.49160,0.05776
796.56287,0.05870
794.63415,0.05900
792.70543,0.05969
790.77670,0.06041
788.84798,0.06016
786.91926,0.05924
784.99053,0.05814
783.06181,0.05680
781.13308,0.05534
779.20436,0.05411
777.27564,0.05318
775.34691,0.05243
773.41819,0.05160
771.48947,0.05048
769.56074,0.04911
767.63202,0.04789
765.70330,0.04725
763.77457,0.04704
761.84585,0.04669
759.91712,0.04621
757.98840,0.04610
756.05968,0.04637
754.13095,0.04636
752.20223,0.04563
750.27351,0.04468
748.34478,0.04406
746.41606,0.04367
744.48733,0.04344
742.55861,0.04365
740.62989,0.04405
738.70116,0.04402
736.77244,0.04357
734.84372,0.04323
732.91499,0.04317
730.98627,0.04313
729.05755,0.04305
727.12882,0.04289
725.20010,0.04247
723.27137,0.04201
721.34265,0.04182
719.41393,0.04172
717.48520,0.04150
715.55648,0.04143
713.62776,0.04158
711.69903,0.04183
709.77031,0.04213
707.84159,0.04212
705.91286,0.04167
703.98414,0.04117
702.05541,0.04082
700.12669,0.04064
698.19797,0.04068
696.26924,0.04045
694.34052,0.03981
692.41180,0.03931
690.48307,0.03906
688.55435,0.03861
686.62562,0.03788
684.69690,0.03749
682.76818,0.03789
680.83945,0.03836
678.91073,0.03791
676.98201,0.03686
675.05328,0.03612
673.12456,0.03583
671.19584,0.03540
669.26711,0.03436
667.33839,0.03315
665.40966,0.03239
663.48094,0.03203
661.55222,0.03199
659.62349,0.03251
657.69477,0.03364
655.76605,0.03506
653.83732,0.03653
651.90860,0.03811
649.97988,0.04004
648.05115,0.04261
646.12243,0.04565
644.19370,0.04858
642.26498,0.05126
640.33626,0.05401
638.40753,0.05683
636.47881,0.05936
634.55009,0.06130
632.62136,0.06260
630.69264,0.06321
628.76391,0.06309
626.83519,0.06258
624.90647,0.06244
622.97774,0.06284
621.04902,0.06304
619.12030,0.06272
617.19157,0.06276
615.26285,0.06339
613.33413,0.06380
611.40540,0.06398
609.47668,0.06459
607.54795,0.06586
605.61923,0.06780
603.69051,0.07038
601.76178,0.07297
599.83306,0.07446
597.90434,0.07461
595.97561,0.07454
594.04689,0.07546
592.11817,0.07710
590.18944,0.07813
588.26072,0.07844
586.33199,0.07879
584.40327,0.07902
582.47455,0.07879
580.54582,0.07852
578.61710,0.07843
576.68838,0.07781
574.75965,0.07637
572.83093,0.07448
570.90220,0.07274
568.97348,0.07162
567.04476,0.07022
565.11603,0.06798
563.18731,0.06620
561.25859,0.06539
559.32986,0.06470
557.40114,0.06438
555.47242,0.06509
553.54369,0.06642
551.61497,0.06748
549.68624,0.06772
547.75752,0.06770
545.82880,0.06832
543.90007,0.06905
541.97135,0.06922
540.04263,0.06918
538.11390,0.06911
536.18518,0.06885
534.25646,0.06805
532.32773,0.06619
530.39901,0.06365
528.47028,0.06139
526.54156,0.05990
524.61284,0.05911
522.68411,0.05848
520.75539,0.05821
518.82667,0.05895
516.89794,0.06031
514.96922,0.06164
513.04049,0.06308
511.11177,0.06440
509.18305,0.06461
507.25432,0.06362
505.32560,0.06320
503.39688,0.06450
501.46815,0.06675
499.53943,0.06931
497.61071,0.07190
495.68198,0.07452
493.75326,0.07865
491.82453,0.08479
489.89581,0.09050
487.96709,0.09434
486.03836,0.09793
484.10964,0.10247
482.18092,0.10579
480.25219,0.10600
478.32347,0.10578
476.39475,0.10837
474.46602,0.11342
472.53730,0.11814
470.60857,0.11907
468.67985,0.11614
466.75113,0.11370
464.82240,0.11441
462.89368,0.11608
460.96496,0.11547
459.03623,0.11308
457.10751,0.11196
455.17878,0.11137
453.25006,0.10927
451.32134,0.10768
449.39261,0.10806
447.46389,0.10942
445.53517,0.11103
443.60644,0.11094
441.67772,0.10674
439.74900,0.10075
437.82027,0.09764
435.89155,0.09814
433.96282,0.09931
432.03410,0.09869
430.10538,0.09603
428.17665,0.09219
426.24793,0.08832
424.31921,0.08551
422.39048,0.08380
420.46176,0.08233
418.53304,0.08043
416.60431,0.07820
414.67559,0.07648
412.74686,0.07554
410.81814,0.07489
408.88942,0.07467
406.96069,0.07515
405.03197,0.07402
403.10325,0.06892
401.17452,0.06122
399.24580,0.05573
397.31708,0.05738
395.38835,0.06001
393.45963,0.05327
391.53090,0.03958
389.60218,0.02549
387.67346,0.01314
385.74473,0.00332
383.81601,0.00000
381.88729,0.00642
379.95856,0.02919
378.02984,0.06918
376.10111,0.10897
374.17239,0.10894
372.24367,0.07161
370.31494,0.03510
368.38622,0.00000
