3996.31543,0.00000
3994.38671,0.00011
3992.45799,0.00018
3990.52926,0.00020
3988.60054,0.00020
3986.67182,0.00017
3984.74309,0.00012
3982.81437,0.00013
3980.88564,0.00027
3978.95692,0.00041
3977.02820,0.00047
3975.09947,0.00046
3973.17075,0.00038
3971.24203,0.00029
3969.31330,0.00027
3967.38458,0.00033
3965.45586,0.00040
3963.52713,0.00044
3961.59841,0.00054
3959.66968,0.00070
3957.74096,0.00082
3955.81224,0.00079
3953.88351,0.00064
3951.95479,0.00049
3950.02607,0.00049
3948.09734,0.00062
3946.16862,0.00071
3944.23990,0.00069
3942.31117,0.00062
3940.38245,0.00055
3938.45372,0.00046
3936.52500,0.00035
3934.59628,0.00036
3932.66755,0.00058
3930.73883,0.00082
3928.81011,0.00083
3926.88138,0.00074
3924.95266,0.00073
3923.02393,0.00071
3921.09521,0.00069
3919.16649,0.00073
3917.23776,0.00074
3915.30904,0.00064
3913.38032,0.00050
3911.45159,0.00040
3909.52287,0.00029
3907.59415,0.00022
3905.66542,0.00028
3903.73670,0.00045
3901.80797,0.00066
3899.87925,0.00088
3897.95053,0.00089
3896.02180,0.00066
3894.09308,0.00054
3892.16436,0.00071
3890.23563,0.00082
3888.30691,0.00056
3886.37819,0.00017
3884.44946,0.00000
3882.52074,0.00005
3880.59201,0.00026
3878.66329,0.00041
3876.73457,0.00036
3874.80584,0.00025
3872.87712,0.00019
3870.94840,0.00019
3869.01967,0.00017
3867.09095,0.00008
3865.16222,0.00014
3863.23350,0.00039
3861.30478,0.00046
3859.37605,0.00025
3857.44733,0.00009
3855.51861,0.00030
3853.58988,0.00086
3851.66116,0.00116
3849.73244,0.00091
3847.80371,0.00045
3845.87499,0.00009
3843.94626,-0.00006
3842.01754,-0.00002
3840.08882,0.00014
3838.16009,0.00032
3836.23137,0.00041
3834.30265,0.00034
3832.37392,0.00024
3830.44520,0.00021
3828.51648,0.00031
3826.58775,0.00051
3824.65903,0.00067
3822.73030,0.00081
3820.80158,0.00097
3818.87286,0.00095
3816.94413,0.00081
3815.01541,0.00075
3813.08669,0.00070
3811.15796,0.00060
3809.22924,0.00063
3807.30052,0.00085
3805.37179,0.00106
3803.44307,0.00118
3801.51434,0.00141
3799.58562,0.00161
3797.65690,0.00170
3795.72817,0.00179
3793.79945,0.00178
3791.87073,0.00167
3789.94200,0.00166
3788.01328,0.00186
3786.08455,0.00215
3784.15583,0.00235
3782.22711,0.00241
3780.29838,0.00254
3778.36966,0.00277
3776.44094,0.00293
3774.51221,0.00308
3772.58349,0.00339
3770.65477,0.00385
3768.72604,0.00433
3766.79732,0.00474
3764.86859,0.00504
3762.93987,0.00519
3761.01115,0.00537
3759.08242,0.00578
3757.15370,0.00635
3755.22498,0.00697
3753.29625,0.00776
3751.36753,0.00874
3749.43881,0.00949
3747.51008,0.00988
3745.58136,0.01043
3743.65263,0.01130
3741.72391,0.01192
3739.79519,0.01226
3737.86646,0.01288
3735.93774,0.01424
3734.00902,0.01607
3732.08029,0.01763
3730.15157,0.01867
3728.22284,0.01966
3726.29412,0.02113
3724.36540,0.02302
3722.43667,0.02500
3720.50795,0.02701
3718.57923,0.02906
3716.65050,0.03099
3714.72178,0.03296
3712.79306,0.03559
3710.86433,0.03902
3708.93561,0.04235
3707.00688,0.04499
3705.07816,0.04741
3703.14944,0.05031
3701.22071,0.05380
3699.29199,0.05717
3697.36327,0.06009
3695.43454,0.06280
3693.50582,0.06552
3691.57710,0.06867
3689.64837,0.07277
3687.71965,0.07718
3685.79092,0.08079
3683.86220,0.08372
3681.93348,0.08670
3680.00475,0.08998
3678.07603,0.09380
3676.14731,0.09869
3674.21858,0.10375
3672.28986,0.10761
3670.36113,0.11138
3668.43241,0.11565
3666.50369,0.11929
3664.57496,0.12231
3662.64624,0.12532
3660.71752,0.12834
3658.78879,0.13143
3656.86007,0.13496
3654.93135,0.13845
3653.00262,0.14107
3651.07390,0.14366
3649.14517,0.14748
3647.21645,0.15150
3645.28773,0.15418
3643.35900,0.15605
3641.43028,0.15804
3639.50156,0.16025
3637.57283,0.16246
3635.64411,0.16461
3633.71539,0.16671
3631.78666,0.16885
3629.85794,0.17168
3627.92921,0.17503
3626.00049,0.17739
3624.07177,0.17863
3622.14304,0.17981
3620.21432,0.18163
3618.28560,0.18391
3616.35687,0.18582
3614.42815,0.18722
3612.49942,0.18849
3610.57070,0.18988
3608.64198,0.19153
3606.71325,0.19329
3604.78453,0.19479
3602.85581,0.19616
3600.92708,0.19768
3598.99836,0.19926
3597.06964,0.20090
3595.14091,0.20259
3593.21219,0.20395
3591.28346,0.20478
3589.35474,0.20578
3587.42602,0.20757
3585.49729,0.20945
3583.56857,0.21071
3581.63985,0.21174
3579.71112,0.21301
3577.78240,0.21440
3575.85368,0.21559
3573.92495,0.21653
3571.99623,0.21729
3570.06750,0.21807
3568.13878,0.21941
3566.21006,0.22133
3564.28133,0.22294
3562.35261,0.22401
3560.42389,0.22501
3558.49516,0.22604
3556.56644,0.22692
3554.63771,0.22778
3552.70899,0.22888
3550.78027,0.23011
3548.85154,0.23113
3546.92282,0.23208
3544.99410,0.23321
3543.06537,0.23431
3541.13665,0.23510
3539.20793,0.23579
3537.27920,0.23667
3535.35048,0.23775
3533.42175,0.23881
3531.49303,0.23965
3529.56431,0.24031
3527.63558,0.24096
3525.70686,0.24180
3523.77814,0.24292
3521.84941,0.24412
3519.92069,0.24511
3517.99197,0.24591
3516.06324,0.24670
3514.13452,0.24749
3512.20579,0.24822
3510.27707,0.24894
3508.34835,0.24965
3506.41962,0.25025
3504.49090,0.25093
3502.56218,0.25192
3500.63345,0.25295
3498.70473,0.25374
3496.77600,0.25434
3494.84728,0.25489
3492.91856,0.25552
3490.98983,0.25637
3489.06111,0.25735
3487.13239,0.25808
3485.20366,0.25843
3483.27494,0.25877
3481.34622,0.25933
3479.41749,0.25995
3477.48877,0.26045
3475.56004,0.26091
3473.63132,0.26141
3471.70260,0.26193
3469.77387,0.26250
3467.84515,0.26303
3465.91643,0.26343
3463.98770,0.26391
3462.05898,0.26457
3460.13026,0.26507
3458.20153,0.26531
3456.27281,0.26565
3454.34408,0.26618
3452.41536,0.26670
3450.48664,0.26711
3448.55791,0.26757
3446.62919,0.26805
3444.70047,0.26833
3442.77174,0.26846
3440.84302,0.26869
3438.91429,0.26905
3436.98557,0.26955
3435.05685,0.27003
3433.12812,0.27035
3431.19940,0.27054
3429.27068,0.27059
3427.34195,0.27050
3425.41323,0.27049
3423.48451,0.27075
3421.55578,0.27120
3419.62706,0.27156
3417.69833,0.27168
3415.76961,0.27178
3413.84089,0.27200
3411.91216,0.27223
3409.98344,0.27245
3408.05472,0.27260
3406.12599,0.27263
3404.19727,0.27263
3402.26855,0.27268
3400.33982,0.27274
3398.41110,0.27275
3396.48237,0.27278
3394.55365,0.27286
3392.62493,0.27292
3390.69620,0.27276
3388.76748,0.27242
3386.83876,0.27226
3384.91003,0.27231
3382.98131,0.27226
3381.05259,0.27200
3379.12386,0.27168
3377.19514,0.27145
3375.26641,0.27139
3373.33769,0.27146
3371.40897,0.27143
3369.48024,0.27127
3367.55152,0.27111
3365.62280,0.27095
3363.69407,0.27076
3361.76535,0.27057
3359.83662,0.27039
3357.90790,0.27015
3355.97918,0.26985
3354.05045,0.26954
3352.12173,0.26930
3350.19301,0.26906
3348.26428,0.26880
3346.33556,0.26860
3344.40684,0.26850
3342.47811,0.26837
3340.54939,0.26808
3338.62066,0.26764
3336.69194,0.26713
3334.76322,0.26669
3332.83449,0.26641
3330.90577,0.26631
3328.97705,0.26618
3327.04832,0.26583
3325.11960,0.26544
3323.19088,0.26524
3321.26215,0.26503
3319.33343,0.26460
3317.40470,0.26416
3315.47598,0.26395
3313.54726,0.26388
3311.61853,0.26368
3309.68981,0.26329
3307.76109,0.26279
3305.83236,0.26223
3303.90364,0.26187
3301.97491,0.26180
3300.04619,0.26169
3298.11747,0.26131
3296.18874,0.26091
3294.26002,0.26070
3292.33130,0.26054
3290.40257,0.26033
3288.47385,0.26009
3286.54513,0.25979
3284.61640,0.25936
3282.68768,0.25886
3280.75895,0.25846
3278.83023,0.25820
3276.90151,0.25791
3274.97278,0.25734
3273.04406,0.25670
3271.11534,0.25630
3269.18661,0.25604
3267.25789,0.25574
3265.32917,0.25539
3263.40044,0.25498
3261.47172,0.25452
3259.54299,0.25404
3257.61427,0.25350
3255.68555,0.25299
3253.75682,0.25264
3251.82810,0.25230
3249.89938,0.25182
3247.97065,0.25132
3246.04193,0.25083
3244.11320,0.25020
3242.18448,0.24954
3240.25576,0.24908
3238.32703,0.24879
3236.39831,0.24843
3234.46959,0.24787
3232.54086,0.24718
3230.61214,0.24652
3228.68342,0.24600
3226.75469,0.24552
3224.82597,0.24502
3222.89724,0.24460
3220.96852,0.24421
3219.03980,0.24366
3217.11107,0.24297
3215.18235,0.24230
3213.25363,0.24170
3211.32490,0.24110
3209.39618,0.24047
3207.46746,0.23977
3205.53873,0.23909
3203.61001,0.23848
3201.68128,0.23779
3199.75256,0.23702
3197.82384,0.23634
3195.89511,0.23569
3193.96639,0.23496
3192.03767,0.23424
3190.10894,0.23356
3188.18022,0.23280
3186.25149,0.23199
3184.32277,0.23120
3182.39405,0.23039
3180.46532,0.22958
3178.53660,0.22884
3176.60788,0.22816
3174.67915,0.22748
3172.75043,0.22671
3170.82171,0.22577
3168.89298,0.22476
3166.96426,0.22389
3165.03553,0.22315
3163.10681,0.22248
3161.17809,0.22182
3159.24936,0.22104
3157.32064,0.22015
3155.39192,0.21931
3153.46319,0.21855
3151.53447,0.21776
3149.60575,0.21687
3147.67702,0.21596
3145.74830,0.21505
3143.81957,0.21410
3141.89085,0.21327
3139.96213,0.21268
3138.03340,0.21205
3136.10468,0.21116
3134.17596,0.21023
3132.24723,0.20935
3130.31851,0.20846
3128.38978,0.20764
3126.46106,0.20694
3124.53234,0.20618
3122.60361,0.20531
3120.67489,0.20439
3118.74617,0.20346
3116.81744,0.20257
3114.88872,0.20165
3112.96000,0.20071
3111.03127,0.19987
3109.10255,0.19903
3107.17382,0.19805
3105.24510,0.19703
3103.31638,0.19605
3101.38765,0.19503
3099.45893,0.19401
3097.53021,0.19303
3095.60148,0.19210
3093.67276,0.19121
3091.74404,0.19028
3089.81531,0.18923
3087.88659,0.18824
3085.95786,0.18737
3084.02914,0.18649
3082.10042,0.18549
3080.17169,0.18435
3078.24297,0.18319
3076.31425,0.18216
3074.38552,0.18126
3072.45680,0.18028
3070.52807,0.17920
3068.59935,0.17818
3066.67063,0.17718
3064.74190,0.17612
3062.81318,0.17506
3060.88446,0.17414
3058.95573,0.17330
3057.02701,0.17237
3055.09829,0.17131
3053.16956,0.17031
3051.24084,0.16941
3049.31211,0.16845
3047.38339,0.16733
3045.45467,0.16624
3043.52594,0.16530
3041.59722,0.16446
3039.66850,0.16354
3037.73977,0.16247
3035.81105,0.16146
3033.88233,0.16065
3031.95360,0.15989
3030.02488,0.15902
3028.09615,0.15807
3026.16743,0.15717
3024.23871,0.15639
3022.30998,0.15567
3020.38126,0.15486
3018.45254,0.15390
3016.52381,0.15299
3014.59509,0.15230
3012.66636,0.15169
3010.73764,0.15096
3008.80892,0.15018
3006.88019,0.14942
3004.95147,0.14865
3003.02275,0.14795
3001.09402,0.14739
2999.16530,0.14686
2997.23658,0.14618
2995.30785,0.14549
2993.37913,0.14502
2991.45040,0.14472
2989.52168,0.14443
2987.59296,0.14400
2985.66423,0.14349
2983.73551,0.14304
2981.80679,0.14279
2979.87806,0.14269
2977.94934,0.14257
2976.02062,0.14239
2974.09189,0.14225
2972.16317,0.14221
2970.23444,0.14222
2968.30572,0.14221
2966.37700,0.14222
2964.44827,0.14233
2962.51955,0.14238
2960.59083,0.14219
2958.66210,0.14189
2956.73338,0.14163
2954.80466,0.14142
2952.87593,0.14120
2950.94721,0.14094
2949.01848,0.14074
2947.08976,0.14069
2945.16104,0.14080
2943.23231,0.14110
2941.30359,0.14166
2939.37487,0.14243
2937.44614,0.14324
2935.51742,0.14395
2933.58869,0.14459
2931.65997,0.14517
2929.73125,0.14553
2927.80252,0.14557
2925.87380,0.14531
2923.94508,0.14456
2922.01635,0.14314
2920.08763,0.14115
2918.15891,0.13881
2916.23018,0.13628
2914.30146,0.13370
2912.37273,0.13130
2910.44401,0.12921
2908.51529,0.12729
2906.58656,0.12552
2904.65784,0.12395
2902.72912,0.12253
2900.80039,0.12125
2898.87167,0.12004
2896.94295,0.11872
2895.01422,0.11733
2893.08550,0.11604
2891.15677,0.11490
2889.22805,0.11378
2887.29933,0.11268
2885.37060,0.11164
2883.44188,0.11065
2881.51316,0.10974
2879.58443,0.10901
2877.65571,0.10850
2875.72698,0.10806
2873.79826,0.10749
2871.86954,0.10675
2869.94081,0.10597
2868.01209,0.10533
2866.08337,0.10486
2864.15464,0.10458
2862.22592,0.10463
2860.29720,0.10504
2858.36847,0.10563
2856.43975,0.10618
2854.51102,0.10633
2852.58230,0.10569
2850.65358,0.10393
2848.72485,0.10123
2846.79613,0.09815
2844.86741,0.09526
2842.93868,0.09280
2841.00996,0.09073
2839.08124,0.08896
2837.15251,0.08734
2835.22379,0.08583
2833.29506,0.08445
2831.36634,0.08320
2829.43762,0.08213
2827.50889,0.08119
2825.58017,0.08025
2823.65145,0.07934
2821.72272,0.07845
2819.79400,0.07757
2817.86527,0.07677
2815.93655,0.07603
2814.00783,0.07530
2812.07910,0.07457
2810.15038,0.07379
2808.22166,0.07299
2806.29293,0.07228
2804.36421,0.07164
2802.43549,0.07094
2800.50676,0.07018
2798.57804,0.06947
2796.64931,0.06885
2794.72059,0.06826
2792.79187,0.06762
2790.86314,0.06693
2788.93442,0.06626
2787.00570,0.06560
2785.07697,0.06493
2783.14825,0.06427
2781.21953,0.06360
2779.29080,0.06295
2777.36208,0.06239
2775.43335,0.06190
2773.50463,0.06134
2771.57591,0.06069
2769.64718,0.06007
2767.71846,0.05953
2765.78974,0.05897
2763.86101,0.05828
2761.93229,0.05757
2760.00356,0.05702
2758.07484,0.05654
2756.14612,0.05598
2754.21739,0.05535
2752.28867,0.05475
2750.35995,0.05424
2748.43122,0.05376
2746.50250,0.05326
2744.57378,0.05273
2742.64505,0.05216
2740.71633,0.05158
2738.78760,0.05101
2736.85888,0.05048
2734.93016,0.04997
2733.00143,0.04946
2731.07271,0.04896
2729.14399,0.04845
2727.21526,0.04794
2725.28654,0.04743
2723.35782,0.04694
2721.42909,0.04648
2719.50037,0.04598
2717.57164,0.04539
2715.64292,0.04474
2713.71420,0.04418
2711.78547,0.04373
2709.85675,0.04330
2707.92803,0.04279
2705.99930,0.04221
2704.07058,0.04171
2702.14185,0.04137
2700.21313,0.04102
2698.28441,0.04058
2696.35568,0.04013
2694.42696,0.03971
2692.49824,0.03929
2690.56951,0.03895
2688.64079,0.03863
2686.71207,0.03820
2684.78334,0.03769
2682.85462,0.03724
2680.92589,0.03687
2678.99717,0.03648
2677.06845,0.03601
2675.13972,0.03553
2673.21100,0.03509
2671.28228,0.03462
2669.35355,0.03414
2667.42483,0.03371
2665.49611,0.03335
2663.56738,0.03297
2661.63866,0.03257
2659.70993,0.03219
2657.78121,0.03180
2655.85249,0.03144
2653.92376,0.03109
2651.99504,0.03070
2650.06632,0.03034
2648.13759,0.03006
2646.20887,0.02976
2644.28014,0.02933
2642.35142,0.02879
2640.42270,0.02830
2638.49397,0.02792
2636.56525,0.02763
2634.63653,0.02736
2632.70780,0.02709
2630.77908,0.02676
2628.85036,0.02639
2626.92163,0.02603
2624.99291,0.02567
2623.06418,0.02532
2621.13546,0.02499
2619.20674,0.02464
2617.27801,0.02425
2615.34929,0.02388
2613.42057,0.02358
2611.49184,0.02329
2609.56312,0.02296
2607.63440,0.02261
2605.70567,0.02231
2603.77695,0.02205
2601.84822,0.02177
2599.91950,0.02146
2597.99078,0.02116
2596.06205,0.02086
2594.13333,0.02055
2592.20461,0.02022
2590.27588,0.01990
2588.34716,0.01961
2586.41843,0.01939
2584.48971,0.01921
2582.56099,0.01899
2580.63226,0.01870
2578.70354,0.01835
2576.77482,0.01804
2574.84609,0.01782
2572.91737,0.01761
2570.98865,0.01733
2569.05992,0.01705
2567.13120,0.01686
2565.20247,0.01666
2563.27375,0.01638
2561.34503,0.01612
2559.41630,0.01588
2557.48758,0.01561
2555.55886,0.01534
2553.63013,0.01513
2551.70141,0.01494
2549.77269,0.01473
2547.84396,0.01451
2545.91524,0.01429
2543.98651,0.01408
2542.05779,0.01391
2540.12907,0.01375
2538.20034,0.01358
2536.27162,0.01345
2534.34290,0.01335
2532.41417,0.01314
2530.48545,0.01284
2528.55673,0.01258
2526.62800,0.01238
2524.69928,0.01225
2522.77055,0.01216
2520.84183,0.01198
2518.91311,0.01171
2516.98438,0.01146
2515.05566,0.01125
2513.12694,0.01110
2511.19821,0.01099
2509.26949,0.01086
2507.34076,0.01070
2505.41204,0.01056
2503.48332,0.01040
2501.55459,0.01016
2499.62587,0.00992
2497.69715,0.00975
2495.76842,0.00962
2493.83970,0.00949
2491.91098,0.00934
2489.98225,0.00919
2488.05353,0.00908
2486.12480,0.00897
2484.19608,0.00881
2482.26736,0.00860
2480.33863,0.00841
2478.40991,0.00827
2476.48119,0.00813
2474.55246,0.00793
2472.62374,0.00772
2470.69502,0.00749
2468.76629,0.00729
2466.83757,0.00719
2464.90884,0.00713
2462.98012,0.00701
2461.05140,0.00682
2459.12267,0.00666
2457.19395,0.00653
2455.26523,0.00638
2453.33650,0.00617
2451.40778,0.00598
2449.47905,0.00587
2447.55033,0.00579
2445.62161,0.00563
2443.69288,0.00541
2441.76416,0.00528
2439.83544,0.00526
2437.90671,0.00522
2435.97799,0.00503
2434.04927,0.00479
2432.12054,0.00464
2430.19182,0.00455
2428.26309,0.00446
2426.33437,0.00436
2424.40565,0.00429
2422.47692,0.00420
2420.54820,0.00405
2418.61948,0.00389
2416.69075,0.00379
2414.76203,0.00369
2412.83331,0.00359
2410.90458,0.00352
2408.97586,0.00343
2407.04713,0.00328
2405.11841,0.00316
2403.18969,0.00308
2401.26096,0.00299
2399.33224,0.00287
2397.40352,0.00276
2395.47479,0.00268
2393.54607,0.00258
2391.61734,0.00251
2389.68862,0.00251
2387.75990,0.00255
2385.83117,0.00256
2383.90245,0.00250
2381.97373,0.00241
2380.04500,0.00237
2378.11628,0.00235
2376.18756,0.00230
2374.25883,0.00220
2372.33011,0.00211
2370.40138,0.00205
2368.47266,0.00210
2366.54394,0.00230
2364.61521,0.00247
2362.68649,0.00248
2360.75777,0.00246
2358.82904,0.00233
2356.90032,0.00206
2354.97160,0.00183
2353.04287,0.00194
2351.11415,0.00236
2349.18542,0.00251
2347.25670,0.00199
2345.32798,0.00143
2343.39925,0.00142
2341.47053,0.00160
2339.54181,0.00166
2337.61308,0.00165
2335.68436,0.00158
2333.75563,0.00147
2331.82691,0.00141
2329.89819,0.00141
2327.96946,0.00140
2326.04074,0.00135
2324.11202,0.00129
2322.18329,0.00121
2320.25457,0.00113
2318.32585,0.00110
2316.39712,0.00106
2314.46840,0.00096
2312.53967,0.00089
2310.61095,0.00090
2308.68223,0.00092
2306.75350,0.00088
2304.82478,0.00078
2302.89606,0.00066
2300.96733,0.00057
2299.03861,0.00055
2297.10989,0.00056
2295.18116,0.00055
2293.25244,0.00055
2291.32371,0.00054
2289.39499,0.00049
2287.46627,0.00041
2285.53754,0.00035
2283.60882,0.00032
2281.68010,0.00033
2279.75137,0.00034
2277.82265,0.00031
2275.89392,0.00027
2273.96520,0.00027
2272.03648,0.00029
2270.10775,0.00026
2268.17903,0.00022
2266.25031,0.00024
2264.32158,0.00030
2262.39286,0.00030
2260.46414,0.00026
2258.53541,0.00022
2256.60669,0.00024
2254.67796,0.00024
2252.74924,0.00018
2250.82052,0.00008
2248.89179,0.00003
2246.96307,0.00001
2245.03435,-0.00002
2243.10562,-0.00005
2241.17690,-0.00005
2239.24818,-0.00001
2237.31945,0.00002
2235.39073,0.00001
2233.46200,-0.00003
2231.53328,-0.00007
2229.60456,-0.00011
2227.67583,-0.00009
2225.74711,-0.00005
2223.81839,-0.00006
2221.88966,-0.00008
2219.96094,-0.00006
2218.03221,-0.00004
2216.10349,-0.00003
2214.17477,-0.00001
2212.24604,0.00002
2210.31732,0.00009
2208.38860,0.00019
2206.45987,0.00022
2204.53115,0.00017
2202.60243,0.00010
2200.67370,0.00005
2198.74498,0.00000
2196.81625,0.00002
2194.88753,0.00014
2192.95881,0.00023
2191.03008,0.00019
2189.10136,0.00009
2187.17264,0.00011
2185.24391,0.00021
2183.31519,0.00025
2181.38647,0.00024
2179.45774,0.00020
2177.52902,0.00019
2175.60029,0.00020
2173.67157,0.00019
2171.74285,0.00014
2169.81412,0.00007
2167.88540,0.00005
2165.95668,0.00014
2164.02795,0.00023
2162.09923,0.00024
2160.17050,0.00021
2158.24178,0.00020
2156.31306,0.00018
2154.38433,0.00017
2152.45561,0.00019
2150.52689,0.00022
2148.59816,0.00024
2146.66944,0.00022
2144.74072,0.00016
2142.81199,0.00015
2140.88327,0.00023
2138.95454,0.00032
2137.02582,0.00039
2135.09710,0.00044
2133.16837,0.00038
2131.23965,0.00029
2129.31093,0.00025
2127.38220,0.00026
2125.45348,0.00027
2123.52476,0.00027
2121.59603,0.00028
2119.66731,0.00028
2117.73858,0.00029
2115.80986,0.00030
2113.88114,0.00028
2111.95241,0.00022
2110.02369,0.00018
2108.09497,0.00018
2106.16624,0.00015
2104.23752,0.00012
2102.30880,0.00015
2100.38007,0.00018
2098.45135,0.00016
2096.52262,0.00007
2094.59390,0.00000
2092.66518,-0.00005
2090.73645,-0.00006
2088.80773,-0.00012
2086.87901,-0.00021
2084.95028,-0.00023
2083.02156,-0.00022
2081.09283,-0.00024
2079.16411,-0.00027
2077.23539,-0.00031
2075.30666,-0.00036
2073.37794,-0.00038
2071.44922,-0.00036
2069.52049,-0.00037
2067.59177,-0.00041
2065.66305,-0.00039
2063.73432,-0.00031
2061.80560,-0.00028
2059.87687,-0.00026
2057.94815,-0.00012
2056.01943,0.00008
2054.09070,0.00017
2052.16198,0.00019
2050.23326,0.00028
2048.30453,0.00043
2046.37581,0.00058
2044.44709,0.00071
2042.51836,0.00083
2040.58964,0.00099
2038.66091,0.00119
2036.73219,0.00136
2034.80347,0.00147
2032.87474,0.00161
2030.94602,0.00183
2029.01730,0.00208
2027.08857,0.00230
2025.15985,0.00250
2023.23112,0.00267
2021.30240,0.00281
2019.37368,0.00298
2017.44495,0.00318
2015.51623,0.00334
2013.58751,0.00345
2011.65878,0.00353
2009.73006,0.00357
2007.80134,0.00358
2005.87261,0.00358
2003.94389,0.00357
2002.01516,0.00360
2000.08644,0.00369
1998.15772,0.00376
1996.22899,0.00376
1994.30027,0.00376
1992.37155,0.00379
1990.44282,0.00375
1988.51410,0.00362
1986.58538,0.00347
1984.65665,0.00337
1982.72793,0.00332
1980.79920,0.00328
1978.87048,0.00322
1976.94176,0.00312
1975.01303,0.00300
1973.08431,0.00283
1971.15559,0.00264
1969.22686,0.00249
1967.29814,0.00240
1965.36941,0.00230
1963.44069,0.00215
1961.51197,0.00199
1959.58324,0.00182
1957.65452,0.00166
1955.72580,0.00156
1953.79707,0.00147
1951.86835,0.00128
1949.93963,0.00101
1948.01090,0.00071
1946.08218,0.00048
1944.15345,0.00036
1942.22473,0.00031
1940.29601,0.00024
1938.36728,0.00013
1936.43856,0.00003
1934.50984,-0.00006
1932.58111,-0.00006
1930.65239,0.00001
1928.72367,0.00007
1926.79494,0.00006
1924.86622,0.00008
1922.93749,0.00020
1921.00877,0.00032
1919.08005,0.00040
1917.15132,0.00059
1915.22260,0.00088
1913.29388,0.00119
1911.36515,0.00151
1909.43643,0.00192
1907.50770,0.00241
1905.57898,0.00295
1903.65026,0.00343
1901.72153,0.00387
1899.79281,0.00432
1897.86409,0.00478
1895.93536,0.00521
1894.00664,0.00562
1892.07792,0.00599
1890.14919,0.00638
1888.22047,0.00679
1886.29174,0.00712
1884.36302,0.00740
1882.43430,0.00767
1880.50557,0.00788
1878.57685,0.00804
1876.64813,0.00817
1874.71940,0.00824
1872.79068,0.00819
1870.86196,0.00808
1868.93323,0.00805
1867.00451,0.00798
1865.07578,0.00768
1863.14706,0.00723
1861.21834,0.00676
1859.28961,0.00630
1857.36089,0.00581
1855.43217,0.00529
1853.50344,0.00472
1851.57472,0.00419
1849.64599,0.00375
1847.71727,0.00340
1845.78855,0.00306
1843.85982,0.00271
1841.93110,0.00228
1840.00238,0.00183
1838.07365,0.00143
1836.14493,0.00114
1834.21621,0.00094
1832.28748,0.00080
1830.35876,0.00072
1828.43003,0.00061
1826.50131,0.00046
1824.57259,0.00030
1822.64386,0.00017
1820.71514,0.00003
1818.78642,-0.00006
1816.85769,-0.00007
1814.92897,0.00000
1813.00025,-0.00002
1811.07152,0.00003
1809.14280,0.00010
1807.21407,0.00008
1805.28535,-0.00001
1803.35663,-0.00001
1801.42790,0.00019
1799.49918,0.00048
1797.57046,0.00069
1795.64173,0.00087
1793.71301,0.00125
1791.78428,0.00189
1789.85556,0.00245
1787.92684,0.00280
1785.99811,0.00318
1784.06939,0.00372
1782.14067,0.00436
1780.21194,0.00502
1778.28322,0.00557
1776.35450,0.00598
1774.42577,0.00648
1772.49705,0.00727
1770.56832,0.00815
1768.63960,0.00880
1766.71088,0.00925
1764.78215,0.00961
1762.85343,0.01011
1760.92471,0.01082
1758.99598,0.01155
1757.06726,0.01226
1755.13854,0.01298
1753.20981,0.01371
1751.28109,0.01470
1749.35236,0.01596
1747.42364,0.01716
1745.49492,0.01821
1743.56619,0.01935
1741.63747,0.02072
1739.70875,0.02225
1737.78002,0.02363
1735.85130,0.02512
1733.92257,0.02730
1731.99385,0.02957
1730.06513,0.03112
1728.13640,0.03229
1726.20768,0.03352
1724.27896,0.03496
1722.35023,0.03642
1720.42151,0.03779
1718.49279,0.03965
1716.56406,0.04226
1714.63534,0.04467
1712.70661,0.04641
1710.77789,0.04791
1708.84917,0.04959
1706.92044,0.05174
1704.99172,0.05423
1703.06300,0.05667
1701.13427,0.05951
1699.20555,0.06308
1697.27683,0.06672
1695.34810,0.07034
1693.41938,0.07356
1691.49065,0.07629
1689.56193,0.07904
1687.63321,0.08182
1685.70448,0.08520
1683.77576,0.08987
1681.84704,0.09417
1679.91831,0.09705
1677.98959,0.09953
1676.06087,0.10255
1674.13214,0.10591
1672.20342,0.10897
1670.27469,0.11214
1668.34597,0.11543
1666.41725,0.11793
1664.48852,0.12004
1662.55980,0.12256
1660.63108,0.12498
1658.70235,0.12655
1656.77363,0.12748
1654.84490,0.12884
1652.91618,0.13119
1650.98746,0.13299
1649.05873,0.13368
1647.13001,0.13457
1645.20129,0.13585
1643.27256,0.13666
1641.34384,0.13694
1639.41512,0.13703
1637.48639,0.13721
1635.55767,0.13764
1633.62894,0.13777
1631.70022,0.13725
1629.77150,0.13634
1627.84277,0.13529
1625.91405,0.13407
1623.98533,0.13255
1622.05660,0.13072
1620.12788,0.12866
1618.19916,0.12627
1616.27043,0.12351
1614.34171,0.12083
1612.41298,0.11842
1610.48426,0.11603
1608.55554,0.11355
1606.62681,0.11096
1604.69809,0.10825
1602.76937,0.10552
1600.84064,0.10298
1598.91192,0.10067
1596.98319,0.09850
1595.05447,0.09636
1593.12575,0.09419
1591.19702,0.09200
1589.26830,0.08992
1587.33958,0.08804
1585.41085,0.08629
1583.48213,0.08452
1581.55341,0.08274
1579.62468,0.08104
1577.69596,0.07947
1575.76723,0.07808
1573.83851,0.07696
1571.90979,0.07606
1569.98106,0.07524
1568.05234,0.07447
1566.12362,0.07367
1564.19489,0.07280
1562.26617,0.07195
1560.33745,0.07133
1558.40872,0.07100
1556.48000,0.07052
1554.55127,0.06971
1552.62255,0.06871
1550.69383,0.06766
1548.76510,0.06664
1546.83638,0.06558
1544.90766,0.06435
1542.97893,0.06292
1541.05021,0.06139
1539.12148,0.05996
1537.19276,0.05879
1535.26404,0.05770
1533.33531,0.05637
1531.40659,0.05472
1529.47787,0.05294
1527.54914,0.05115
1525.62042,0.04936
1523.69170,0.04749
1521.76297,0.04542
1519.83425,0.04341
1517.90552,0.04161
1515.97680,0.03973
1514.04808,0.03771
1512.11935,0.03572
1510.19063,0.03374
1508.26191,0.03137
1506.33318,0.02847
1504.40446,0.02588
1502.47574,0.02388
1500.54701,0.02204
1498.61829,0.02014
1496.68956,0.01832
1494.76084,0.01684
1492.83212,0.01578
1490.90339,0.01508
1488.97467,0.01458
1487.04595,0.01412
1485.11722,0.01375
1483.18850,0.01364
1481.25977,0.01391
1479.33105,0.01444
1477.40233,0.01516
1475.47360,0.01637
1473.54488,0.01861
1471.61616,0.02155
1469.68743,0.02386
1467.75871,0.02538
1465.82999,0.02677
1463.90126,0.02810
1461.97254,0.02893
1460.04381,0.02940
1458.11509,0.03021
1456.18637,0.03138
1454.25764,0.03206
1452.32892,0.03217
1450.40020,0.03220
1448.47147,0.03242
1446.54275,0.03276
1444.61403,0.03307
1442.68530,0.03332
1440.75658,0.03359
1438.82785,0.03393
1436.89913,0.03443
1434.97041,0.03494
1433.04168,0.03530
1431.11296,0.03575
1429.18424,0.03639
1427.25551,0.03702
1425.32679,0.03761
1423.39806,0.03827
1421.46934,0.03903
1419.54062,0.04002
1417.61189,0.04121
1415.68317,0.04228
1413.75445,0.04325
1411.82572,0.04427
1409.89700,0.04535
1407.96828,0.04643
1406.03955,0.04754
1404.11083,0.04850
1402.18210,0.04889
1400.25338,0.04852
1398.32466,0.04740
1396.39593,0.04561
1394.46721,0.04338
1392.53849,0.04111
1390.60976,0.03903
1388.68104,0.03712
1386.75232,0.03542
1384.82359,0.03398
1382.89487,0.03281
1380.96614,0.03178
1379.03742,0.03074
1377.10870,0.02959
1375.17997,0.02838
1373.25125,0.02722
1371.32253,0.02614
1369.39380,0.02504
1367.46508,0.02385
1365.53635,0.02265
1363.60763,0.02158
1361.67891,0.02068
1359.75018,0.01984
1357.82146,0.01901
1355.89274,0.01826
1353.96401,0.01761
1352.03529,0.01703
1350.10657,0.01652
1348.17784,0.01609
1346.24912,0.01573
1344.32039,0.01536
1342.39167,0.01500
1340.46295,0.01469
1338.53422,0.01448
1336.60550,0.01435
1334.67678,0.01420
1332.74805,0.01402
1330.81933,0.01386
1328.89061,0.01379
1326.96188,0.01379
1325.03316,0.01382
1323.10443,0.01387
1321.17571,0.01394
1319.24699,0.01406
1317.31826,0.01422
1315.38954,0.01444
1313.46082,0.01472
1311.53209,0.01503
1309.60337,0.01540
1307.67464,0.01590
1305.74592,0.01649
1303.81720,0.01705
1301.88847,0.01767
1299.95975,0.01852
1298.03103,0.01962
1296.10230,0.02087
1294.17358,0.02225
1292.24486,0.02381
1290.31613,0.02555
1288.38741,0.02736
1286.45868,0.02926
1284.52996,0.03134
1282.60124,0.03368
1280.67251,0.03632
1278.74379,0.03930
1276.81507,0.04260
1274.88634,0.04621
1272.95762,0.05021
1271.02890,0.05475
1269.10017,0.05981
1267.17145,0.06542
1265.24272,0.07158
1263.31400,0.07832
1261.38528,0.08585
1259.45655,0.09438
1257.52783,0.10373
1255.59911,0.11358
1253.67038,0.12372
1251.74166,0.13400
1249.81294,0.14414
1247.88421,0.15387
1245.95549,0.16309
1244.02676,0.17178
1242.09804,0.17982
1240.16932,0.18706
1238.24059,0.19349
1236.31187,0.19920
1234.38315,0.20439
1232.45442,0.20914
1230.52570,0.21349
1228.59697,0.21755
1226.66825,0.22132
1224.73953,0.22481
1222.81080,0.22803
1220.88208,0.23100
1218.95336,0.23378
1217.02463,0.23637
1215.09591,0.23863
1213.16719,0.24072
1211.23846,0.24302
1209.30974,0.24542
1207.38101,0.24759
1205.45229,0.24968
1203.52357,0.25185
1201.59484,0.25401
1199.66612,0.25600
1197.73740,0.25783
1195.80867,0.25973
1193.87995,0.26181
1191.95123,0.26389
1190.02250,0.26571
1188.09378,0.26736
1186.16505,0.26902
1184.23633,0.27090
1182.30761,0.27305
1180.37888,0.27531
1178.45016,0.27734
1176.52144,0.27897
1174.59271,0.28044
1172.66399,0.28216
1170.73526,0.28417
1168.80654,0.28622
1166.87782,0.28828
1164.94909,0.29032
1163.02037,0.29207
1161.09165,0.29362
1159.16292,0.29523
1157.23420,0.29689
1155.30548,0.29845
1153.37675,0.29991
1151.44803,0.30138
1149.51930,0.30302
1147.59058,0.30505
1145.66186,0.30731
1143.73313,0.30932
1141.80441,0.31070
1139.87569,0.31200
1137.94696,0.31425
1136.01824,0.31737
1134.08952,0.32069
1132.16079,0.32378
1130.23207,0.32649
1128.30334,0.32905
1126.37462,0.33180
1124.44590,0.33513
1122.51717,0.33920
1120.58845,0.34361
1118.65973,0.34805
1116.73100,0.35309
1114.80228,0.35918
1112.87355,0.36575
1110.94483,0.37183
1109.01611,0.37734
1107.08738,0.38302
1105.15866,0.38900
1103.22994,0.39461
1101.30121,0.39927
1099.37249,0.40295
1097.44377,0.40572
1095.51504,0.40755
1093.58632,0.40870
1091.65759,0.40920
1089.72887,0.40904
1087.80015,0.40843
1085.87142,0.40746
1083.94270,0.40612
1082.01398,0.40448
1080.08525,0.40239
1078.15653,0.39958
1076.22781,0.39664
1074.29908,0.39410
1072.37036,0.39129
1070.44163,0.38737
1068.51291,0.38267
1066.58419,0.37826
1064.65546,0.37405
1062.72674,0.36935
1060.79802,0.36422
1058.86929,0.35865
1056.94057,0.35253
1055.01184,0.34645
1053.08312,0.34078
1051.15440,0.33539
1049.22567,0.33000
1047.29695,0.32405
1045.36823,0.31734
1043.43950,0.31044
1041.51078,0.30371
1039.58206,0.29713
1037.65333,0.29061
1035.72461,0.28411
1033.79588,0.27781
1031.86716,0.27186
1029.93844,0.26573
1028.00971,0.25922
1026.08099,0.25304
1024.15227,0.24748
1022.22354,0.24212
1020.29482,0.23691
1018.36610,0.23202
1016.43737,0.22715
1014.50865,0.22244
1012.57992,0.21839
1010.65120,0.21457
1008.72248,0.21038
1006.79375,0.20609
1004.86503,0.20206
1002.93631,0.19829
1001.00758,0.19467
999.07886,0.19120
997.15013,0.18777
995.22141,0.18441
993.29269,0.18126
991.36396,0.17844
989.43524,0.17593
987.50652,0.17362
985.57779,0.17152
983.64907,0.16954
981.72035,0.16757
979.79162,0.16569
977.86290,0.16405
975.93417,0.16288
974.00545,0.16206
972.07673,0.16117
970.14800,0.16029
968.21928,0.15976
966.29056,0.15947
964.36183,0.15924
962.43311,0.15901
960.50439,0.15863
958.57566,0.15802
956.64694,0.15716
954.71821,0.15627
952.78949,0.15554
950.86077,0.15485
948.93204,0.15388
947.00332,0.15256
945.07460,0.15102
943.14587,0.14934
941.21715,0.14769
939.28842,0.14598
937.35970,0.14381
935.43098,0.14114
933.50225,0.13845
931.57353,0.13604
929.64481,0.13380
927.71608,0.13144
925.78736,0.12877
923.85864,0.12600
921.92991,0.12319
920.00119,0.12017
918.07246,0.11716
916.14374,0.11443
914.21502,0.11162
912.28629,0.10826
910.35757,0.10455
908.42885,0.10084
906.50012,0.09718
904.57140,0.09373
902.64268,0.09049
900.71395,0.08720
898.78523,0.08385
896.85650,0.08065
894.92778,0.07763
892.99906,0.07471
891.07033,0.07206
889.14161,0.06969
887.21289,0.06718
885.28416,0.06440
883.35544,0.06180
881.42671,0.05952
879.49799,0.05717
877.56927,0.05472
875.64054,0.05260
873.71182,0.05088
871.78310,0.04922
869.85437,0.04740
867.92565,0.04542
865.99693,0.04346
864.06820,0.04174
862.13948,0.04032
860.21075,0.03901
858.28203,0.03771
856.35331,0.03652
854.42458,0.03555
852.49586,0.03483
850.56714,0.03437
848.63841,0.03424
846.70969,0.03450
844.78097,0.03517
842.85224,0.03633
840.92352,0.03793
838.99479,0.03979
837.06607,0.04185
835.13735,0.04426
833.20862,0.04719
831.27990,0.05041
829.35118,0.05358
827.42245,0.05656
825.49373,0.05945
823.56501,0.06242
821.63628,0.06528
819.70756,0.06785
817.77883,0.07048
815.85011,0.07330
813.92139,0.07622
811.99266,0.07913
810.06394,0.08163
808.13522,0.08352
806.20649,0.08512
804.27777,0.08679
802.34904,0.08869
800.42032,0.09039
798.49160,0.09125
796.56287,0.09136
794.63415,0.09120
792.70543,0.09052
790.77670,0.08902
788.84798,0.08710
786.91926,0.08503
784.99053,0.08261
783.06181,0.07991
781.13308,0.07709
779.20436,0.07407
777.27564,0.07067
775.34691,0.06692
773.41819,0.06329
771.48947,0.06033
769.56074,0.05821
767.63202,0.05660
765.70330,0.05539
763.77457,0.05466
761.84585,0.05413
759.91712,0.05351
757.98840,0.05295
756.05968,0.05264
754.13095,0.05258
752.20223,0.05255
750.27351,0.05225
748.34478,0.05176
746.41606,0.05142
744.48733,0.05120
742.55861,0.05101
740.62989,0.05074
738.70116,0.05045
736.77244,0.05065
734.84372,0.05124
732.91499,0.05142
730.98627,0.05123
729.05755,0.05128
727.12882,0.05161
725.20010,0.05208
723.27137,0.05259
721.34265,0.05294
719.41393,0.05311
717.48520,0.05308
715.55648,0.05297
713.62776,0.05323
711.69903,0.05418
709.77031,0.05537
707.84159,0.05608
705.91286,0.05640
703.98414,0.05679
702.05541,0.05728
700.12669,0.05779
698.19797,0.05843
696.26924,0.05914
694.34052,0.05958
692.41180,0.05974
690.48307,0.06001
688.55435,0.06036
686.62562,0.06037
684.69690,0.06010
682.76818,0.06003
680.83945,0.06033
678.91073,0.06062
676.98201,0.06063
675.05328,0.06066
673.12456,0.06086
671.19584,0.06050
669.26711,0.05978
667.33839,0.06069
665.40966,0.06283
663.48094,0.06409
661.55222,0.06449
659.62349,0.06483
657.69477,0.06527
655.76605,0.06593
653.83732,0.06696
651.90860,0.06825
649.97988,0.06955
648.05115,0.07065
646.12243,0.07163
644.19370,0.07280
642.26498,0.07423
640.33626,0.07568
638.40753,0.07709
636.47881,0.07843
634.55009,0.07953
632.62136,0.08020
630.69264,0.08062
628.76391,0.08119
626.83519,0.08214
624.90647,0.08319
622.97774,0.08395
621.04902,0.08467
619.12030,0.08614
617.19157,0.08802
615.26285,0.08923
613.33413,0.08990
611.40540,0.09087
609.47668,0.09203
607.54795,0.09301
605.61923,0.09434
603.69051,0.09640
601.76178,0.09851
599.83306,0.09991
597.90434,0.10103
595.97561,0.10257
594.04689,0.10389
592.11817,0.10465
590.18944,0.10557
588.26072,0.10639
586.33199,0.10676
584.40327,0.10731
582.47455,0.10790
580.54582,0.10834
578.61710,0.10919
576.68838,0.11035
574.75965,0.11122
572.83093,0.11153
570.90220,0.11168
568.97348,0.11226
567.04476,0.11288
565.11603,0.11297
563.18731,0.11286
561.25859,0.11298
559.32986,0.11312
557.40114,0.11306
555.47242,0.11343
553.54369,0.11453
551.61497,0.11549
549.68624,0.11565
547.75752,0.11577
545.82880,0.11656
543.90007,0.11742
541.97135,0.11759
540.04263,0.11728
538.11390,0.11689
536.18518,0.11658
534.25646,0.11702
532.32773,0.11826
530.39901,0.11897
528.47028,0.11836
526.54156,0.11711
524.61284,0.11623
522.68411,0.11571
520.75539,0.11462
518.82667,0.11338
516.89794,0.11434
514.96922,0.11762
513.04049,0.12049
511.11177,0.12244
509.18305,0.12513
507.25432,0.12902
505.32560,0.13370
503.39688,0.13877
501.46815,0.14364
499.53943,0.14855
497.61071,0.15422
495.68198,0.15952
493.75326,0.16346
491.82453,0.16789
489.89581,0.17490
487.96709,0.18363
486.03836,0.19192
484.10964,0.19886
482.18092,0.20483
480.25219,0.21050
478.32347,0.21644
476.39475,0.22330
474.46602,0.23112
472.53730,0.23814
470.60857,0.24291
468.67985,0.24550
466.75113,0.24530
464.82240,0.24217
462.89368,0.23774
460.96496,0.23366
459.03623,0.23062
457.10751,0.22769
455.17878,0.22321
453.25006,0.21830
451.32134,0.21465
449.39261,0.21083
447.46389,0.20535
445.53517,0.19961
443.60644,0.19570
441.67772,0.19343
439.74900,0.18998
437.82027,0.18354
435.89155,0.17649
433.96282,0.17259
432.03410,0.17045
430.10538,0.16443
428.17665,0.15314
426.24793,0.14248
424.31921,0.13773
422.39048,0.13569
420.46176,0.13105
418.53304,0.12650
416.60431,0.12695
414.67559,0.12774
412.74686,0.12208
410.81814,0.11129
408.88942,0.10279
406.96069,0.09944
405.03197,0.09651
403.10325,0.09091
401.17452,0.08433
399.24580,0.07717
397.31708,0.07169
395.38835,0.07163
393.45963,0.07147
391.53090,0.06795
389.60218,0.06236
387.67346,0.05165
385.74473,0.03567
383.81601,0.02299
381.88729,0.01632
379.95856,0.01051
378.02984,0.00619
376.10111,0.01002
374.17239,0.01813
372.24367,0.01367
370.31494,0.00211
368.38622,0.00000
