3996.31543,0.00032
3994.38671,0.00018
3992.45799,0.00006
3990.52926,0.00000
3988.60054,0.00015
3986.67182,0.00028
3984.74309,0.00026
3982.81437,0.00024
3980.88564,0.00033
3978.95692,0.00034
3977.02820,0.00021
3975.09947,0.00019
3973.17075,0.00039
3971.24203,0.00067
3969.31330,0.00090
3967.38458,0.00104
3965.45586,0.00097
3963.52713,0.00072
3961.59841,0.00061
3959.66968,0.00073
3957.74096,0.00078
3955.81224,0.00079
3953.88351,0.00090
3951.95479,0.00102
3950.02607,0.00108
3948.09734,0.00125
3946.16862,0.00132
3944.23990,0.00086
3942.31117,0.00053
3940.38245,0.00079
3938.45372,0.00108
3936.52500,0.00119
3934.59628,0.00109
3932.66755,0.00095
3930.73883,0.00117
3928.81011,0.00146
3926.88138,0.00124
3924.95266,0.00092
3923.02393,0.00120
3921.09521,0.00143
3919.16649,0.00120
3917.23776,0.00098
3915.30904,0.00108
3913.38032,0.00115
3911.45159,0.00114
3909.52287,0.00144
3907.59415,0.00166
3905.66542,0.00138
3903.73670,0.00120
3901.80797,0.00127
3899.87925,0.00110
3897.95053,0.00143
3896.02180,0.00193
3894.09308,0.00155
3892.16436,0.00090
3890.23563,0.00139
3888.30691,0.00183
3886.37819,0.00126
3884.44946,0.00153
3882.52074,0.00191
3880.59201,0.00168
3878.66329,0.00233
3876.73457,0.00252
3874.80584,0.00180
3872.87712,0.00159
3870.94840,0.00143
3869.01967,0.00198
3867.09095,0.00268
3865.16222,0.00209
3863.23350,0.00180
3861.30478,0.00240
3859.37605,0.00309
3857.44733,0.00301
3855.51861,0.00142
3853.58988,0.00000
3851.66116,0.00139
3849.73244,0.00285
3847.80371,0.00277
3845.87499,0.00207
3843.94626,0.00178
3842.01754,0.00201
3840.08882,0.00168
3838.16009,0.00127
3836.23137,0.00177
3834.30265,0.00208
3832.37392,0.00174
3830.44520,0.00178
3828.51648,0.00192
3826.58775,0.00210
3824.65903,0.00244
3822.73030,0.00174
3820.80158,0.00157
3818.87286,0.00274
3816.94413,0.00243
3815.01541,0.00210
3813.08669,0.00273
3811.15796,0.00270
3809.22924,0.00180
3807.30052,0.00144
3805.37179,0.00268
3803.44307,0.00290
3801.51434,0.00210
3799.58562,0.00269
3797.65690,0.00274
3795.72817,0.00234
3793.79945,0.00255
3791.87073,0.00267
3789.94200,0.00275
3788.01328,0.00286
3786.08455,0.00282
3784.15583,0.00308
3782.22711,0.00334
3780.29838,0.00294
3778.36966,0.00301
3776.44094,0.00375
3774.51221,0.00429
3772.58349,0.00439
3770.65477,0.00434
3768.72604,0.00487
3766.79732,0.00532
3764.86859,0.00568
3762.93987,0.00622
3761.01115,0.00614
3759.08242,0.00633
3757.15370,0.00756
3755.22498,0.00855
3753.29625,0.00833
3751.36753,0.00832
3749.43881,0.01018
3747.51008,0.01163
3745.58136,0.01069
3743.65263,0.01077
3741.72391,0.01281
3739.79519,0.01384
3737.86646,0.01370
3735.93774,0.01385
3734.00902,0.01523
3732.08029,0.01711
3730.15157,0.01882
3728.22284,0.01975
3726.29412,0.02049
3724.36540,0.02190
3722.43667,0.02347
3720.50795,0.02522
3718.57923,0.02739
3716.65050,0.02974
3714.72178,0.03148
3712.79306,0.03276
3710.86433,0.03522
3708.93561,0.03871
3707.00688,0.04167
3705.07816,0.04366
3703.14944,0.04525
3701.22071,0.04781
3699.29199,0.05124
3697.36327,0.05409
3695.43454,0.05658
3693.50582,0.05881
3691.57710,0.06048
3689.64837,0.06256
3687.71965,0.06618
3685.79092,0.07012
3683.86220,0.07318
3681.93348,0.07600
3680.00475,0.07886
3678.07603,0.08113
3676.14731,0.08374
3674.21858,0.08878
3672.28986,0.09267
3670.36113,0.09425
3668.43241,0.09750
3666.50369,0.10132
3664.57496,0.10378
3662.64624,0.10591
3660.71752,0.10837
3658.78879,0.11063
3656.86007,0.11308
3654.93135,0.11663
3653.00262,0.11917
3651.07390,0.11973
3649.14517,0.12151
3647.21645,0.12522
3645.28773,0.12838
3643.35900,0.13001
3641.43028,0.13124
3639.50156,0.13291
3637.57283,0.13482
3635.64411,0.13674
3633.71539,0.13872
3631.78666,0.14004
3629.85794,0.14036
3627.92921,0.14244
3626.00049,0.14584
3624.07177,0.14773
3622.14304,0.14815
3620.21432,0.14843
3618.28560,0.15005
3616.35687,0.15224
3614.42815,0.15331
3612.49942,0.15392
3610.57070,0.15453
3608.64198,0.15509
3606.71325,0.15653
3604.78453,0.15833
3602.85581,0.15927
3600.92708,0.15981
3598.99836,0.16067
3597.06964,0.16158
3595.14091,0.16258
3593.21219,0.16410
3591.28346,0.16532
3589.35474,0.16542
3587.42602,0.16590
3585.49729,0.16776
3583.56857,0.16917
3581.63985,0.16953
3579.71112,0.16985
3577.78240,0.17064
3575.85368,0.17167
3573.92495,0.17278
3571.99623,0.17380
3570.06750,0.17425
3568.13878,0.17428
3566.21006,0.17514
3564.28133,0.17668
3562.35261,0.17761
3560.42389,0.17814
3558.49516,0.17885
3556.56644,0.17958
3554.63771,0.18008
3552.70899,0.18060
3550.78027,0.18146
3548.85154,0.18206
3546.92282,0.18235
3544.99410,0.18317
3543.06537,0.18444
3541.13665,0.18528
3539.20793,0.18555
3537.27920,0.18576
3535.35048,0.18637
3533.42175,0.18717
3531.49303,0.18785
3529.56431,0.18843
3527.63558,0.18892
3525.70686,0.18931
3523.77814,0.18979
3521.84941,0.19061
3519.92069,0.19139
3517.99197,0.19181
3516.06324,0.19219
3514.13452,0.19275
3512.20579,0.19341
3510.27707,0.19413
3508.34835,0.19500
3506.41962,0.19559
3504.49090,0.19560
3502.56218,0.19583
3500.63345,0.19648
3498.70473,0.19696
3496.77600,0.19725
3494.84728,0.19769
3492.91856,0.19816
3490.98983,0.19855
3489.06111,0.19901
3487.13239,0.19975
3485.20366,0.20051
3483.27494,0.20072
3481.34622,0.20065
3479.41749,0.20085
3477.48877,0.20125
3475.56004,0.20166
3473.63132,0.20202
3471.70260,0.20231
3469.77387,0.20265
3467.84515,0.20306
3465.91643,0.20350
3463.98770,0.20381
3462.05898,0.20397
3460.13026,0.20417
3458.20153,0.20448
3456.27281,0.20484
3454.34408,0.20513
3452.41536,0.20535
3450.48664,0.20566
3448.55791,0.20593
3446.62919,0.20627
3444.70047,0.20668
3442.77174,0.20683
3440.84302,0.20691
3438.91429,0.20696
3436.98557,0.20705
3435.05685,0.20736
3433.12812,0.20763
3431.19940,0.20774
3429.27068,0.20783
3427.34195,0.20802
3425.41323,0.20831
3423.48451,0.20847
3421.55578,0.20838
3419.62706,0.20840
3417.69833,0.20859
3415.76961,0.20868
3413.84089,0.20873
3411.91216,0.20881
3409.98344,0.20888
3408.05472,0.20895
3406.12599,0.20905
3404.19727,0.20917
3402.26855,0.20921
3400.33982,0.20923
3398.41110,0.20924
3396.48237,0.20921
3394.55365,0.20908
3392.62493,0.20906
3390.69620,0.20923
3388.76748,0.20928
3386.83876,0.20916
3384.91003,0.20903
3382.98131,0.20890
3381.05259,0.20868
3379.12386,0.20844
3377.19514,0.20838
3375.26641,0.20836
3373.33769,0.20824
3371.40897,0.20819
3369.48024,0.20829
3367.55152,0.20825
3365.62280,0.20804
3363.69407,0.20780
3361.76535,0.20750
3359.83662,0.20739
3357.90790,0.20756
3355.97918,0.20769
3354.05045,0.20754
3352.12173,0.20720
3350.19301,0.20683
3348.26428,0.20644
3346.33556,0.20596
3344.40684,0.20565
3342.47811,0.20566
3340.54939,0.20567
3338.62066,0.20540
3336.69194,0.20502
3334.76322,0.20476
3332.83449,0.20466
3330.90577,0.20461
3328.97705,0.20450
3327.04832,0.20433
3325.11960,0.20410
3323.19088,0.20387
3321.26215,0.20370
3319.33343,0.20354
3317.40470,0.20331
3315.47598,0.20300
3313.54726,0.20276
3311.61853,0.20263
3309.68981,0.20243
3307.76109,0.20220
3305.83236,0.20201
3303.90364,0.20183
3301.97491,0.20163
3300.04619,0.20134
3298.11747,0.20095
3296.18874,0.20073
3294.26002,0.20076
3292.33130,0.20078
3290.40257,0.20066
3288.47385,0.20048
3286.54513,0.20022
3284.61640,0.19982
3282.68768,0.19945
3280.75895,0.19925
3278.83023,0.19909
3276.90151,0.19890
3274.97278,0.19868
3273.04406,0.19842
3271.11534,0.19816
3269.18661,0.19792
3267.25789,0.19764
3265.32917,0.19723
3263.40044,0.19682
3261.47172,0.19653
3259.54299,0.19628
3257.61427,0.19607
3255.68555,0.19593
3253.75682,0.19573
3251.82810,0.19542
3249.89938,0.19496
3247.97065,0.19436
3246.04193,0.19379
3244.11320,0.19350
3242.18448,0.19338
3240.25576,0.19320
3238.32703,0.19300
3236.39831,0.19279
3234.46959,0.19259
3232.54086,0.19228
3230.61214,0.19186
3228.68342,0.19144
3226.75469,0.19101
3224.82597,0.19058
3222.89724,0.19015
3220.96852,0.18967
3219.03980,0.18920
3217.11107,0.18879
3215.18235,0.18837
3213.25363,0.18796
3211.32490,0.18749
3209.39618,0.18697
3207.46746,0.18652
3205.53873,0.18605
3203.61001,0.18554
3201.68128,0.18510
3199.75256,0.18472
3197.82384,0.18434
3195.89511,0.18387
3193.96639,0.18326
3192.03767,0.18264
3190.10894,0.18209
3188.18022,0.18155
3186.25149,0.18103
3184.32277,0.18054
3182.39405,0.18008
3180.46532,0.17954
3178.53660,0.17888
3176.60788,0.17821
3174.67915,0.17758
3172.75043,0.17707
3170.82171,0.17661
3168.89298,0.17599
3166.96426,0.17529
3165.03553,0.17471
3163.10681,0.17427
3161.17809,0.17387
3159.24936,0.17334
3157.32064,0.17263
3155.39192,0.17194
3153.46319,0.17136
3151.53447,0.17076
3149.60575,0.17006
3147.67702,0.16939
3145.74830,0.16885
3143.81957,0.16836
3141.89085,0.16777
3139.96213,0.16713
3138.03340,0.16653
3136.10468,0.16594
3134.17596,0.16524
3132.24723,0.16449
3130.31851,0.16386
3128.38978,0.16331
3126.46106,0.16267
3124.53234,0.16187
3122.60361,0.16115
3120.67489,0.16071
3118.74617,0.16033
3116.81744,0.15978
3114.88872,0.15906
3112.96000,0.15829
3111.03127,0.15751
3109.10255,0.15672
3107.17382,0.15588
3105.24510,0.15501
3103.31638,0.15423
3101.38765,0.15362
3099.45893,0.15298
3097.53021,0.15212
3095.60148,0.15118
3093.67276,0.15035
3091.74404,0.14958
3089.81531,0.14892
3087.88659,0.14835
3085.95786,0.14770
3084.02914,0.14688
3082.10042,0.14601
3080.17169,0.14522
3078.24297,0.14444
3076.31425,0.14363
3074.38552,0.14279
3072.45680,0.14194
3070.52807,0.14116
3068.59935,0.14043
3066.67063,0.13964
3064.74190,0.13878
3062.81318,0.13801
3060.88446,0.13731
3058.95573,0.13659
3057.02701,0.13579
3055.09829,0.13497
3053.16956,0.13418
3051.24084,0.13353
3049.31211,0.13302
3047.38339,0.13246
3045.45467,0.13180
3043.52594,0.13114
3041.59722,0.13057
3039.66850,0.13009
3037.73977,0.12962
3035.81105,0.12914
3033.88233,0.12867
3031.95360,0.12813
3030.02488,0.12751
3028.09615,0.12688
3026.16743,0.12618
3024.23871,0.12545
3022.30998,0.12480
3020.38126,0.12463
3018.45254,0.12562
3016.52381,0.12715
3014.59509,0.12696
3012.66636,0.12464
3010.73764,0.12231
3008.80892,0.12114
3006.88019,0.12064
3004.95147,0.12039
3003.02275,0.12022
3001.09402,0.11993
2999.16530,0.11951
2997.23658,0.11912
2995.30785,0.11875
2993.37913,0.11823
2991.45040,0.11751
2989.52168,0.11673
2987.59296,0.11601
2985.66423,0.11529
2983.73551,0.11459
2981.80679,0.11407
2979.87806,0.11437
2977.94934,0.11656
2976.02062,0.11945
2974.09189,0.11938
2972.16317,0.11615
2970.23444,0.11334
2968.30572,0.11239
2966.37700,0.11233
2964.44827,0.11241
2962.51955,0.11243
2960.59083,0.11235
2958.66210,0.11212
2956.73338,0.11179
2954.80466,0.11145
2952.87593,0.11110
2950.94721,0.11071
2949.01848,0.11023
2947.08976,0.10976
2945.16104,0.10945
2943.23231,0.10933
2941.30359,0.10930
2939.37487,0.10937
2937.44614,0.10950
2935.51742,0.10956
2933.58869,0.10955
2931.65997,0.10952
2929.73125,0.10942
2927.80252,0.10912
2925.87380,0.10858
2923.94508,0.10778
2922.01635,0.10670
2920.08763,0.10536
2918.15891,0.10388
2916.23018,0.10243
2914.30146,0.10113
2912.37273,0.09995
2910.44401,0.09877
2908.51529,0.09766
2906.58656,0.09673
2904.65784,0.09583
2902.72912,0.09481
2900.80039,0.09375
2898.87167,0.09282
2896.94295,0.09202
2895.01422,0.09119
2893.08550,0.09026
2891.15677,0.08936
2889.22805,0.08851
2887.29933,0.08765
2885.37060,0.08684
2883.44188,0.08614
2881.51316,0.08554
2879.58443,0.08503
2877.65571,0.08459
2875.72698,0.08414
2873.79826,0.08366
2871.86954,0.08318
2869.94081,0.08268
2868.01209,0.08206
2866.08337,0.08145
2864.15464,0.08110
2862.22592,0.08100
2860.29720,0.08093
2858.36847,0.08083
2856.43975,0.08072
2854.51102,0.08056
2852.58230,0.08016
2850.65358,0.07920
2848.72485,0.07763
2846.79613,0.07580
2844.86741,0.07408
2842.93868,0.07259
2841.00996,0.07124
2839.08124,0.06997
2837.15251,0.06879
2835.22379,0.06776
2833.29506,0.06684
2831.36634,0.06601
2829.43762,0.06524
2827.50889,0.06454
2825.58017,0.06387
2823.65145,0.06318
2821.72272,0.06250
2819.79400,0.06182
2817.86527,0.06111
2815.93655,0.06048
2814.00783,0.05999
2812.07910,0.05950
2810.15038,0.05895
2808.22166,0.05832
2806.29293,0.05770
2804.36421,0.05716
2802.43549,0.05662
2800.50676,0.05600
2798.57804,0.05538
2796.64931,0.05483
2794.72059,0.05430
2792.79187,0.05379
2790.86314,0.05336
2788.93442,0.05290
2787.00570,0.05230
2785.07697,0.05174
2783.14825,0.05131
2781.21953,0.05090
2779.29080,0.05043
2777.36208,0.04999
2775.43335,0.04957
2773.50463,0.04910
2771.57591,0.04855
2769.64718,0.04800
2767.71846,0.04750
2765.78974,0.04701
2763.86101,0.04648
2761.93229,0.04602
2760.00356,0.04564
2758.07484,0.04521
2756.14612,0.04469
2754.21739,0.04419
2752.28867,0.04377
2750.35995,0.04339
2748.43122,0.04299
2746.50250,0.04256
2744.57378,0.04216
2742.64505,0.04182
2740.71633,0.04144
2738.78760,0.04094
2736.85888,0.04042
2734.93016,0.04000
2733.00143,0.03967
2731.07271,0.03937
2729.14399,0.03906
2727.21526,0.03868
2725.28654,0.03819
2723.35782,0.03769
2721.42909,0.03724
2719.50037,0.03680
2717.57164,0.03637
2715.64292,0.03599
2713.71420,0.03564
2711.78547,0.03529
2709.85675,0.03489
2707.92803,0.03443
2705.99930,0.03403
2704.07058,0.03371
2702.14185,0.03340
2700.21313,0.03303
2698.28441,0.03261
2696.35568,0.03220
2694.42696,0.03186
2692.49824,0.03157
2690.56951,0.03123
2688.64079,0.03083
2686.71207,0.03036
2684.78334,0.02991
2682.85462,0.02952
2680.92589,0.02920
2678.99717,0.02893
2677.06845,0.02859
2675.13972,0.02820
2673.21100,0.02783
2671.28228,0.02750
2669.35355,0.02710
2667.42483,0.02664
2665.49611,0.02620
2663.56738,0.02589
2661.63866,0.02564
2659.70993,0.02531
2657.78121,0.02495
2655.85249,0.02465
2653.92376,0.02435
2651.99504,0.02403
2650.06632,0.02370
2648.13759,0.02340
2646.20887,0.02310
2644.28014,0.02281
2642.35142,0.02258
2640.42270,0.02240
2638.49397,0.02207
2636.56525,0.02158
2634.63653,0.02114
2632.70780,0.02086
2630.77908,0.02065
2628.85036,0.02040
2626.92163,0.02010
2624.99291,0.01977
2623.06418,0.01947
2621.13546,0.01918
2619.20674,0.01893
2617.27801,0.01870
2615.34929,0.01847
2613.42057,0.01822
2611.49184,0.01799
2609.56312,0.01776
2607.63440,0.01751
2605.70567,0.01727
2603.77695,0.01702
2601.84822,0.01669
2599.91950,0.01640
2597.99078,0.01619
2596.06205,0.01599
2594.13333,0.01571
2592.20461,0.01544
2590.27588,0.01522
2588.34716,0.01499
2586.41843,0.01471
2584.48971,0.01443
2582.56099,0.01422
2580.63226,0.01408
2578.70354,0.01395
2576.77482,0.01376
2574.84609,0.01350
2572.91737,0.01325
2570.98865,0.01309
2569.05992,0.01293
2567.13120,0.01274
2565.20247,0.01257
2563.27375,0.01246
2561.34503,0.01233
2559.41630,0.01212
2557.48758,0.01185
2555.55886,0.01158
2553.63013,0.01139
2551.70141,0.01126
2549.77269,0.01114
2547.84396,0.01099
2545.91524,0.01084
2543.98651,0.01070
2542.05779,0.01056
2540.12907,0.01038
2538.20034,0.01019
2536.27162,0.01005
2534.34290,0.00994
2532.41417,0.00983
2530.48545,0.00972
2528.55673,0.00956
2526.62800,0.00936
2524.69928,0.00918
2522.77055,0.00900
2520.84183,0.00883
2518.91311,0.00869
2516.98438,0.00857
2515.05566,0.00844
2513.12694,0.00831
2511.19821,0.00815
2509.26949,0.00798
2507.34076,0.00781
2505.41204,0.00766
2503.48332,0.00756
2501.55459,0.00749
2499.62587,0.00741
2497.69715,0.00735
2495.76842,0.00727
2493.83970,0.00713
2491.91098,0.00695
2489.98225,0.00678
2488.05353,0.00664
2486.12480,0.00647
2484.19608,0.00631
2482.26736,0.00622
2480.33863,0.00616
2478.40991,0.00609
2476.48119,0.00601
2474.55246,0.00587
2472.62374,0.00566
2470.69502,0.00545
2468.76629,0.00529
2466.83757,0.00514
2464.90884,0.00500
2462.98012,0.00485
2461.05140,0.00473
2459.12267,0.00466
2457.19395,0.00461
2455.26523,0.00452
2453.33650,0.00436
2451.40778,0.00422
2449.47905,0.00417
2447.55033,0.00409
2445.62161,0.00391
2443.69288,0.00375
2441.76416,0.00368
2439.83544,0.00357
2437.90671,0.00344
2435.97799,0.00334
2434.04927,0.00325
2432.12054,0.00315
2430.19182,0.00306
2428.26309,0.00297
2426.33437,0.00286
2424.40565,0.00277
2422.47692,0.00271
2420.54820,0.00262
2418.61948,0.00251
2416.69075,0.00242
2414.76203,0.00236
2412.83331,0.00231
2410.90458,0.00218
2408.97586,0.00201
2407.04713,0.00189
2405.11841,0.00184
2403.18969,0.00178
2401.26096,0.00171
2399.33224,0.00166
2397.40352,0.00161
2395.47479,0.00152
2393.54607,0.00138
2391.61734,0.00120
2389.68862,0.00106
2387.75990,0.00101
2385.83117,0.00103
2383.90245,0.00104
2381.97373,0.00106
2380.04500,0.00111
2378.11628,0.00120
2376.18756,0.00129
2374.25883,0.00138
2372.33011,0.00146
2370.40138,0.00154
2368.47266,0.00158
2366.54394,0.00159
2364.61521,0.00163
2362.68649,0.00172
2360.75777,0.00176
2358.82904,0.00164
2356.90032,0.00139
2354.97160,0.00114
2353.04287,0.00102
2351.11415,0.00102
2349.18542,0.00106
2347.25670,0.00113
2345.32798,0.00124
2343.39925,0.00131
2341.47053,0.00126
2339.54181,0.00113
2337.61308,0.00101
2335.68436,0.00093
2333.75563,0.00088
2331.82691,0.00090
2329.89819,0.00095
2327.96946,0.00093
2326.04074,0.00085
2324.11202,0.00076
2322.18329,0.00064
2320.25457,0.00054
2318.32585,0.00046
2316.39712,0.00037
2314.46840,0.00029
2312.53967,0.00026
2310.61095,0.00026
2308.68223,0.00020
2306.75350,0.00011
2304.82478,0.00007
2302.89606,0.00010
2300.96733,0.00013
2299.03861,0.00010
2297.10989,0.00006
2295.18116,0.00003
2293.25244,0.00001
2291.32371,-0.00001
2289.39499,-0.00002
2287.46627,-0.00005
2285.53754,-0.00008
2283.60882,-0.00008
2281.68010,-0.00004
2279.75137,-0.00000
2277.82265,0.00000
2275.89392,-0.00001
2273.96520,-0.00003
2272.03648,-0.00004
2270.10775,-0.00001
2268.17903,0.00001
2266.25031,-0.00003
2264.32158,-0.00003
2262.39286,0.00000
2260.46414,0.00001
2258.53541,0.00002
2256.60669,0.00008
2254.67796,0.00011
2252.74924,0.00005
2250.82052,-0.00001
2248.89179,0.00001
2246.96307,-0.00000
2245.03435,-0.00003
2243.10562,-0.00009
2241.17690,-0.00013
2239.24818,-0.00012
2237.31945,-0.00003
2235.39073,0.00005
2233.46200,0.00001
2231.53328,-0.00005
2229.60456,-0.00005
2227.67583,-0.00005
2225.74711,-0.00011
2223.81839,-0.00016
2221.88966,-0.00015
2219.96094,-0.00011
2218.03221,-0.00008
2216.10349,-0.00009
2214.17477,-0.00012
2212.24604,-0.00010
2210.31732,-0.00004
2208.38860,-0.00002
2206.45987,0.00000
2204.53115,0.00000
2202.60243,-0.00003
2200.67370,-0.00011
2198.74498,-0.00018
2196.81625,-0.00025
2194.88753,-0.00030
2192.95881,-0.00032
2191.03008,-0.00030
2189.10136,-0.00024
2187.17264,-0.00016
2185.24391,-0.00012
2183.31519,-0.00013
2181.38647,-0.00015
2179.45774,-0.00014
2177.52902,-0.00009
2175.60029,-0.00007
2173.67157,-0.00012
2171.74285,-0.00012
2169.81412,-0.00006
2167.88540,-0.00005
2165.95668,-0.00004
2164.02795,0.00004
2162.09923,0.00009
2160.17050,0.00008
2158.24178,0.00005
2156.31306,0.00001
2154.38433,0.00000
2152.45561,0.00003
2150.52689,0.00003
2148.59816,0.00000
2146.66944,0.00002
2144.74072,0.00012
2142.81199,0.00022
2140.88327,0.00025
2138.95454,0.00025
2137.02582,0.00022
2135.09710,0.00016
2133.16837,0.00009
2131.23965,0.00009
2129.31093,0.00012
2127.38220,0.00008
2125.45348,0.00001
2123.52476,-0.00001
2121.59603,0.00005
2119.66731,0.00009
2117.73858,0.00009
2115.80986,0.00010
2113.88114,0.00008
2111.95241,-0.00001
2110.02369,-0.00003
2108.09497,0.00003
2106.16624,0.00005
2104.23752,0.00003
2102.30880,0.00001
2100.38007,-0.00002
2098.45135,-0.00004
2096.52262,-0.00004
2094.59390,0.00000
2092.66518,-0.00001
2090.73645,-0.00006
2088.80773,-0.00012
2086.87901,-0.00020
2084.95028,-0.00028
2083.02156,-0.00032
2081.09283,-0.00035
2079.16411,-0.00044
2077.23539,-0.00052
2075.30666,-0.00054
2073.37794,-0.00053
2071.44922,-0.00052
2069.52049,-0.00047
2067.59177,-0.00048
2065.66305,-0.00061
2063.73432,-0.00058
2061.80560,-0.00044
2059.87687,-0.00042
2057.94815,-0.00047
2056.01943,-0.00046
2054.09070,-0.00037
2052.16198,-0.00029
2050.23326,-0.00019
2048.30453,-0.00002
2046.37581,0.00019
2044.44709,0.00033
2042.51836,0.00035
2040.58964,0.00043
2038.66091,0.00066
2036.73219,0.00090
2034.80347,0.00110
2032.87474,0.00123
2030.94602,0.00131
2029.01730,0.00143
2027.08857,0.00156
2025.15985,0.00169
2023.23112,0.00185
2021.30240,0.00206
2019.37368,0.00216
2017.44495,0.00221
2015.51623,0.00243
2013.58751,0.00264
2011.65878,0.00270
2009.73006,0.00278
2007.80134,0.00290
2005.87261,0.00302
2003.94389,0.00315
2002.01516,0.00326
2000.08644,0.00331
1998.15772,0.00337
1996.22899,0.00349
1994.30027,0.00340
1992.37155,0.00315
1990.44282,0.00321
1988.51410,0.00324
1986.58538,0.00309
1984.65665,0.00296
1982.72793,0.00285
1980.79920,0.00279
1978.87048,0.00276
1976.94176,0.00269
1975.01303,0.00259
1973.08431,0.00253
1971.15559,0.00252
1969.22686,0.00233
1967.29814,0.00203
1965.36941,0.00200
1963.44069,0.00193
1961.51197,0.00171
1959.58324,0.00158
1957.65452,0.00147
1955.72580,0.00128
1953.79707,0.00115
1951.86835,0.00107
1949.93963,0.00101
1948.01090,0.00101
1946.08218,0.00103
1944.15345,0.00076
1942.22473,0.00052
1940.29601,0.00067
1938.36728,0.00058
1936.43856,0.00028
1934.50984,0.00013
1932.58111,0.00010
1930.65239,0.00008
1928.72367,0.00010
1926.79494,0.00019
1924.86622,0.00010
1922.93749,0.00011
1921.00877,0.00048
1919.08005,0.00040
1917.15132,0.00051
1915.22260,0.00121
1913.29388,0.00160
1911.36515,0.00165
1909.43643,0.00178
1907.50770,0.00221
1905.57898,0.00268
1903.65026,0.00306
1901.72153,0.00347
1899.79281,0.00387
1897.86409,0.00413
1895.93536,0.00441
1894.00664,0.00503
1892.07792,0.00550
1890.14919,0.00548
1888.22047,0.00580
1886.29174,0.00631
1884.36302,0.00649
1882.43430,0.00664
1880.50557,0.00683
1878.57685,0.00696
1876.64813,0.00709
1874.71940,0.00730
1872.79068,0.00744
1870.86196,0.00698
1868.93323,0.00637
1867.00451,0.00656
1865.07578,0.00684
1863.14706,0.00642
1861.21834,0.00572
1859.28961,0.00522
1857.36089,0.00486
1855.43217,0.00447
1853.50344,0.00406
1851.57472,0.00372
1849.64599,0.00342
1847.71727,0.00306
1845.78855,0.00222
1843.85982,0.00154
1841.93110,0.00183
1840.00238,0.00191
1838.07365,0.00129
1836.14493,0.00093
1834.21621,0.00095
1832.28748,0.00058
1830.35876,0.00000
1828.43003,0.00024
1826.50131,0.00041
1824.57259,0.00008
1822.64386,0.00010
1820.71514,0.00009
1818.78642,-0.00016
1816.85769,-0.00019
1814.92897,0.00000
1813.00025,-0.00019
1811.07152,-0.00048
1809.14280,-0.00030
1807.21407,0.00004
1805.28535,0.00018
1803.35663,0.00004
1801.42790,-0.00013
1799.49918,0.00025
1797.57046,0.00099
1795.64173,0.00121
1793.71301,0.00062
1791.78428,0.00055
1789.85556,0.00174
1787.92684,0.00250
1785.99811,0.00240
1784.06939,0.00251
1782.14067,0.00282
1780.21194,0.00326
1778.28322,0.00414
1776.35450,0.00471
1774.42577,0.00433
1772.49705,0.00393
1770.56832,0.00482
1768.63960,0.00578
1766.71088,0.00639
1764.78215,0.00671
1762.85343,0.00647
1760.92471,0.00695
1758.99598,0.00783
1757.06726,0.00830
1755.13854,0.00920
1753.20981,0.00970
1751.28109,0.00949
1749.35236,0.01010
1747.42364,0.01144
1745.49492,0.01249
1743.56619,0.01308
1741.63747,0.01355
1739.70875,0.01465
1737.78002,0.01637
1735.85130,0.01655
1733.92257,0.01659
1731.99385,0.01888
1730.06513,0.02069
1728.13640,0.02162
1726.20768,0.02249
1724.27896,0.02352
1722.35023,0.02507
1720.42151,0.02597
1718.49279,0.02601
1716.56406,0.02761
1714.63534,0.03032
1712.70661,0.03238
1710.77789,0.03372
1708.84917,0.03470
1706.92044,0.03585
1704.99172,0.03813
1703.06300,0.04040
1701.13427,0.04140
1699.20555,0.04384
1697.27683,0.04676
1695.34810,0.04915
1693.41938,0.05225
1691.49065,0.05439
1689.56193,0.05626
1687.63321,0.05842
1685.70448,0.05938
1683.77576,0.06147
1681.84704,0.06596
1679.91831,0.06914
1677.98959,0.07056
1676.06087,0.07171
1674.13214,0.07423
1672.20342,0.07667
1670.27469,0.07778
1668.34597,0.08014
1666.41725,0.08300
1664.48852,0.08406
1662.55980,0.08494
1660.63108,0.08732
1658.70235,0.08972
1656.77363,0.09038
1654.84490,0.08882
1652.91618,0.08919
1650.98746,0.09369
1649.05873,0.09501
1647.13001,0.09354
1645.20129,0.09444
1643.27256,0.09638
1641.34384,0.09716
1639.41512,0.09701
1637.48639,0.09568
1635.55767,0.09482
1633.62894,0.09625
1631.70022,0.09709
1629.77150,0.09604
1627.84277,0.09488
1625.91405,0.09395
1623.98533,0.09238
1622.05660,0.09154
1620.12788,0.09086
1618.19916,0.08806
1616.27043,0.08519
1614.34171,0.08431
1612.41298,0.08317
1610.48426,0.08096
1608.55554,0.07882
1606.62681,0.07706
1604.69809,0.07521
1602.76937,0.07314
1600.84064,0.07125
1598.91192,0.06956
1596.98319,0.06776
1595.05447,0.06595
1593.12575,0.06440
1591.19702,0.06296
1589.26830,0.06142
1587.33958,0.05982
1585.41085,0.05828
1583.48213,0.05700
1581.55341,0.05616
1579.62468,0.05512
1577.69596,0.05292
1575.76723,0.05149
1573.83851,0.05218
1571.90979,0.05163
1569.98106,0.04957
1568.05234,0.04908
1566.12362,0.04947
1564.19489,0.04982
1562.26617,0.04913
1560.33745,0.04565
1558.40872,0.04353
1556.48000,0.04540
1554.55127,0.04586
1552.62255,0.04485
1550.69383,0.04368
1548.76510,0.04313
1546.83638,0.04270
1544.90766,0.04148
1542.97893,0.03961
1541.05021,0.03692
1539.12148,0.03616
1537.19276,0.03758
1535.26404,0.03643
1533.33531,0.03396
1531.40659,0.03356
1529.47787,0.03321
1527.54914,0.03166
1525.62042,0.03028
1523.69170,0.02857
1521.76297,0.02635
1519.83425,0.02550
1517.90552,0.02436
1515.97680,0.02273
1514.04808,0.02188
1512.11935,0.02106
1510.19063,0.01921
1508.26191,0.01522
1506.33318,0.01196
1504.40446,0.01243
1502.47574,0.01254
1500.54701,0.01055
1498.61829,0.00787
1496.68956,0.00619
1494.76084,0.00625
1492.83212,0.00593
1490.90339,0.00407
1488.97467,0.00281
1487.04595,0.00302
1485.11722,0.00335
1483.18850,0.00312
1481.25977,0.00303
1479.33105,0.00363
1477.40233,0.00418
1475.47360,0.00445
1473.54488,0.00493
1471.61616,0.00697
1469.68743,0.00984
1467.75871,0.01091
1465.82999,0.01073
1463.90126,0.01183
1461.97254,0.01369
1460.04381,0.01353
1458.11509,0.01203
1456.18637,0.01283
1454.25764,0.01514
1452.32892,0.01596
1450.40020,0.01556
1448.47147,0.01512
1446.54275,0.01552
1444.61403,0.01640
1442.68530,0.01715
1440.75658,0.01788
1438.82785,0.01795
1436.89913,0.01809
1434.97041,0.02008
1433.04168,0.02204
1431.11296,0.02282
1429.18424,0.02387
1427.25551,0.02526
1425.32679,0.02601
1423.39806,0.02663
1421.46934,0.02684
1419.54062,0.02642
1417.61189,0.02754
1415.68317,0.03006
1413.75445,0.03200
1411.82572,0.03261
1409.89700,0.03239
1407.96828,0.03235
1406.03955,0.03291
1404.11083,0.03426
1402.18210,0.03543
1400.25338,0.03499
1398.32466,0.03341
1396.39593,0.03099
1394.46721,0.02807
1392.53849,0.02583
1390.60976,0.02355
1388.68104,0.02048
1386.75232,0.01791
1384.82359,0.01663
1382.89487,0.01577
1380.96614,0.01500
1379.03742,0.01442
1377.10870,0.01377
1375.17997,0.01288
1373.25125,0.01248
1371.32253,0.01231
1369.39380,0.01142
1367.46508,0.01031
1365.53635,0.00917
1363.60763,0.00779
1361.67891,0.00692
1359.75018,0.00653
1357.82146,0.00582
1355.89274,0.00487
1353.96401,0.00410
1352.03529,0.00349
1350.10657,0.00285
1348.17784,0.00230
1346.24912,0.00196
1344.32039,0.00170
1342.39167,0.00120
1340.46295,0.00047
1338.53422,0.00019
1336.60550,0.00033
1334.67678,0.00021
1332.74805,-0.00021
1330.81933,-0.00051
1328.89061,-0.00056
1326.96188,-0.00049
1325.03316,-0.00040
1323.10443,-0.00029
1321.17571,-0.00035
1319.24699,-0.00047
1317.31826,-0.00037
1315.38954,-0.00019
1313.46082,-0.00014
1311.53209,0.00000
1309.60337,0.00014
1307.67464,0.00028
1305.74592,0.00059
1303.81720,0.00098
1301.88847,0.00143
1299.95975,0.00204
1298.03103,0.00281
1296.10230,0.00370
1294.17358,0.00464
1292.24486,0.00558
1290.31613,0.00654
1288.38741,0.00770
1286.45868,0.00913
1284.52996,0.01068
1282.60124,0.01227
1280.67251,0.01407
1278.74379,0.01615
1276.81507,0.01849
1274.88634,0.02108
1272.95762,0.02388
1271.02890,0.02701
1269.10017,0.03061
1267.17145,0.03463
1265.24272,0.03910
1263.31400,0.04415
1261.38528,0.04976
1259.45655,0.05597
1257.52783,0.06282
1255.59911,0.07018
1253.67038,0.07772
1251.74166,0.08510
1249.81294,0.09227
1247.88421,0.09926
1245.95549,0.10590
1244.02676,0.11199
1242.09804,0.11752
1240.16932,0.12255
1238.24059,0.12710
1236.31187,0.13116
1234.38315,0.13481
1232.45442,0.13825
1230.52570,0.14147
1228.59697,0.14437
1226.66825,0.14692
1224.73953,0.14933
1222.81080,0.15161
1220.88208,0.15362
1218.95336,0.15548
1217.02463,0.15742
1215.09591,0.15940
1213.16719,0.16125
1211.23846,0.16295
1209.30974,0.16456
1207.38101,0.16613
1205.45229,0.16774
1203.52357,0.16931
1201.59484,0.17082
1199.66612,0.17236
1197.73740,0.17392
1195.80867,0.17531
1193.87995,0.17674
1191.95123,0.17831
1190.02250,0.17987
1188.09378,0.18140
1186.16505,0.18299
1184.23633,0.18458
1182.30761,0.18611
1180.37888,0.18758
1178.45016,0.18897
1176.52144,0.19044
1174.59271,0.19237
1172.66399,0.19458
1170.73526,0.19621
1168.80654,0.19729
1166.87782,0.19881
1164.94909,0.20072
1163.02037,0.20225
1161.09165,0.20366
1159.16292,0.20546
1157.23420,0.20737
1155.30548,0.20917
1153.37675,0.21136
1151.44803,0.21469
1149.51930,0.22014
1147.59058,0.22883
1145.66186,0.24065
1143.73313,0.25418
1141.80441,0.26763
1139.87569,0.27709
1137.94696,0.27915
1136.01824,0.27625
1134.08952,0.27228
1132.16079,0.26807
1130.23207,0.26388
1128.30334,0.26014
1126.37462,0.25643
1124.44590,0.25266
1122.51717,0.24963
1120.58845,0.24790
1118.65973,0.24749
1116.73100,0.24839
1114.80228,0.25031
1112.87355,0.25283
1110.94483,0.25587
1109.01611,0.25939
1107.08738,0.26341
1105.15866,0.26748
1103.22994,0.27111
1101.30121,0.27453
1099.37249,0.27779
1097.44377,0.28043
1095.51504,0.28226
1093.58632,0.28336
1091.65759,0.28387
1089.72887,0.28413
1087.80015,0.28419
1085.87142,0.28378
1083.94270,0.28292
1082.01398,0.28183
1080.08525,0.28046
1078.15653,0.27881
1076.22781,0.27695
1074.29908,0.27475
1072.37036,0.27262
1070.44163,0.27083
1068.51291,0.26871
1066.58419,0.26588
1064.65546,0.26250
1062.72674,0.25879
1060.79802,0.25529
1058.86929,0.25205
1056.94057,0.24832
1055.01184,0.24425
1053.08312,0.24060
1051.15440,0.23708
1049.22567,0.23289
1047.29695,0.22798
1045.36823,0.22318
1043.43950,0.21897
1041.51078,0.21475
1039.58206,0.21004
1037.65333,0.20518
1035.72461,0.20069
1033.79588,0.19654
1031.86716,0.19232
1029.93844,0.18775
1028.00971,0.18313
1026.08099,0.17886
1024.15227,0.17479
1022.22354,0.17064
1020.29482,0.16659
1018.36610,0.16302
1016.43737,0.15974
1014.50865,0.15655
1012.57992,0.15350
1010.65120,0.15041
1008.72248,0.14729
1006.79375,0.14443
1004.86503,0.14177
1002.93631,0.13924
1001.00758,0.13685
999.07886,0.13448
997.15013,0.13208
995.22141,0.12982
993.29269,0.12785
991.36396,0.12607
989.43524,0.12429
987.50652,0.12255
985.57779,0.12088
983.64907,0.11933
981.72035,0.11806
979.79162,0.11706
977.86290,0.11623
975.93417,0.11570
974.00545,0.11555
972.07673,0.11566
970.14800,0.11578
968.21928,0.11576
966.29056,0.11583
964.36183,0.11622
962.43311,0.11664
960.50439,0.11683
958.57566,0.11693
956.64694,0.11691
954.71821,0.11658
952.78949,0.11591
950.86077,0.11493
948.93204,0.11388
947.00332,0.11304
945.07460,0.11216
943.14587,0.11070
941.21715,0.10897
939.28842,0.10747
937.35970,0.10587
935.43098,0.10393
933.50225,0.10199
931.57353,0.10012
929.64481,0.09803
927.71608,0.09545
925.78736,0.09245
923.85864,0.08926
921.92991,0.08616
920.00119,0.08335
918.07246,0.08073
916.14374,0.07800
914.21502,0.07504
912.28629,0.07185
910.35757,0.06873
908.42885,0.06600
906.50012,0.06336
904.57140,0.06051
902.64268,0.05761
900.71395,0.05497
898.78523,0.05262
896.85650,0.05046
894.92778,0.04826
892.99906,0.04577
891.07033,0.04325
889.14161,0.04108
887.21289,0.03908
885.28416,0.03695
883.35544,0.03471
881.42671,0.03263
879.49799,0.03066
877.56927,0.02874
875.64054,0.02706
873.71182,0.02576
871.78310,0.02481
869.85437,0.02406
867.92565,0.02291
865.99693,0.02097
864.06820,0.01886
862.13948,0.01713
860.21075,0.01554
858.28203,0.01411
856.35331,0.01321
854.42458,0.01276
852.49586,0.01231
850.56714,0.01175
848.63841,0.01119
846.70969,0.01075
844.78097,0.01081
842.85224,0.01158
840.92352,0.01281
838.99479,0.01404
837.06607,0.01518
835.13735,0.01640
833.20862,0.01781
831.27990,0.01961
829.35118,0.02163
827.42245,0.02352
825.49373,0.02552
823.56501,0.02775
821.63628,0.02991
819.70756,0.03201
817.77883,0.03414
815.85011,0.03619
813.92139,0.03813
811.99266,0.03998
810.06394,0.04175
808.13522,0.04353
806.20649,0.04534
804.27777,0.04685
802.34904,0.04786
800.42032,0.04865
798.49160,0.04922
796.56287,0.04921
794.63415,0.04881
792.70543,0.04851
790.77670,0.04808
788.84798,0.04695
786.91926,0.04531
784.99053,0.04386
783.06181,0.04258
781.13308,0.04087
779.20436,0.03847
777.27564,0.03566
775.34691,0.03282
773.41819,0.03033
771.48947,0.02855
769.56074,0.02729
767.63202,0.02607
765.70330,0.02505
763.77457,0.02450
761.84585,0.02419
759.91712,0.02379
757.98840,0.02334
756.05968,0.02285
754.13095,0.02227
752.20223,0.02187
750.27351,0.02181
748.34478,0.02187
746.41606,0.02177
744.48733,0.02140
742.55861,0.02102
740.62989,0.02078
738.70116,0.02062
736.77244,0.02056
734.84372,0.02052
732.91499,0.02031
730.98627,0.01993
729.05755,0.01980
727.12882,0.02015
725.20010,0.02071
723.27137,0.02115
721.34265,0.02114
719.41393,0.02074
717.48520,0.02028
715.55648,0.02005
713.62776,0.02016
711.69903,0.02066
709.77031,0.02147
707.84159,0.02217
705.91286,0.02256
703.98414,0.02308
702.05541,0.02390
700.12669,0.02468
698.19797,0.02523
696.26924,0.02569
694.34052,0.02607
692.41180,0.02613
690.48307,0.02572
688.55435,0.02528
686.62562,0.02537
684.69690,0.02589
682.76818,0.02625
680.83945,0.02628
678.91073,0.02632
676.98201,0.02636
675.05328,0.02606
673.12456,0.02555
671.19584,0.02515
669.26711,0.02494
667.33839,0.02516
665.40966,0.02584
663.48094,0.02661
661.55222,0.02725
659.62349,0.02770
657.69477,0.02811
655.76605,0.02878
653.83732,0.02969
651.90860,0.03049
649.97988,0.03107
648.05115,0.03200
646.12243,0.03367
644.19370,0.03534
642.26498,0.03625
640.33626,0.03652
638.40753,0.03650
636.47881,0.03645
634.55009,0.03682
632.62136,0.03793
630.69264,0.03938
628.76391,0.04024
626.83519,0.04009
624.90647,0.04003
622.97774,0.04085
621.04902,0.04232
619.12030,0.04364
617.19157,0.04411
615.26285,0.04448
613.33413,0.04536
611.40540,0.04601
609.47668,0.04649
607.54795,0.04766
605.61923,0.04917
603.69051,0.05008
601.76178,0.05072
599.83306,0.05175
597.90434,0.05298
595.97561,0.05427
594.04689,0.05548
592.11817,0.05620
590.18944,0.05694
588.26072,0.05797
586.33199,0.05882
584.40327,0.05944
582.47455,0.05983
580.54582,0.05999
578.61710,0.06011
576.68838,0.06004
574.75965,0.06031
572.83093,0.06135
570.90220,0.06247
568.97348,0.06260
567.04476,0.06155
565.11603,0.06076
563.18731,0.06107
561.25859,0.06151
559.32986,0.06133
557.40114,0.06091
555.47242,0.06089
553.54369,0.06140
551.61497,0.06192
549.68624,0.06219
547.75752,0.06234
545.82880,0.06256
543.90007,0.06320
541.97135,0.06393
540.04263,0.06393
538.11390,0.06307
536.18518,0.06208
534.25646,0.06155
532.32773,0.06132
530.39901,0.06084
528.47028,0.06004
526.54156,0.05941
524.61284,0.05898
522.68411,0.05829
520.75539,0.05787
518.82667,0.05846
516.89794,0.05982
514.96922,0.06091
513.04049,0.06101
511.11177,0.06124
509.18305,0.06318
507.25432,0.06693
505.32560,0.07135
503.39688,0.07485
501.46815,0.07719
499.53943,0.07964
497.61071,0.08372
495.68198,0.08964
493.75326,0.09588
491.82453,0.10169
489.89581,0.10724
487.96709,0.11168
486.03836,0.11476
484.10964,0.11846
482.18092,0.12405
480.25219,0.13003
478.32347,0.13511
476.39475,0.13958
474.46602,0.14313
472.53730,0.14589
470.60857,0.14902
468.67985,0.15194
466.75113,0.15332
464.82240,0.15263
462.89368,0.15094
460.96496,0.14925
459.03623,0.14630
457.10751,0.14320
455.17878,0.14285
453.25006,0.14356
451.32134,0.14216
449.39261,0.13803
447.46389,0.13332
445.53517,0.12980
443.60644,0.12669
441.67772,0.12262
439.74900,0.11731
437.82027,0.11226
435.89155,0.10998
433.96282,0.10987
432.03410,0.10790
430.10538,0.10319
428.17665,0.09861
426.24793,0.09448
424.31921,0.08956
422.39048,0.08649
420.46176,0.08777
418.53304,0.08902
416.60431,0.08352
414.67559,0.07460
412.74686,0.06924
410.81814,0.06591
408.88942,0.05911
406.96069,0.05096
405.03197,0.04706
403.10325,0.04783
401.17452,0.04950
399.24580,0.04643
397.31708,0.03688
395.38835,0.02762
393.45963,0.02253
391.53090,0.02187
389.60218,0.02568
387.67346,0.03178
385.74473,0.03465
383.81601,0.02908
381.88729,0.01470
379.95856,0.00000
378.02984,-0.00865
376.10111,0.01734
374.17239,0.05774
372.24367,0.06880
370.31494,0.04560
368.38622,0.00000
