3996.31543,-0.00013
3994.38671,-0.00009
3992.45799,0.00012
3990.52926,0.00033
3988.60054,0.00037
3986.67182,0.00030
3984.74309,0.00016
3982.81437,0.00002
3980.88564,0.00000
3978.95692,0.00020
3977.02820,0.00054
3975.09947,0.00076
3973.17075,0.00082
3971.24203,0.00086
3969.31330,0.00090
3967.38458,0.00088
3965.45586,0.00085
3963.52713,0.00089
3961.59841,0.00103
3959.66968,0.00119
3957.74096,0.00124
3955.81224,0.00120
3953.88351,0.00129
3951.95479,0.00150
3950.02607,0.00153
3948.09734,0.00129
3946.16862,0.00120
3944.23990,0.00128
3942.31117,0.00111
3940.38245,0.00085
3938.45372,0.00091
3936.52500,0.00125
3934.59628,0.00161
3932.66755,0.00172
3930.73883,0.00164
3928.81011,0.00171
3926.88138,0.00191
3924.95266,0.00192
3923.02393,0.00184
3921.09521,0.00195
3919.16649,0.00199
3917.23776,0.00162
3915.30904,0.00126
3913.38032,0.00128
3911.45159,0.00152
3909.52287,0.00198
3907.59415,0.00278
3905.66542,0.00337
3903.73670,0.00297
3901.80797,0.00188
3899.87925,0.00096
3897.95053,0.00069
3896.02180,0.00125
3894.09308,0.00199
3892.16436,0.00200
3890.23563,0.00168
3888.30691,0.00194
3886.37819,0.00224
3884.44946,0.00206
3882.52074,0.00182
3880.59201,0.00148
3878.66329,0.00128
3876.73457,0.00179
3874.80584,0.00241
3872.87712,0.00251
3870.94840,0.00215
3869.01967,0.00169
3867.09095,0.00179
3865.16222,0.00204
3863.23350,0.00165
3861.30478,0.00128
3859.37605,0.00180
3857.44733,0.00298
3855.51861,0.00362
3853.58988,0.00231
3851.66116,0.00023
3849.73244,0.00000
3847.80371,0.00114
3845.87499,0.00243
3843.94626,0.00336
3842.01754,0.00388
3840.08882,0.00364
3838.16009,0.00240
3836.23137,0.00122
3834.30265,0.00109
3832.37392,0.00153
3830.44520,0.00197
3828.51648,0.00230
3826.58775,0.00255
3824.65903,0.00299
3822.73030,0.00325
3820.80158,0.00251
3818.87286,0.00163
3816.94413,0.00139
3815.01541,0.00126
3813.08669,0.00160
3811.15796,0.00263
3809.22924,0.00355
3807.30052,0.00359
3805.37179,0.00337
3803.44307,0.00358
3801.51434,0.00339
3799.58562,0.00286
3797.65690,0.00287
3795.72817,0.00310
3793.79945,0.00338
3791.87073,0.00375
3789.94200,0.00410
3788.01328,0.00440
3786.08455,0.00466
3784.15583,0.00491
3782.22711,0.00525
3780.29838,0.00537
3778.36966,0.00513
3776.44094,0.00522
3774.51221,0.00590
3772.58349,0.00665
3770.65477,0.00683
3768.72604,0.00645
3766.79732,0.00613
3764.86859,0.00628
3762.93987,0.00699
3761.01115,0.00782
3759.08242,0.00817
3757.15370,0.00843
3755.22498,0.00935
3753.29625,0.01045
3751.36753,0.01054
3749.43881,0.00987
3747.51008,0.00997
3745.58136,0.01046
3743.65263,0.01079
3741.72391,0.01193
3739.79519,0.01408
3737.86646,0.01610
3735.93774,0.01696
3734.00902,0.01691
3732.08029,0.01745
3730.15157,0.01917
3728.22284,0.02147
3726.29412,0.02357
3724.36540,0.02525
3722.43667,0.02695
3720.50795,0.02882
3718.57923,0.03088
3716.65050,0.03339
3714.72178,0.03641
3712.79306,0.03937
3710.86433,0.04165
3708.93561,0.04387
3707.00688,0.04688
3705.07816,0.05052
3703.14944,0.05413
3701.22071,0.05727
3699.29199,0.06025
3697.36327,0.06353
3695.43454,0.06711
3693.50582,0.07074
3691.57710,0.07420
3689.64837,0.07726
3687.71965,0.08030
3685.79092,0.08396
3683.86220,0.08818
3681.93348,0.09263
3680.00475,0.09715
3678.07603,0.10165
3676.14731,0.10598
3674.21858,0.10988
3672.28986,0.11367
3670.36113,0.11752
3668.43241,0.12128
3666.50369,0.12517
3664.57496,0.12921
3662.64624,0.13303
3660.71752,0.13657
3658.78879,0.14008
3656.86007,0.14356
3654.93135,0.14697
3653.00262,0.15044
3651.07390,0.15371
3649.14517,0.15602
3647.21645,0.15787
3645.28773,0.16045
3643.35900,0.16363
3641.43028,0.16677
3639.50156,0.16962
3637.57283,0.17229
3635.64411,0.17485
3633.71539,0.17729
3631.78666,0.17961
3629.85794,0.18151
3627.92921,0.18288
3626.00049,0.18467
3624.07177,0.18718
3622.14304,0.18964
3620.21432,0.19131
3618.28560,0.19239
3616.35687,0.19385
3614.42815,0.19578
3612.49942,0.19751
3610.57070,0.19885
3608.64198,0.20004
3606.71325,0.20136
3604.78453,0.20309
3602.85581,0.20508
3600.92708,0.20693
3598.99836,0.20860
3597.06964,0.21020
3595.14091,0.21169
3593.21219,0.21315
3591.28346,0.21482
3589.35474,0.21639
3587.42602,0.21730
3585.49729,0.21797
3583.56857,0.21922
3581.63985,0.22086
3579.71112,0.22239
3577.78240,0.22371
3575.85368,0.22498
3573.92495,0.22636
3571.99623,0.22795
3570.06750,0.22951
3568.13878,0.23038
3566.21006,0.23054
3564.28133,0.23108
3562.35261,0.23235
3560.42389,0.23381
3558.49516,0.23522
3556.56644,0.23661
3554.63771,0.23780
3552.70899,0.23876
3550.78027,0.23981
3548.85154,0.24108
3546.92282,0.24224
3544.99410,0.24310
3543.06537,0.24395
3541.13665,0.24499
3539.20793,0.24609
3537.27920,0.24705
3535.35048,0.24791
3533.42175,0.24882
3531.49303,0.24983
3529.56431,0.25079
3527.63558,0.25165
3525.70686,0.25247
3523.77814,0.25328
3521.84941,0.25410
3519.92069,0.25503
3517.99197,0.25599
3516.06324,0.25683
3514.13452,0.25765
3512.20579,0.25848
3510.27707,0.25910
3508.34835,0.25966
3506.41962,0.26046
3504.49090,0.26135
3502.56218,0.26214
3500.63345,0.26296
3498.70473,0.26398
3496.77600,0.26508
3494.84728,0.26606
3492.91856,0.26681
3490.98983,0.26735
3489.06111,0.26784
3487.13239,0.26844
3485.20366,0.26911
3483.27494,0.26963
3481.34622,0.26996
3479.41749,0.27039
3477.48877,0.27109
3475.56004,0.27176
3473.63132,0.27232
3471.70260,0.27300
3469.77387,0.27377
3467.84515,0.27432
3465.91643,0.27462
3463.98770,0.27485
3462.05898,0.27511
3460.13026,0.27556
3458.20153,0.27623
3456.27281,0.27686
3454.34408,0.27748
3452.41536,0.27811
3450.48664,0.27851
3448.55791,0.27865
3446.62919,0.27887
3444.70047,0.27928
3442.77174,0.27963
3440.84302,0.27990
3438.91429,0.28020
3436.98557,0.28047
3435.05685,0.28069
3433.12812,0.28096
3431.19940,0.28128
3429.27068,0.28157
3427.34195,0.28181
3425.41323,0.28201
3423.48451,0.28220
3421.55578,0.28233
3419.62706,0.28234
3417.69833,0.28238
3415.76961,0.28263
3413.84089,0.28286
3411.91216,0.28284
3409.98344,0.28283
3408.05472,0.28303
3406.12599,0.28338
3404.19727,0.28364
3402.26855,0.28369
3400.33982,0.28355
3398.41110,0.28335
3396.48237,0.28342
3394.55365,0.28354
3392.62493,0.28335
3390.69620,0.28295
3388.76748,0.28276
3386.83876,0.28290
3384.91003,0.28304
3382.98131,0.28299
3381.05259,0.28281
3379.12386,0.28262
3377.19514,0.28249
3375.26641,0.28249
3373.33769,0.28252
3371.40897,0.28238
3369.48024,0.28216
3367.55152,0.28201
3365.62280,0.28185
3363.69407,0.28160
3361.76535,0.28132
3359.83662,0.28115
3357.90790,0.28100
3355.97918,0.28061
3354.05045,0.28013
3352.12173,0.27987
3350.19301,0.27979
3348.26428,0.27977
3346.33556,0.27969
3344.40684,0.27940
3342.47811,0.27893
3340.54939,0.27842
3338.62066,0.27788
3336.69194,0.27735
3334.76322,0.27692
3332.83449,0.27663
3330.90577,0.27639
3328.97705,0.27613
3327.04832,0.27587
3325.11960,0.27570
3323.19088,0.27555
3321.26215,0.27526
3319.33343,0.27483
3317.40470,0.27445
3315.47598,0.27407
3313.54726,0.27365
3311.61853,0.27337
3309.68981,0.27317
3307.76109,0.27295
3305.83236,0.27278
3303.90364,0.27257
3301.97491,0.27214
3300.04619,0.27166
3298.11747,0.27137
3296.18874,0.27122
3294.26002,0.27100
3292.33130,0.27061
3290.40257,0.27007
3288.47385,0.26946
3286.54513,0.26895
3284.61640,0.26863
3282.68768,0.26844
3280.75895,0.26820
3278.83023,0.26787
3276.90151,0.26749
3274.97278,0.26704
3273.04406,0.26663
3271.11534,0.26639
3269.18661,0.26623
3267.25789,0.26593
3265.32917,0.26540
3263.40044,0.26476
3261.47172,0.26413
3259.54299,0.26353
3257.61427,0.26298
3255.68555,0.26253
3253.75682,0.26215
3251.82810,0.26184
3249.89938,0.26149
3247.97065,0.26099
3246.04193,0.26036
3244.11320,0.25974
3242.18448,0.25926
3240.25576,0.25886
3238.32703,0.25832
3236.39831,0.25760
3234.46959,0.25695
3232.54086,0.25648
3230.61214,0.25608
3228.68342,0.25566
3226.75469,0.25517
3224.82597,0.25462
3222.89724,0.25407
3220.96852,0.25348
3219.03980,0.25278
3217.11107,0.25207
3215.18235,0.25141
3213.25363,0.25076
3211.32490,0.25011
3209.39618,0.24950
3207.46746,0.24887
3205.53873,0.24810
3203.61001,0.24727
3201.68128,0.24655
3199.75256,0.24582
3197.82384,0.24496
3195.89511,0.24409
3193.96639,0.24333
3192.03767,0.24263
3190.10894,0.24189
3188.18022,0.24101
3186.25149,0.24014
3184.32277,0.23947
3182.39405,0.23889
3180.46532,0.23810
3178.53660,0.23704
3176.60788,0.23599
3174.67915,0.23521
3172.75043,0.23461
3170.82171,0.23394
3168.89298,0.23311
3166.96426,0.23225
3165.03553,0.23138
3163.10681,0.23043
3161.17809,0.22943
3159.24936,0.22851
3157.32064,0.22769
3155.39192,0.22697
3153.46319,0.22633
3151.53447,0.22552
3149.60575,0.22440
3147.67702,0.22321
3145.74830,0.22228
3143.81957,0.22160
3141.89085,0.22085
3139.96213,0.21995
3138.03340,0.21909
3136.10468,0.21830
3134.17596,0.21741
3132.24723,0.21643
3130.31851,0.21553
3128.38978,0.21475
3126.46106,0.21398
3124.53234,0.21315
3122.60361,0.21223
3120.67489,0.21129
3118.74617,0.21043
3116.81744,0.20959
3114.88872,0.20868
3112.96000,0.20770
3111.03127,0.20669
3109.10255,0.20571
3107.17382,0.20475
3105.24510,0.20380
3103.31638,0.20287
3101.38765,0.20193
3099.45893,0.20097
3097.53021,0.20002
3095.60148,0.19902
3093.67276,0.19801
3091.74404,0.19711
3089.81531,0.19622
3087.88659,0.19510
3085.95786,0.19384
3084.02914,0.19274
3082.10042,0.19188
3080.17169,0.19104
3078.24297,0.19011
3076.31425,0.18913
3074.38552,0.18812
3072.45680,0.18711
3070.52807,0.18610
3068.59935,0.18507
3066.67063,0.18399
3064.74190,0.18291
3062.81318,0.18190
3060.88446,0.18096
3058.95573,0.18001
3057.02701,0.17896
3055.09829,0.17782
3053.16956,0.17673
3051.24084,0.17573
3049.31211,0.17478
3047.38339,0.17388
3045.45467,0.17297
3043.52594,0.17201
3041.59722,0.17106
3039.66850,0.17016
3037.73977,0.16924
3035.81105,0.16833
3033.88233,0.16745
3031.95360,0.16650
3030.02488,0.16545
3028.09615,0.16443
3026.16743,0.16350
3024.23871,0.16260
3022.30998,0.16171
3020.38126,0.16089
3018.45254,0.16017
3016.52381,0.15946
3014.59509,0.15866
3012.66636,0.15781
3010.73764,0.15704
3008.80892,0.15634
3006.88019,0.15562
3004.95147,0.15494
3003.02275,0.15437
3001.09402,0.15377
2999.16530,0.15314
2997.23658,0.15256
2995.30785,0.15202
2993.37913,0.15142
2991.45040,0.15082
2989.52168,0.15029
2987.59296,0.14987
2985.66423,0.14964
2983.73551,0.14953
2981.80679,0.14946
2979.87806,0.14940
2977.94934,0.14949
2976.02062,0.14972
2974.09189,0.14980
2972.16317,0.14981
2970.23444,0.15004
2968.30572,0.15037
2966.37700,0.15065
2964.44827,0.15080
2962.51955,0.15085
2960.59083,0.15081
2958.66210,0.15070
2956.73338,0.15038
2954.80466,0.14989
2952.87593,0.14938
2950.94721,0.14889
2949.01848,0.14846
2947.08976,0.14826
2945.16104,0.14834
2943.23231,0.14865
2941.30359,0.14925
2939.37487,0.15012
2937.44614,0.15108
2935.51742,0.15201
2933.58869,0.15297
2931.65997,0.15385
2929.73125,0.15445
2927.80252,0.15461
2925.87380,0.15424
2923.94508,0.15330
2922.01635,0.15180
2920.08763,0.14981
2918.15891,0.14736
2916.23018,0.14457
2914.30146,0.14171
2912.37273,0.13912
2910.44401,0.13690
2908.51529,0.13492
2906.58656,0.13314
2904.65784,0.13156
2902.72912,0.13006
2900.80039,0.12852
2898.87167,0.12708
2896.94295,0.12575
2895.01422,0.12440
2893.08550,0.12304
2891.15677,0.12174
2889.22805,0.12044
2887.29933,0.11913
2885.37060,0.11800
2883.44188,0.11716
2881.51316,0.11641
2879.58443,0.11560
2877.65571,0.11489
2875.72698,0.11442
2873.79826,0.11405
2871.86954,0.11356
2869.94081,0.11291
2868.01209,0.11225
2866.08337,0.11174
2864.15464,0.11152
2862.22592,0.11167
2860.29720,0.11206
2858.36847,0.11259
2856.43975,0.11313
2854.51102,0.11331
2852.58230,0.11260
2850.65358,0.11068
2848.72485,0.10775
2846.79613,0.10440
2844.86741,0.10120
2842.93868,0.09842
2841.00996,0.09608
2839.08124,0.09409
2837.15251,0.09238
2835.22379,0.09085
2833.29506,0.08942
2831.36634,0.08814
2829.43762,0.08702
2827.50889,0.08600
2825.58017,0.08505
2823.65145,0.08413
2821.72272,0.08319
2819.79400,0.08229
2817.86527,0.08144
2815.93655,0.08061
2814.00783,0.07977
2812.07910,0.07896
2810.15038,0.07816
2808.22166,0.07736
2806.29293,0.07663
2804.36421,0.07593
2802.43549,0.07513
2800.50676,0.07428
2798.57804,0.07355
2796.64931,0.07295
2794.72059,0.07232
2792.79187,0.07162
2790.86314,0.07089
2788.93442,0.07020
2787.00570,0.06957
2785.07697,0.06897
2783.14825,0.06830
2781.21953,0.06757
2779.29080,0.06686
2777.36208,0.06622
2775.43335,0.06566
2773.50463,0.06511
2771.57591,0.06451
2769.64718,0.06388
2767.71846,0.06323
2765.78974,0.06260
2763.86101,0.06204
2761.93229,0.06146
2760.00356,0.06080
2758.07484,0.06015
2756.14612,0.05960
2754.21739,0.05910
2752.28867,0.05862
2750.35995,0.05811
2748.43122,0.05752
2746.50250,0.05686
2744.57378,0.05627
2742.64505,0.05583
2740.71633,0.05545
2738.78760,0.05497
2736.85888,0.05434
2734.93016,0.05368
2733.00143,0.05309
2731.07271,0.05256
2729.14399,0.05209
2727.21526,0.05166
2725.28654,0.05119
2723.35782,0.05070
2721.42909,0.05017
2719.50037,0.04959
2717.57164,0.04901
2715.64292,0.04850
2713.71420,0.04799
2711.78547,0.04744
2709.85675,0.04686
2707.92803,0.04630
2705.99930,0.04578
2704.07058,0.04530
2702.14185,0.04488
2700.21313,0.04451
2698.28441,0.04411
2696.35568,0.04362
2694.42696,0.04311
2692.49824,0.04266
2690.56951,0.04226
2688.64079,0.04183
2686.71207,0.04132
2684.78334,0.04077
2682.85462,0.04025
2680.92589,0.03982
2678.99717,0.03943
2677.06845,0.03901
2675.13972,0.03856
2673.21100,0.03810
2671.28228,0.03763
2669.35355,0.03722
2667.42483,0.03689
2665.49611,0.03653
2663.56738,0.03608
2661.63866,0.03560
2659.70993,0.03517
2657.78121,0.03475
2655.85249,0.03430
2653.92376,0.03384
2651.99504,0.03343
2650.06632,0.03303
2648.13759,0.03258
2646.20887,0.03215
2644.28014,0.03179
2642.35142,0.03145
2640.42270,0.03113
2638.49397,0.03081
2636.56525,0.03044
2634.63653,0.03000
2632.70780,0.02958
2630.77908,0.02929
2628.85036,0.02906
2626.92163,0.02877
2624.99291,0.02834
2623.06418,0.02785
2621.13546,0.02742
2619.20674,0.02706
2617.27801,0.02672
2615.34929,0.02639
2613.42057,0.02609
2611.49184,0.02579
2609.56312,0.02546
2607.63440,0.02513
2605.70567,0.02480
2603.77695,0.02440
2601.84822,0.02396
2599.91950,0.02362
2597.99078,0.02335
2596.06205,0.02308
2594.13333,0.02278
2592.20461,0.02246
2590.27588,0.02210
2588.34716,0.02174
2586.41843,0.02145
2584.48971,0.02128
2582.56099,0.02116
2580.63226,0.02097
2578.70354,0.02064
2576.77482,0.02027
2574.84609,0.01994
2572.91737,0.01959
2570.98865,0.01920
2569.05992,0.01887
2567.13120,0.01868
2565.20247,0.01861
2563.27375,0.01850
2561.34503,0.01826
2559.41630,0.01793
2557.48758,0.01763
2555.55886,0.01739
2553.63013,0.01718
2551.70141,0.01695
2549.77269,0.01671
2547.84396,0.01650
2545.91524,0.01631
2543.98651,0.01610
2542.05779,0.01589
2540.12907,0.01567
2538.20034,0.01541
2536.27162,0.01517
2534.34290,0.01498
2532.41417,0.01477
2530.48545,0.01456
2528.55673,0.01441
2526.62800,0.01427
2524.69928,0.01406
2522.77055,0.01384
2520.84183,0.01368
2518.91311,0.01348
2516.98438,0.01323
2515.05566,0.01302
2513.12694,0.01285
2511.19821,0.01268
2509.26949,0.01251
2507.34076,0.01233
2505.41204,0.01212
2503.48332,0.01191
2501.55459,0.01175
2499.62587,0.01161
2497.69715,0.01146
2495.76842,0.01126
2493.83970,0.01102
2491.91098,0.01080
2489.98225,0.01066
2488.05353,0.01057
2486.12480,0.01044
2484.19608,0.01030
2482.26736,0.01018
2480.33863,0.01001
2478.40991,0.00978
2476.48119,0.00952
2474.55246,0.00930
2472.62374,0.00913
2470.69502,0.00904
2468.76629,0.00895
2466.83757,0.00878
2464.90884,0.00854
2462.98012,0.00831
2461.05140,0.00818
2459.12267,0.00808
2457.19395,0.00797
2455.26523,0.00780
2453.33650,0.00757
2451.40778,0.00737
2449.47905,0.00722
2447.55033,0.00704
2445.62161,0.00687
2443.69288,0.00676
2441.76416,0.00665
2439.83544,0.00647
2437.90671,0.00629
2435.97799,0.00616
2434.04927,0.00606
2432.12054,0.00596
2430.19182,0.00578
2428.26309,0.00556
2426.33437,0.00538
2424.40565,0.00527
2422.47692,0.00516
2420.54820,0.00501
2418.61948,0.00486
2416.69075,0.00474
2414.76203,0.00464
2412.83331,0.00453
2410.90458,0.00441
2408.97586,0.00426
2407.04713,0.00412
2405.11841,0.00401
2403.18969,0.00391
2401.26096,0.00381
2399.33224,0.00368
2397.40352,0.00354
2395.47479,0.00341
2393.54607,0.00331
2391.61734,0.00320
2389.68862,0.00312
2387.75990,0.00309
2385.83117,0.00308
2383.90245,0.00310
2381.97373,0.00320
2380.04500,0.00338
2378.11628,0.00351
2376.18756,0.00353
2374.25883,0.00346
2372.33011,0.00342
2370.40138,0.00350
2368.47266,0.00360
2366.54394,0.00352
2364.61521,0.00334
2362.68649,0.00344
2360.75777,0.00373
2358.82904,0.00380
2356.90032,0.00341
2354.97160,0.00274
2353.04287,0.00216
2351.11415,0.00204
2349.18542,0.00240
2347.25670,0.00286
2345.32798,0.00306
2343.39925,0.00295
2341.47053,0.00269
2339.54181,0.00239
2337.61308,0.00214
2335.68436,0.00209
2333.75563,0.00220
2331.82691,0.00225
2329.89819,0.00209
2327.96946,0.00187
2326.04074,0.00167
2324.11202,0.00144
2322.18329,0.00111
2320.25457,0.00083
2318.32585,0.00074
2316.39712,0.00082
2314.46840,0.00089
2312.53967,0.00083
2310.61095,0.00066
2308.68223,0.00047
2306.75350,0.00036
2304.82478,0.00032
2302.89606,0.00031
2300.96733,0.00028
2299.03861,0.00023
2297.10989,0.00017
2295.18116,0.00013
2293.25244,0.00015
2291.32371,0.00016
2289.39499,0.00010
2287.46627,0.00003
2285.53754,-0.00001
2283.60882,0.00001
2281.68010,0.00009
2279.75137,0.00017
2277.82265,0.00017
2275.89392,0.00007
2273.96520,-0.00002
2272.03648,-0.00003
2270.10775,-0.00002
2268.17903,0.00002
2266.25031,0.00005
2264.32158,0.00004
2262.39286,0.00000
2260.46414,-0.00003
2258.53541,-0.00004
2256.60669,-0.00004
2254.67796,-0.00002
2252.74924,0.00001
2250.82052,0.00002
2248.89179,0.00001
2246.96307,-0.00001
2245.03435,-0.00001
2243.10562,-0.00001
2241.17690,-0.00001
2239.24818,-0.00002
2237.31945,-0.00005
2235.39073,-0.00007
2233.46200,-0.00004
2231.53328,0.00003
2229.60456,0.00008
2227.67583,0.00008
2225.74711,0.00003
2223.81839,0.00004
2221.88966,0.00012
2219.96094,0.00013
2218.03221,0.00005
2216.10349,-0.00008
2214.17477,-0.00017
2212.24604,-0.00017
2210.31732,-0.00010
2208.38860,-0.00004
2206.45987,0.00000
2204.53115,0.00002
2202.60243,0.00006
2200.67370,0.00010
2198.74498,0.00016
2196.81625,0.00020
2194.88753,0.00017
2192.95881,0.00010
2191.03008,0.00009
2189.10136,0.00013
2187.17264,0.00016
2185.24391,0.00017
2183.31519,0.00015
2181.38647,0.00015
2179.45774,0.00018
2177.52902,0.00019
2175.60029,0.00019
2173.67157,0.00018
2171.74285,0.00024
2169.81412,0.00035
2167.88540,0.00042
2165.95668,0.00041
2164.02795,0.00035
2162.09923,0.00032
2160.17050,0.00038
2158.24178,0.00039
2156.31306,0.00032
2154.38433,0.00032
2152.45561,0.00041
2150.52689,0.00045
2148.59816,0.00040
2146.66944,0.00034
2144.74072,0.00034
2142.81199,0.00038
2140.88327,0.00041
2138.95454,0.00039
2137.02582,0.00038
2135.09710,0.00042
2133.16837,0.00047
2131.23965,0.00053
2129.31093,0.00056
2127.38220,0.00056
2125.45348,0.00056
2123.52476,0.00055
2121.59603,0.00049
2119.66731,0.00043
2117.73858,0.00038
2115.80986,0.00032
2113.88114,0.00028
2111.95241,0.00029
2110.02369,0.00032
2108.09497,0.00028
2106.16624,0.00020
2104.23752,0.00017
2102.30880,0.00018
2100.38007,0.00014
2098.45135,0.00008
2096.52262,0.00002
2094.59390,0.00000
2092.66518,-0.00003
2090.73645,-0.00004
2088.80773,-0.00009
2086.87901,-0.00019
2084.95028,-0.00031
2083.02156,-0.00041
2081.09283,-0.00044
2079.16411,-0.00044
2077.23539,-0.00047
2075.30666,-0.00051
2073.37794,-0.00055
2071.44922,-0.00057
2069.52049,-0.00054
2067.59177,-0.00047
2065.66305,-0.00045
2063.73432,-0.00049
2061.80560,-0.00047
2059.87687,-0.00041
2057.94815,-0.00038
2056.01943,-0.00037
2054.09070,-0.00025
2052.16198,-0.00005
2050.23326,0.00010
2048.30453,0.00019
2046.37581,0.00026
2044.44709,0.00041
2042.51836,0.00063
2040.58964,0.00085
2038.66091,0.00106
2036.73219,0.00127
2034.80347,0.00151
2032.87474,0.00178
2030.94602,0.00205
2029.01730,0.00225
2027.08857,0.00240
2025.15985,0.00252
2023.23112,0.00267
2021.30240,0.00289
2019.37368,0.00317
2017.44495,0.00336
2015.51623,0.00344
2013.58751,0.00356
2011.65878,0.00374
2009.73006,0.00385
2007.80134,0.00392
2005.87261,0.00404
2003.94389,0.00419
2002.01516,0.00428
2000.08644,0.00430
1998.15772,0.00432
1996.22899,0.00440
1994.30027,0.00444
1992.37155,0.00431
1990.44282,0.00411
1988.51410,0.00401
1986.58538,0.00397
1984.65665,0.00394
1982.72793,0.00393
1980.79920,0.00391
1978.87048,0.00383
1976.94176,0.00374
1975.01303,0.00368
1973.08431,0.00363
1971.15559,0.00350
1969.22686,0.00324
1967.29814,0.00290
1965.36941,0.00264
1963.44069,0.00251
1961.51197,0.00236
1959.58324,0.00219
1957.65452,0.00206
1955.72580,0.00192
1953.79707,0.00171
1951.86835,0.00153
1949.93963,0.00142
1948.01090,0.00136
1946.08218,0.00129
1944.15345,0.00107
1942.22473,0.00070
1940.29601,0.00047
1938.36728,0.00051
1936.43856,0.00058
1934.50984,0.00051
1932.58111,0.00036
1930.65239,0.00022
1928.72367,0.00021
1926.79494,0.00038
1924.86622,0.00059
1922.93749,0.00064
1921.00877,0.00066
1919.08005,0.00078
1917.15132,0.00092
1915.22260,0.00118
1913.29388,0.00162
1911.36515,0.00213
1909.43643,0.00260
1907.50770,0.00307
1905.57898,0.00357
1903.65026,0.00410
1901.72153,0.00464
1899.79281,0.00520
1897.86409,0.00574
1895.93536,0.00621
1894.00664,0.00665
1892.07792,0.00714
1890.14919,0.00757
1888.22047,0.00786
1886.29174,0.00816
1884.36302,0.00851
1882.43430,0.00880
1880.50557,0.00902
1878.57685,0.00919
1876.64813,0.00930
1874.71940,0.00942
1872.79068,0.00961
1870.86196,0.00965
1868.93323,0.00923
1867.00451,0.00854
1865.07578,0.00808
1863.14706,0.00786
1861.21834,0.00756
1859.28961,0.00709
1857.36089,0.00649
1855.43217,0.00587
1853.50344,0.00527
1851.57472,0.00475
1849.64599,0.00435
1847.71727,0.00396
1845.78855,0.00334
1843.85982,0.00244
1841.93110,0.00176
1840.00238,0.00153
1838.07365,0.00136
1836.14493,0.00108
1834.21621,0.00089
1832.28748,0.00082
1830.35876,0.00056
1828.43003,0.00019
1826.50131,0.00000
1824.57259,-0.00014
1822.64386,-0.00021
1820.71514,-0.00016
1818.78642,-0.00013
1816.85769,-0.00013
1814.92897,0.00000
1813.00025,0.00004
1811.07152,-0.00006
1809.14280,-0.00026
1807.21407,-0.00029
1805.28535,-0.00012
1803.35663,0.00007
1801.42790,0.00014
1799.49918,0.00020
1797.57046,0.00045
1795.64173,0.00087
1793.71301,0.00119
1791.78428,0.00128
1789.85556,0.00152
1787.92684,0.00211
1785.99811,0.00281
1784.06939,0.00341
1782.14067,0.00398
1780.21194,0.00455
1778.28322,0.00519
1776.35450,0.00596
1774.42577,0.00677
1772.49705,0.00731
1770.56832,0.00759
1768.63960,0.00800
1766.71088,0.00875
1764.78215,0.00968
1762.85343,0.01047
1760.92471,0.01102
1758.99598,0.01161
1757.06726,0.01241
1755.13854,0.01335
1753.20981,0.01434
1751.28109,0.01527
1749.35236,0.01617
1747.42364,0.01730
1745.49492,0.01866
1743.56619,0.02011
1741.63747,0.02155
1739.70875,0.02301
1737.78002,0.02457
1735.85130,0.02616
1733.92257,0.02765
1731.99385,0.02914
1730.06513,0.03078
1728.13640,0.03248
1726.20768,0.03410
1724.27896,0.03572
1722.35023,0.03737
1720.42151,0.03905
1718.49279,0.04063
1716.56406,0.04195
1714.63534,0.04328
1712.70661,0.04483
1710.77789,0.04663
1708.84917,0.04862
1706.92044,0.05071
1704.99172,0.05276
1703.06300,0.05493
1701.13427,0.05747
1699.20555,0.06027
1697.27683,0.06315
1695.34810,0.06632
1693.41938,0.06954
1691.49065,0.07261
1689.56193,0.07568
1687.63321,0.07873
1685.70448,0.08193
1683.77576,0.08548
1681.84704,0.08885
1679.91831,0.09188
1677.98959,0.09482
1676.06087,0.09789
1674.13214,0.10106
1672.20342,0.10414
1670.27469,0.10719
1668.34597,0.11007
1666.41725,0.11260
1664.48852,0.11498
1662.55980,0.11728
1660.63108,0.11932
1658.70235,0.12116
1656.77363,0.12291
1654.84490,0.12437
1652.91618,0.12531
1650.98746,0.12622
1649.05873,0.12749
1647.13001,0.12873
1645.20129,0.12962
1643.27256,0.13048
1641.34384,0.13143
1639.41512,0.13232
1637.48639,0.13269
1635.55767,0.13217
1633.62894,0.13143
1631.70022,0.13122
1629.77150,0.13108
1627.84277,0.13044
1625.91405,0.12920
1623.98533,0.12739
1622.05660,0.12529
1620.12788,0.12348
1618.19916,0.12132
1616.27043,0.11806
1614.34171,0.11492
1612.41298,0.11267
1610.48426,0.11050
1608.55554,0.10791
1606.62681,0.10517
1604.69809,0.10253
1602.76937,0.09993
1600.84064,0.09744
1598.91192,0.09516
1596.98319,0.09301
1595.05447,0.09078
1593.12575,0.08846
1591.19702,0.08617
1589.26830,0.08398
1587.33958,0.08188
1585.41085,0.07980
1583.48213,0.07775
1581.55341,0.07594
1579.62468,0.07447
1577.69596,0.07276
1575.76723,0.07042
1573.83851,0.06857
1571.90979,0.06763
1569.98106,0.06667
1568.05234,0.06535
1566.12362,0.06421
1564.19489,0.06352
1562.26617,0.06328
1560.33745,0.06255
1558.40872,0.06042
1556.48000,0.05863
1554.55127,0.05802
1552.62255,0.05762
1550.69383,0.05694
1548.76510,0.05610
1546.83638,0.05539
1544.90766,0.05469
1542.97893,0.05337
1541.05021,0.05093
1539.12148,0.04814
1537.19276,0.04671
1535.26404,0.04603
1533.33531,0.04473
1531.40659,0.04307
1529.47787,0.04175
1527.54914,0.04041
1525.62042,0.03871
1523.69170,0.03671
1521.76297,0.03417
1519.83425,0.03166
1517.90552,0.02979
1515.97680,0.02804
1514.04808,0.02638
1512.11935,0.02510
1510.19063,0.02383
1508.26191,0.02135
1506.33318,0.01746
1504.40446,0.01479
1502.47574,0.01376
1500.54701,0.01280
1498.61829,0.01108
1496.68956,0.00888
1494.76084,0.00729
1492.83212,0.00657
1490.90339,0.00584
1488.97467,0.00460
1487.04595,0.00368
1485.11722,0.00353
1483.18850,0.00379
1481.25977,0.00420
1479.33105,0.00485
1477.40233,0.00583
1475.47360,0.00715
1473.54488,0.00897
1471.61616,0.01130
1469.68743,0.01355
1467.75871,0.01540
1465.82999,0.01678
1463.90126,0.01773
1461.97254,0.01859
1460.04381,0.01953
1458.11509,0.02009
1456.18637,0.02004
1454.25764,0.02010
1452.32892,0.02049
1450.40020,0.02092
1448.47147,0.02118
1446.54275,0.02133
1444.61403,0.02161
1442.68530,0.02201
1440.75658,0.02238
1438.82785,0.02252
1436.89913,0.02247
1434.97041,0.02258
1433.04168,0.02304
1431.11296,0.02361
1429.18424,0.02413
1427.25551,0.02466
1425.32679,0.02522
1423.39806,0.02577
1421.46934,0.02625
1419.54062,0.02664
1417.61189,0.02711
1415.68317,0.02792
1413.75445,0.02892
1411.82572,0.02983
1409.89700,0.03061
1407.96828,0.03136
1406.03955,0.03209
1404.11083,0.03263
1402.18210,0.03286
1400.25338,0.03246
1398.32466,0.03117
1396.39593,0.02915
1394.46721,0.02692
1392.53849,0.02506
1390.60976,0.02364
1388.68104,0.02216
1386.75232,0.02045
1384.82359,0.01905
1382.89487,0.01822
1380.96614,0.01761
1379.03742,0.01691
1377.10870,0.01604
1375.17997,0.01487
1373.25125,0.01346
1371.32253,0.01226
1369.39380,0.01135
1367.46508,0.01055
1365.53635,0.00969
1363.60763,0.00857
1361.67891,0.00725
1359.75018,0.00619
1357.82146,0.00546
1355.89274,0.00476
1353.96401,0.00406
1352.03529,0.00347
1350.10657,0.00295
1348.17784,0.00237
1346.24912,0.00186
1344.32039,0.00153
1342.39167,0.00129
1340.46295,0.00090
1338.53422,0.00037
1336.60550,0.00000
1334.67678,-0.00010
1332.74805,-0.00011
1330.81933,-0.00019
1328.89061,-0.00031
1326.96188,-0.00039
1325.03316,-0.00041
1323.10443,-0.00039
1321.17571,-0.00034
1319.24699,-0.00031
1317.31826,-0.00030
1315.38954,-0.00017
1313.46082,0.00013
1311.53209,0.00048
1309.60337,0.00076
1307.67464,0.00108
1305.74592,0.00153
1303.81720,0.00209
1301.88847,0.00273
1299.95975,0.00348
1298.03103,0.00436
1296.10230,0.00544
1294.17358,0.00675
1292.24486,0.00826
1290.31613,0.00995
1288.38741,0.01184
1286.45868,0.01394
1284.52996,0.01619
1282.60124,0.01860
1280.67251,0.02130
1278.74379,0.02431
1276.81507,0.02751
1274.88634,0.03094
1272.95762,0.03480
1271.02890,0.03919
1269.10017,0.04413
1267.17145,0.04969
1265.24272,0.05582
1263.31400,0.06254
1261.38528,0.07015
1259.45655,0.07880
1257.52783,0.08820
1255.59911,0.09806
1253.67038,0.10833
1251.74166,0.11877
1249.81294,0.12903
1247.88421,0.13891
1245.95549,0.14816
1244.02676,0.15675
1242.09804,0.16470
1240.16932,0.17189
1238.24059,0.17836
1236.31187,0.18424
1234.38315,0.18951
1232.45442,0.19420
1230.52570,0.19843
1228.59697,0.20226
1226.66825,0.20574
1224.73953,0.20897
1222.81080,0.21204
1220.88208,0.21502
1218.95336,0.21779
1217.02463,0.22026
1215.09591,0.22256
1213.16719,0.22484
1211.23846,0.22704
1209.30974,0.22902
1207.38101,0.23094
1205.45229,0.23301
1203.52357,0.23520
1201.59484,0.23744
1199.66612,0.23961
1197.73740,0.24153
1195.80867,0.24310
1193.87995,0.24449
1191.95123,0.24609
1190.02250,0.24791
1188.09378,0.24966
1186.16505,0.25142
1184.23633,0.25341
1182.30761,0.25534
1180.37888,0.25703
1178.45016,0.25883
1176.52144,0.26090
1174.59271,0.26291
1172.66399,0.26466
1170.73526,0.26626
1168.80654,0.26796
1166.87782,0.26994
1164.94909,0.27208
1163.02037,0.27408
1161.09165,0.27592
1159.16292,0.27773
1157.23420,0.27947
1155.30548,0.28106
1153.37675,0.28253
1151.44803,0.28390
1149.51930,0.28540
1147.59058,0.28732
1145.66186,0.28947
1143.73313,0.29178
1141.80441,0.29445
1139.87569,0.29711
1137.94696,0.29919
1136.01824,0.30090
1134.08952,0.30281
1132.16079,0.30514
1130.23207,0.30777
1128.30334,0.31055
1126.37462,0.31345
1124.44590,0.31645
1122.51717,0.31976
1120.58845,0.32379
1118.65973,0.32840
1116.73100,0.33335
1114.80228,0.33875
1112.87355,0.34456
1110.94483,0.35067
1109.01611,0.35715
1107.08738,0.36378
1105.15866,0.37016
1103.22994,0.37594
1101.30121,0.38062
1099.37249,0.38424
1097.44377,0.38727
1095.51504,0.38999
1093.58632,0.39226
1091.65759,0.39351
1089.72887,0.39349
1087.80015,0.39250
1085.87142,0.39106
1083.94270,0.38965
1082.01398,0.38823
1080.08525,0.38636
1078.15653,0.38367
1076.22781,0.38032
1074.29908,0.37664
1072.37036,0.37280
1070.44163,0.36892
1068.51291,0.36509
1066.58419,0.36114
1064.65546,0.35656
1062.72674,0.35142
1060.79802,0.34619
1058.86929,0.34101
1056.94057,0.33561
1055.01184,0.32984
1053.08312,0.32368
1051.15440,0.31708
1049.22567,0.31029
1047.29695,0.30365
1045.36823,0.29731
1043.43950,0.29119
1041.51078,0.28491
1039.58206,0.27826
1037.65333,0.27127
1035.72461,0.26406
1033.79588,0.25689
1031.86716,0.25015
1029.93844,0.24388
1028.00971,0.23776
1026.08099,0.23157
1024.15227,0.22558
1022.22354,0.21996
1020.29482,0.21442
1018.36610,0.20895
1016.43737,0.20379
1014.50865,0.19892
1012.57992,0.19439
1010.65120,0.19020
1008.72248,0.18617
1006.79375,0.18211
1004.86503,0.17807
1002.93631,0.17421
1001.00758,0.17057
999.07886,0.16715
997.15013,0.16394
995.22141,0.16074
993.29269,0.15738
991.36396,0.15407
989.43524,0.15109
987.50652,0.14850
985.57779,0.14616
983.64907,0.14403
981.72035,0.14221
979.79162,0.14062
977.86290,0.13918
975.93417,0.13802
974.00545,0.13721
972.07673,0.13668
970.14800,0.13626
968.21928,0.13572
966.29056,0.13525
964.36183,0.13501
962.43311,0.13467
960.50439,0.13401
958.57566,0.13329
956.64694,0.13262
954.71821,0.13194
952.78949,0.13118
950.86077,0.13006
948.93204,0.12850
947.00332,0.12683
945.07460,0.12531
943.14587,0.12373
941.21715,0.12191
939.28842,0.12002
937.35970,0.11807
935.43098,0.11581
933.50225,0.11324
931.57353,0.11074
929.64481,0.10844
927.71608,0.10597
925.78736,0.10299
923.85864,0.09980
921.92991,0.09674
920.00119,0.09378
918.07246,0.09089
916.14374,0.08798
914.21502,0.08489
912.28629,0.08153
910.35757,0.07817
908.42885,0.07505
906.50012,0.07195
904.57140,0.06854
902.64268,0.06497
900.71395,0.06157
898.78523,0.05837
896.85650,0.05523
894.92778,0.05215
892.99906,0.04920
891.07033,0.04638
889.14161,0.04371
887.21289,0.04101
885.28416,0.03829
883.35544,0.03569
881.42671,0.03317
879.49799,0.03092
877.56927,0.02905
875.64054,0.02698
873.71182,0.02466
871.78310,0.02272
869.85437,0.02131
867.92565,0.01989
865.99693,0.01816
864.06820,0.01641
862.13948,0.01489
860.21075,0.01347
858.28203,0.01200
856.35331,0.01072
854.42458,0.00984
852.49586,0.00912
850.56714,0.00851
848.63841,0.00828
846.70969,0.00841
844.78097,0.00882
842.85224,0.00976
840.92352,0.01136
838.99479,0.01343
837.06607,0.01581
835.13735,0.01831
833.20862,0.02081
831.27990,0.02340
829.35118,0.02607
827.42245,0.02881
825.49373,0.03177
823.56501,0.03476
821.63628,0.03744
819.70756,0.03999
817.77883,0.04268
815.85011,0.04548
813.92139,0.04826
811.99266,0.05093
810.06394,0.05345
808.13522,0.05581
806.20649,0.05817
804.27777,0.06039
802.34904,0.06190
800.42032,0.06251
798.49160,0.06260
796.56287,0.06246
794.63415,0.06195
792.70543,0.06108
790.77670,0.05988
788.84798,0.05819
786.91926,0.05603
784.99053,0.05364
783.06181,0.05114
781.13308,0.04830
779.20436,0.04496
777.27564,0.04151
775.34691,0.03807
773.41819,0.03450
771.48947,0.03114
769.56074,0.02863
767.63202,0.02714
765.70330,0.02619
763.77457,0.02551
761.84585,0.02515
759.91712,0.02485
757.98840,0.02444
756.05968,0.02397
754.13095,0.02338
752.20223,0.02271
750.27351,0.02217
748.34478,0.02187
746.41606,0.02158
744.48733,0.02130
742.55861,0.02130
740.62989,0.02137
738.70116,0.02114
736.77244,0.02079
734.84372,0.02063
732.91499,0.02058
730.98627,0.02051
729.05755,0.02070
727.12882,0.02126
725.20010,0.02166
723.27137,0.02174
721.34265,0.02168
719.41393,0.02148
717.48520,0.02120
715.55648,0.02135
713.62776,0.02217
711.69903,0.02318
709.77031,0.02391
707.84159,0.02441
705.91286,0.02503
703.98414,0.02596
702.05541,0.02688
700.12669,0.02754
698.19797,0.02792
696.26924,0.02814
694.34052,0.02849
692.41180,0.02907
690.48307,0.02964
688.55435,0.02994
686.62562,0.02996
684.69690,0.02988
682.76818,0.02982
680.83945,0.02987
678.91073,0.03010
676.98201,0.03036
675.05328,0.03039
673.12456,0.03025
671.19584,0.03028
669.26711,0.03048
667.33839,0.03065
665.40966,0.03095
663.48094,0.03159
661.55222,0.03260
659.62349,0.03384
657.69477,0.03500
655.76605,0.03594
653.83732,0.03677
651.90860,0.03750
649.97988,0.03823
648.05115,0.03927
646.12243,0.04058
644.19370,0.04193
642.26498,0.04320
640.33626,0.04424
638.40753,0.04498
636.47881,0.04557
634.55009,0.04637
632.62136,0.04764
630.69264,0.04903
628.76391,0.05000
626.83519,0.05066
624.90647,0.05138
622.97774,0.05213
621.04902,0.05295
619.12030,0.05398
617.19157,0.05499
615.26285,0.05554
613.33413,0.05585
611.40540,0.05631
609.47668,0.05727
607.54795,0.05896
605.61923,0.06093
603.69051,0.06259
601.76178,0.06382
599.83306,0.06472
597.90434,0.06559
595.97561,0.06663
594.04689,0.06768
592.11817,0.06867
590.18944,0.06971
588.26072,0.07095
586.33199,0.07219
584.40327,0.07323
582.47455,0.07438
580.54582,0.07561
578.61710,0.07627
576.68838,0.07633
574.75965,0.07662
572.83093,0.07752
570.90220,0.07808
568.97348,0.07760
567.04476,0.07687
565.11603,0.07688
563.18731,0.07747
561.25859,0.07814
559.32986,0.07866
557.40114,0.07891
555.47242,0.07893
553.54369,0.07884
551.61497,0.07908
549.68624,0.07977
547.75752,0.08019
545.82880,0.08024
543.90007,0.08079
541.97135,0.08176
540.04263,0.08207
538.11390,0.08160
536.18518,0.08106
534.25646,0.08068
532.32773,0.08037
530.39901,0.08043
528.47028,0.08092
526.54156,0.08126
524.61284,0.08142
522.68411,0.08202
520.75539,0.08285
518.82667,0.08317
516.89794,0.08334
514.96922,0.08411
513.04049,0.08557
511.11177,0.08780
509.18305,0.09107
507.25432,0.09534
505.32560,0.09985
503.39688,0.10427
501.46815,0.10905
499.53943,0.11416
497.61071,0.11968
495.68198,0.12591
493.75326,0.13274
491.82453,0.14027
489.89581,0.14808
487.96709,0.15444
486.03836,0.15869
484.10964,0.16257
482.18092,0.16786
480.25219,0.17481
478.32347,0.18311
476.39475,0.19201
474.46602,0.20000
472.53730,0.20628
470.60857,0.21138
468.67985,0.21497
466.75113,0.21605
464.82240,0.21517
462.89368,0.21313
460.96496,0.20900
459.03623,0.20216
457.10751,0.19598
455.17878,0.19428
453.25006,0.19399
451.32134,0.18996
449.39261,0.18280
447.46389,0.17666
445.53517,0.17276
443.60644,0.16941
441.67772,0.16577
439.74900,0.16148
437.82027,0.15613
435.89155,0.15119
433.96282,0.14670
432.03410,0.13955
430.10538,0.13017
428.17665,0.12261
426.24793,0.11740
424.31921,0.11203
422.39048,0.10521
420.46176,0.09759
418.53304,0.09281
416.60431,0.09433
414.67559,0.09655
412.74686,0.09198
410.81814,0.08102
408.88942,0.07022
406.96069,0.06345
405.03197,0.06024
403.10325,0.06084
401.17452,0.06381
399.24580,0.06144
397.31708,0.05236
395.38835,0.05229
393.45963,0.06041
391.53090,0.06079
389.60218,0.04794
387.67346,0.03111
385.74473,0.02201
383.81601,0.02411
381.88729,0.02895
379.95856,0.02514
378.02984,0.00978
376.10111,0.00000
374.17239,0.01152
372.24367,0.03237
370.31494,0.02816
368.38622,0.00000
