3996.31543,0.00000
3994.38671,0.00008
3992.45799,0.00023
3990.52926,0.00043
3988.60054,0.00053
3986.67182,0.00056
3984.74309,0.00054
3982.81437,0.00046
3980.88564,0.00034
3978.95692,0.00023
3977.02820,0.00020
3975.09947,0.00022
3973.17075,0.00039
3971.24203,0.00071
3969.31330,0.00090
3967.38458,0.00083
3965.45586,0.00076
3963.52713,0.00083
3961.59841,0.00075
3959.66968,0.00056
3957.74096,0.00061
3955.81224,0.00082
3953.88351,0.00097
3951.95479,0.00118
3950.02607,0.00145
3948.09734,0.00137
3946.16862,0.00107
3944.23990,0.00113
3942.31117,0.00119
3940.38245,0.00096
3938.45372,0.00092
3936.52500,0.00101
3934.59628,0.00121
3932.66755,0.00135
3930.73883,0.00106
3928.81011,0.00075
3926.88138,0.00111
3924.95266,0.00155
3923.02393,0.00128
3921.09521,0.00107
3919.16649,0.00138
3917.23776,0.00149
3915.30904,0.00108
3913.38032,0.00078
3911.45159,0.00081
3909.52287,0.00080
3907.59415,0.00114
3905.66542,0.00192
3903.73670,0.00208
3901.80797,0.00154
3899.87925,0.00111
3897.95053,0.00047
3896.02180,0.00013
3894.09308,0.00092
3892.16436,0.00164
3890.23563,0.00088
3888.30691,0.00036
3886.37819,0.00108
3884.44946,0.00103
3882.52074,0.00092
3880.59201,0.00122
3878.66329,0.00047
3876.73457,0.00025
3874.80584,0.00105
3872.87712,0.00156
3870.94840,0.00194
3869.01967,0.00118
3867.09095,0.00026
3865.16222,0.00095
3863.23350,0.00140
3861.30478,0.00087
3859.37605,0.00040
3857.44733,0.00106
3855.51861,0.00330
3853.58988,0.00455
3851.66116,0.00218
3849.73244,0.00005
3847.80371,0.00000
3845.87499,0.00083
3843.94626,0.00141
3842.01754,0.00153
3840.08882,0.00200
3838.16009,0.00218
3836.23137,0.00137
3834.30265,0.00097
3832.37392,0.00140
3830.44520,0.00153
3828.51648,0.00149
3826.58775,0.00139
3824.65903,0.00133
3822.73030,0.00223
3820.80158,0.00217
3818.87286,0.00085
3816.94413,0.00130
3815.01541,0.00161
3813.08669,0.00088
3811.15796,0.00098
3809.22924,0.00201
3807.30052,0.00251
3805.37179,0.00169
3803.44307,0.00205
3801.51434,0.00292
3799.58562,0.00193
3797.65690,0.00158
3795.72817,0.00199
3793.79945,0.00214
3791.87073,0.00258
3789.94200,0.00307
3788.01328,0.00334
3786.08455,0.00355
3784.15583,0.00345
3782.22711,0.00351
3780.29838,0.00413
3778.36966,0.00416
3776.44094,0.00376
3774.51221,0.00392
3772.58349,0.00476
3770.65477,0.00572
3768.72604,0.00580
3766.79732,0.00561
3764.86859,0.00552
3762.93987,0.00565
3761.01115,0.00663
3759.08242,0.00718
3757.15370,0.00665
3755.22498,0.00681
3753.29625,0.00863
3751.36753,0.01010
3749.43881,0.00925
3747.51008,0.00887
3745.58136,0.01107
3743.65263,0.01220
3741.72391,0.01153
3739.79519,0.01225
3737.86646,0.01445
3735.93774,0.01647
3734.00902,0.01711
3732.08029,0.01720
3730.15157,0.01779
3728.22284,0.01970
3726.29412,0.02215
3724.36540,0.02398
3722.43667,0.02565
3720.50795,0.02744
3718.57923,0.02926
3716.65050,0.03122
3714.72178,0.03411
3712.79306,0.03807
3710.86433,0.04124
3708.93561,0.04302
3707.00688,0.04494
3705.07816,0.04803
3703.14944,0.05219
3701.22071,0.05608
3699.29199,0.05913
3697.36327,0.06222
3695.43454,0.06536
3693.50582,0.06870
3691.57710,0.07288
3689.64837,0.07729
3687.71965,0.08063
3685.79092,0.08352
3683.86220,0.08718
3681.93348,0.09131
3680.00475,0.09555
3678.07603,0.10065
3676.14731,0.10656
3674.21858,0.11033
3672.28986,0.11371
3670.36113,0.11907
3668.43241,0.12344
3666.50369,0.12663
3664.57496,0.13040
3662.64624,0.13444
3660.71752,0.13829
3658.78879,0.14248
3656.86007,0.14675
3654.93135,0.14965
3653.00262,0.15258
3651.07390,0.15728
3649.14517,0.16159
3647.21645,0.16396
3645.28773,0.16586
3643.35900,0.16877
3641.43028,0.17223
3639.50156,0.17543
3637.57283,0.17830
3635.64411,0.18091
3633.71539,0.18311
3631.78666,0.18570
3629.85794,0.18948
3627.92921,0.19190
3626.00049,0.19258
3624.07177,0.19414
3622.14304,0.19692
3620.21432,0.19978
3618.28560,0.20140
3616.35687,0.20250
3614.42815,0.20438
3612.49942,0.20618
3610.57070,0.20781
3608.64198,0.20991
3606.71325,0.21155
3604.78453,0.21268
3602.85581,0.21434
3600.92708,0.21645
3598.99836,0.21839
3597.06964,0.22019
3595.14091,0.22177
3593.21219,0.22270
3591.28346,0.22352
3589.35474,0.22541
3587.42602,0.22770
3585.49729,0.22905
3583.56857,0.23026
3581.63985,0.23193
3579.71112,0.23356
3577.78240,0.23490
3575.85368,0.23617
3573.92495,0.23728
3571.99623,0.23826
3570.06750,0.23977
3568.13878,0.24181
3566.21006,0.24302
3564.28133,0.24351
3562.35261,0.24465
3560.42389,0.24622
3558.49516,0.24755
3556.56644,0.24878
3554.63771,0.25008
3552.70899,0.25126
3550.78027,0.25226
3548.85154,0.25352
3546.92282,0.25489
3544.99410,0.25575
3543.06537,0.25634
3541.13665,0.25731
3539.20793,0.25884
3537.27920,0.26051
3535.35048,0.26168
3533.42175,0.26239
3531.49303,0.26311
3529.56431,0.26399
3527.63558,0.26501
3525.70686,0.26614
3523.77814,0.26726
3521.84941,0.26815
3519.92069,0.26904
3517.99197,0.27008
3516.06324,0.27100
3514.13452,0.27181
3512.20579,0.27269
3510.27707,0.27356
3508.34835,0.27426
3506.41962,0.27510
3504.49090,0.27631
3502.56218,0.27729
3500.63345,0.27790
3498.70473,0.27876
3496.77600,0.27989
3494.84728,0.28077
3492.91856,0.28128
3490.98983,0.28190
3489.06111,0.28287
3487.13239,0.28375
3485.20366,0.28437
3483.27494,0.28508
3481.34622,0.28573
3479.41749,0.28619
3477.48877,0.28693
3475.56004,0.28781
3473.63132,0.28835
3471.70260,0.28867
3469.77387,0.28919
3467.84515,0.28999
3465.91643,0.29090
3463.98770,0.29189
3462.05898,0.29276
3460.13026,0.29315
3458.20153,0.29330
3456.27281,0.29357
3454.34408,0.29393
3452.41536,0.29426
3450.48664,0.29473
3448.55791,0.29552
3446.62919,0.29614
3444.70047,0.29634
3442.77174,0.29665
3440.84302,0.29702
3438.91429,0.29727
3436.98557,0.29768
3435.05685,0.29822
3433.12812,0.29854
3431.19940,0.29869
3429.27068,0.29903
3427.34195,0.29942
3425.41323,0.29951
3423.48451,0.29944
3421.55578,0.29958
3419.62706,0.29997
3417.69833,0.30044
3415.76961,0.30082
3413.84089,0.30099
3411.91216,0.30092
3409.98344,0.30073
3408.05472,0.30061
3406.12599,0.30067
3404.19727,0.30085
3402.26855,0.30098
3400.33982,0.30105
3398.41110,0.30134
3396.48237,0.30175
3394.55365,0.30184
3392.62493,0.30156
3390.69620,0.30114
3388.76748,0.30076
3386.83876,0.30057
3384.91003,0.30061
3382.98131,0.30061
3381.05259,0.30046
3379.12386,0.30033
3377.19514,0.30027
3375.26641,0.29995
3373.33769,0.29937
3371.40897,0.29906
3369.48024,0.29926
3367.55152,0.29953
3365.62280,0.29945
3363.69407,0.29921
3361.76535,0.29906
3359.83662,0.29873
3357.90790,0.29808
3355.97918,0.29739
3354.05045,0.29687
3352.12173,0.29673
3350.19301,0.29683
3348.26428,0.29665
3346.33556,0.29609
3344.40684,0.29560
3342.47811,0.29538
3340.54939,0.29521
3338.62066,0.29487
3336.69194,0.29431
3334.76322,0.29366
3332.83449,0.29317
3330.90577,0.29287
3328.97705,0.29269
3327.04832,0.29250
3325.11960,0.29217
3323.19088,0.29162
3321.26215,0.29100
3319.33343,0.29045
3317.40470,0.29006
3315.47598,0.28983
3313.54726,0.28955
3311.61853,0.28905
3309.68981,0.28852
3307.76109,0.28812
3305.83236,0.28784
3303.90364,0.28766
3301.97491,0.28744
3300.04619,0.28706
3298.11747,0.28667
3296.18874,0.28637
3294.26002,0.28600
3292.33130,0.28544
3290.40257,0.28492
3288.47385,0.28466
3286.54513,0.28451
3284.61640,0.28416
3282.68768,0.28372
3280.75895,0.28335
3278.83023,0.28300
3276.90151,0.28245
3274.97278,0.28163
3273.04406,0.28086
3271.11534,0.28044
3269.18661,0.28026
3267.25789,0.28003
3265.32917,0.27959
3263.40044,0.27903
3261.47172,0.27857
3259.54299,0.27828
3257.61427,0.27797
3255.68555,0.27749
3253.75682,0.27695
3251.82810,0.27649
3249.89938,0.27604
3247.97065,0.27544
3246.04193,0.27468
3244.11320,0.27384
3242.18448,0.27318
3240.25576,0.27288
3238.32703,0.27259
3236.39831,0.27202
3234.46959,0.27124
3232.54086,0.27038
3230.61214,0.26962
3228.68342,0.26910
3226.75469,0.26863
3224.82597,0.26802
3222.89724,0.26741
3220.96852,0.26690
3219.03980,0.26639
3217.11107,0.26575
3215.18235,0.26504
3213.25363,0.26425
3211.32490,0.26346
3209.39618,0.26273
3207.46746,0.26208
3205.53873,0.26145
3203.61001,0.26054
3201.68128,0.25943
3199.75256,0.25854
3197.82384,0.25780
3195.89511,0.25685
3193.96639,0.25577
3192.03767,0.25480
3190.10894,0.25400
3188.18022,0.25323
3186.25149,0.25231
3184.32277,0.25129
3182.39405,0.25033
3180.46532,0.24946
3178.53660,0.24865
3176.60788,0.24785
3174.67915,0.24695
3172.75043,0.24596
3170.82171,0.24493
3168.89298,0.24396
3166.96426,0.24313
3165.03553,0.24236
3163.10681,0.24142
3161.17809,0.24025
3159.24936,0.23902
3157.32064,0.23792
3155.39192,0.23701
3153.46319,0.23620
3151.53447,0.23551
3149.60575,0.23486
3147.67702,0.23392
3145.74830,0.23270
3143.81957,0.23160
3141.89085,0.23077
3139.96213,0.23001
3138.03340,0.22914
3136.10468,0.22812
3134.17596,0.22710
3132.24723,0.22618
3130.31851,0.22526
3128.38978,0.22421
3126.46106,0.22304
3124.53234,0.22201
3122.60361,0.22116
3120.67489,0.22021
3118.74617,0.21911
3116.81744,0.21804
3114.88872,0.21705
3112.96000,0.21611
3111.03127,0.21520
3109.10255,0.21426
3107.17382,0.21336
3105.24510,0.21246
3103.31638,0.21150
3101.38765,0.21044
3099.45893,0.20926
3097.53021,0.20803
3095.60148,0.20675
3093.67276,0.20547
3091.74404,0.20437
3089.81531,0.20338
3087.88659,0.20238
3085.95786,0.20134
3084.02914,0.20031
3082.10042,0.19926
3080.17169,0.19827
3078.24297,0.19730
3076.31425,0.19621
3074.38552,0.19506
3072.45680,0.19392
3070.52807,0.19271
3068.59935,0.19141
3066.67063,0.19019
3064.74190,0.18918
3062.81318,0.18822
3060.88446,0.18712
3058.95573,0.18594
3057.02701,0.18479
3055.09829,0.18370
3053.16956,0.18266
3051.24084,0.18170
3049.31211,0.18077
3047.38339,0.17980
3045.45467,0.17869
3043.52594,0.17750
3041.59722,0.17641
3039.66850,0.17548
3037.73977,0.17463
3035.81105,0.17379
3033.88233,0.17295
3031.95360,0.17221
3030.02488,0.17158
3028.09615,0.17093
3026.16743,0.17008
3024.23871,0.16909
3022.30998,0.16823
3020.38126,0.16750
3018.45254,0.16697
3016.52381,0.16666
3014.59509,0.16634
3012.66636,0.16560
3010.73764,0.16441
3008.80892,0.16322
3006.88019,0.16237
3004.95147,0.16169
3003.02275,0.16096
3001.09402,0.16032
2999.16530,0.15989
2997.23658,0.15954
2995.30785,0.15915
2993.37913,0.15868
2991.45040,0.15811
2989.52168,0.15756
2987.59296,0.15732
2985.66423,0.15744
2983.73551,0.15734
2981.80679,0.15660
2979.87806,0.15575
2977.94934,0.15524
2976.02062,0.15489
2974.09189,0.15448
2972.16317,0.15407
2970.23444,0.15382
2968.30572,0.15366
2966.37700,0.15342
2964.44827,0.15303
2962.51955,0.15263
2960.59083,0.15224
2958.66210,0.15182
2956.73338,0.15135
2954.80466,0.15084
2952.87593,0.15031
2950.94721,0.14980
2949.01848,0.14946
2947.08976,0.14941
2945.16104,0.14955
2943.23231,0.14984
2941.30359,0.15033
2939.37487,0.15095
2937.44614,0.15166
2935.51742,0.15245
2933.58869,0.15328
2931.65997,0.15403
2929.73125,0.15454
2927.80252,0.15460
2925.87380,0.15413
2923.94508,0.15304
2922.01635,0.15127
2920.08763,0.14892
2918.15891,0.14635
2916.23018,0.14387
2914.30146,0.14155
2912.37273,0.13937
2910.44401,0.13724
2908.51529,0.13520
2906.58656,0.13329
2904.65784,0.13152
2902.72912,0.12992
2900.80039,0.12853
2898.87167,0.12721
2896.94295,0.12576
2895.01422,0.12430
2893.08550,0.12296
2891.15677,0.12159
2889.22805,0.12019
2887.29933,0.11894
2885.37060,0.11782
2883.44188,0.11675
2881.51316,0.11586
2879.58443,0.11527
2877.65571,0.11479
2875.72698,0.11425
2873.79826,0.11362
2871.86954,0.11289
2869.94081,0.11207
2868.01209,0.11127
2866.08337,0.11061
2864.15464,0.11022
2862.22592,0.11028
2860.29720,0.11068
2858.36847,0.11124
2856.43975,0.11177
2854.51102,0.11185
2852.58230,0.11110
2850.65358,0.10940
2848.72485,0.10676
2846.79613,0.10356
2844.86741,0.10052
2842.93868,0.09803
2841.00996,0.09589
2839.08124,0.09393
2837.15251,0.09219
2835.22379,0.09063
2833.29506,0.08923
2831.36634,0.08799
2829.43762,0.08682
2827.50889,0.08574
2825.58017,0.08476
2823.65145,0.08381
2821.72272,0.08288
2819.79400,0.08194
2817.86527,0.08099
2815.93655,0.08013
2814.00783,0.07937
2812.07910,0.07859
2810.15038,0.07775
2808.22166,0.07691
2806.29293,0.07614
2804.36421,0.07546
2802.43549,0.07475
2800.50676,0.07402
2798.57804,0.07334
2796.64931,0.07259
2794.72059,0.07176
2792.79187,0.07106
2790.86314,0.07052
2788.93442,0.06989
2787.00570,0.06909
2785.07697,0.06832
2783.14825,0.06773
2781.21953,0.06716
2779.29080,0.06652
2777.36208,0.06596
2775.43335,0.06547
2773.50463,0.06479
2771.57591,0.06395
2769.64718,0.06322
2767.71846,0.06261
2765.78974,0.06205
2763.86101,0.06149
2761.93229,0.06091
2760.00356,0.06033
2758.07484,0.05977
2756.14612,0.05918
2754.21739,0.05862
2752.28867,0.05809
2750.35995,0.05754
2748.43122,0.05696
2746.50250,0.05634
2744.57378,0.05574
2742.64505,0.05515
2740.71633,0.05458
2738.78760,0.05408
2736.85888,0.05360
2734.93016,0.05307
2733.00143,0.05252
2731.07271,0.05201
2729.14399,0.05158
2727.21526,0.05123
2725.28654,0.05081
2723.35782,0.05024
2721.42909,0.04962
2719.50037,0.04898
2717.57164,0.04829
2715.64292,0.04763
2713.71420,0.04709
2711.78547,0.04656
2709.85675,0.04604
2707.92803,0.04559
2705.99930,0.04515
2704.07058,0.04467
2702.14185,0.04415
2700.21313,0.04368
2698.28441,0.04329
2696.35568,0.04288
2694.42696,0.04240
2692.49824,0.04190
2690.56951,0.04142
2688.64079,0.04091
2686.71207,0.04044
2684.78334,0.04003
2682.85462,0.03965
2680.92589,0.03926
2678.99717,0.03876
2677.06845,0.03816
2675.13972,0.03768
2673.21100,0.03729
2671.28228,0.03683
2669.35355,0.03632
2667.42483,0.03588
2665.49611,0.03551
2663.56738,0.03515
2661.63866,0.03474
2659.70993,0.03430
2657.78121,0.03388
2655.85249,0.03342
2653.92376,0.03296
2651.99504,0.03255
2650.06632,0.03216
2648.13759,0.03173
2646.20887,0.03130
2644.28014,0.03089
2642.35142,0.03054
2640.42270,0.03024
2638.49397,0.02988
2636.56525,0.02948
2634.63653,0.02907
2632.70780,0.02870
2630.77908,0.02837
2628.85036,0.02801
2626.92163,0.02766
2624.99291,0.02735
2623.06418,0.02701
2621.13546,0.02663
2619.20674,0.02627
2617.27801,0.02592
2615.34929,0.02556
2613.42057,0.02516
2611.49184,0.02479
2609.56312,0.02452
2607.63440,0.02431
2605.70567,0.02397
2603.77695,0.02354
2601.84822,0.02319
2599.91950,0.02290
2597.99078,0.02256
2596.06205,0.02224
2594.13333,0.02196
2592.20461,0.02173
2590.27588,0.02155
2588.34716,0.02141
2586.41843,0.02125
2584.48971,0.02104
2582.56099,0.02077
2580.63226,0.02046
2578.70354,0.02007
2576.77482,0.01968
2574.84609,0.01937
2572.91737,0.01912
2570.98865,0.01883
2569.05992,0.01852
2567.13120,0.01829
2565.20247,0.01812
2563.27375,0.01793
2561.34503,0.01770
2559.41630,0.01747
2557.48758,0.01722
2555.55886,0.01691
2553.63013,0.01659
2551.70141,0.01633
2549.77269,0.01613
2547.84396,0.01598
2545.91524,0.01583
2543.98651,0.01567
2542.05779,0.01550
2540.12907,0.01529
2538.20034,0.01505
2536.27162,0.01488
2534.34290,0.01476
2532.41417,0.01458
2530.48545,0.01437
2528.55673,0.01414
2526.62800,0.01391
2524.69928,0.01375
2522.77055,0.01362
2520.84183,0.01339
2518.91311,0.01310
2516.98438,0.01283
2515.05566,0.01264
2513.12694,0.01249
2511.19821,0.01239
2509.26949,0.01232
2507.34076,0.01223
2505.41204,0.01202
2503.48332,0.01169
2501.55459,0.01142
2499.62587,0.01131
2497.69715,0.01124
2495.76842,0.01110
2493.83970,0.01091
2491.91098,0.01071
2489.98225,0.01051
2488.05353,0.01037
2486.12480,0.01025
2484.19608,0.01008
2482.26736,0.00992
2480.33863,0.00979
2478.40991,0.00963
2476.48119,0.00944
2474.55246,0.00928
2472.62374,0.00914
2470.69502,0.00897
2468.76629,0.00875
2466.83757,0.00852
2464.90884,0.00822
2462.98012,0.00794
2461.05140,0.00779
2459.12267,0.00770
2457.19395,0.00755
2455.26523,0.00736
2453.33650,0.00720
2451.40778,0.00706
2449.47905,0.00693
2447.55033,0.00682
2445.62161,0.00668
2443.69288,0.00653
2441.76416,0.00637
2439.83544,0.00620
2437.90671,0.00605
2435.97799,0.00592
2434.04927,0.00575
2432.12054,0.00551
2430.19182,0.00531
2428.26309,0.00522
2426.33437,0.00519
2424.40565,0.00513
2422.47692,0.00503
2420.54820,0.00488
2418.61948,0.00472
2416.69075,0.00462
2414.76203,0.00458
2412.83331,0.00446
2410.90458,0.00425
2408.97586,0.00405
2407.04713,0.00390
2405.11841,0.00377
2403.18969,0.00365
2401.26096,0.00351
2399.33224,0.00339
2397.40352,0.00330
2395.47479,0.00324
2393.54607,0.00315
2391.61734,0.00304
2389.68862,0.00295
2387.75990,0.00294
2385.83117,0.00298
2383.90245,0.00299
2381.97373,0.00297
2380.04500,0.00293
2378.11628,0.00292
2376.18756,0.00293
2374.25883,0.00292
2372.33011,0.00292
2370.40138,0.00298
2368.47266,0.00308
2366.54394,0.00319
2364.61521,0.00331
2362.68649,0.00343
2360.75777,0.00343
2358.82904,0.00319
2356.90032,0.00280
2354.97160,0.00246
2353.04287,0.00227
2351.11415,0.00226
2349.18542,0.00242
2347.25670,0.00262
2345.32798,0.00270
2343.39925,0.00254
2341.47053,0.00227
2339.54181,0.00210
2337.61308,0.00204
2335.68436,0.00197
2333.75563,0.00192
2331.82691,0.00192
2329.89819,0.00180
2327.96946,0.00155
2326.04074,0.00135
2324.11202,0.00126
2322.18329,0.00118
2320.25457,0.00112
2318.32585,0.00110
2316.39712,0.00113
2314.46840,0.00114
2312.53967,0.00107
2310.61095,0.00096
2308.68223,0.00087
2306.75350,0.00080
2304.82478,0.00075
2302.89606,0.00071
2300.96733,0.00070
2299.03861,0.00072
2297.10989,0.00070
2295.18116,0.00061
2293.25244,0.00052
2291.32371,0.00044
2289.39499,0.00038
2287.46627,0.00034
2285.53754,0.00038
2283.60882,0.00047
2281.68010,0.00055
2279.75137,0.00060
2277.82265,0.00066
2275.89392,0.00071
2273.96520,0.00074
2272.03648,0.00074
2270.10775,0.00068
2268.17903,0.00059
2266.25031,0.00055
2264.32158,0.00055
2262.39286,0.00051
2260.46414,0.00045
2258.53541,0.00040
2256.60669,0.00037
2254.67796,0.00036
2252.74924,0.00032
2250.82052,0.00027
2248.89179,0.00025
2246.96307,0.00027
2245.03435,0.00021
2243.10562,0.00008
2241.17690,0.00000
2239.24818,0.00000
2237.31945,0.00004
2235.39073,0.00005
2233.46200,0.00002
2231.53328,-0.00001
2229.60456,-0.00001
2227.67583,-0.00006
2225.74711,-0.00019
2223.81839,-0.00027
2221.88966,-0.00019
2219.96094,-0.00009
2218.03221,-0.00012
2216.10349,-0.00015
2214.17477,-0.00007
2212.24604,0.00003
2210.31732,0.00006
2208.38860,0.00007
2206.45987,0.00006
2204.53115,0.00000
2202.60243,-0.00004
2200.67370,0.00000
2198.74498,0.00007
2196.81625,0.00009
2194.88753,0.00007
2192.95881,0.00007
2191.03008,0.00005
2189.10136,-0.00002
2187.17264,-0.00009
2185.24391,-0.00014
2183.31519,-0.00016
2181.38647,-0.00013
2179.45774,-0.00008
2177.52902,-0.00004
2175.60029,-0.00004
2173.67157,-0.00007
2171.74285,-0.00009
2169.81412,-0.00011
2167.88540,-0.00012
2165.95668,-0.00006
2164.02795,0.00000
2162.09923,0.00001
2160.17050,0.00002
2158.24178,0.00002
2156.31306,-0.00000
2154.38433,0.00002
2152.45561,0.00015
2150.52689,0.00030
2148.59816,0.00034
2146.66944,0.00029
2144.74072,0.00022
2142.81199,0.00025
2140.88327,0.00036
2138.95454,0.00045
2137.02582,0.00046
2135.09710,0.00049
2133.16837,0.00054
2131.23965,0.00054
2129.31093,0.00049
2127.38220,0.00041
2125.45348,0.00028
2123.52476,0.00018
2121.59603,0.00020
2119.66731,0.00028
2117.73858,0.00029
2115.80986,0.00025
2113.88114,0.00023
2111.95241,0.00017
2110.02369,0.00008
2108.09497,0.00007
2106.16624,0.00011
2104.23752,0.00010
2102.30880,0.00007
2100.38007,0.00007
2098.45135,0.00005
2096.52262,0.00001
2094.59390,0.00000
2092.66518,-0.00002
2090.73645,-0.00002
2088.80773,-0.00004
2086.87901,-0.00006
2084.95028,-0.00010
2083.02156,-0.00016
2081.09283,-0.00019
2079.16411,-0.00021
2077.23539,-0.00018
2075.30666,-0.00013
2073.37794,-0.00012
2071.44922,-0.00018
2069.52049,-0.00027
2067.59177,-0.00022
2065.66305,-0.00002
2063.73432,0.00005
2061.80560,0.00006
2059.87687,0.00016
2057.94815,0.00025
2056.01943,0.00032
2054.09070,0.00038
2052.16198,0.00047
2050.23326,0.00063
2048.30453,0.00082
2046.37581,0.00094
2044.44709,0.00104
2042.51836,0.00125
2040.58964,0.00148
2038.66091,0.00165
2036.73219,0.00188
2034.80347,0.00213
2032.87474,0.00232
2030.94602,0.00250
2029.01730,0.00271
2027.08857,0.00292
2025.15985,0.00307
2023.23112,0.00312
2021.30240,0.00316
2019.37368,0.00340
2017.44495,0.00371
2015.51623,0.00372
2013.58751,0.00363
2011.65878,0.00372
2009.73006,0.00383
2007.80134,0.00390
2005.87261,0.00394
2003.94389,0.00396
2002.01516,0.00397
2000.08644,0.00404
1998.15772,0.00411
1996.22899,0.00408
1994.30027,0.00417
1992.37155,0.00432
1990.44282,0.00410
1988.51410,0.00390
1986.58538,0.00389
1984.65665,0.00386
1982.72793,0.00385
1980.79920,0.00383
1978.87048,0.00372
1976.94176,0.00353
1975.01303,0.00333
1973.08431,0.00316
1971.15559,0.00300
1969.22686,0.00296
1967.29814,0.00291
1965.36941,0.00251
1963.44069,0.00224
1961.51197,0.00224
1959.58324,0.00212
1957.65452,0.00191
1955.72580,0.00178
1953.79707,0.00165
1951.86835,0.00148
1949.93963,0.00130
1948.01090,0.00108
1946.08218,0.00082
1944.15345,0.00082
1942.22473,0.00076
1940.29601,0.00032
1938.36728,0.00018
1936.43856,0.00026
1934.50984,0.00026
1932.58111,0.00021
1930.65239,0.00014
1928.72367,0.00004
1926.79494,0.00000
1924.86622,0.00026
1922.93749,0.00043
1921.00877,0.00025
1919.08005,0.00057
1917.15132,0.00085
1915.22260,0.00072
1913.29388,0.00100
1911.36515,0.00162
1909.43643,0.00213
1907.50770,0.00238
1905.57898,0.00268
1903.65026,0.00315
1901.72153,0.00361
1899.79281,0.00404
1897.86409,0.00459
1895.93536,0.00521
1894.00664,0.00558
1892.07792,0.00600
1890.14919,0.00668
1888.22047,0.00688
1886.29174,0.00691
1884.36302,0.00727
1882.43430,0.00757
1880.50557,0.00776
1878.57685,0.00793
1876.64813,0.00803
1874.71940,0.00796
1872.79068,0.00786
1870.86196,0.00817
1868.93323,0.00840
1867.00451,0.00771
1865.07578,0.00687
1863.14706,0.00655
1861.21834,0.00640
1859.28961,0.00612
1857.36089,0.00574
1855.43217,0.00530
1853.50344,0.00480
1851.57472,0.00427
1849.64599,0.00378
1847.71727,0.00340
1845.78855,0.00342
1843.85982,0.00317
1841.93110,0.00208
1840.00238,0.00146
1838.07365,0.00150
1836.14493,0.00124
1834.21621,0.00078
1832.28748,0.00084
1830.35876,0.00105
1828.43003,0.00043
1826.50131,0.00000
1824.57259,0.00012
1822.64386,-0.00007
1820.71514,-0.00012
1818.78642,0.00010
1816.85769,0.00013
1814.92897,0.00000
1813.00025,0.00007
1811.07152,0.00033
1809.14280,0.00027
1807.21407,0.00010
1805.28535,0.00014
1803.35663,0.00058
1801.42790,0.00119
1799.49918,0.00132
1797.57046,0.00113
1795.64173,0.00147
1793.71301,0.00266
1791.78428,0.00348
1789.85556,0.00316
1787.92684,0.00324
1785.99811,0.00418
1784.06939,0.00502
1782.14067,0.00581
1780.21194,0.00658
1778.28322,0.00690
1776.35450,0.00741
1774.42577,0.00883
1772.49705,0.01037
1770.56832,0.01072
1768.63960,0.01095
1766.71088,0.01148
1764.78215,0.01234
1762.85343,0.01386
1760.92471,0.01478
1758.99598,0.01522
1757.06726,0.01597
1755.13854,0.01628
1753.20981,0.01707
1751.28109,0.01887
1749.35236,0.02025
1747.42364,0.02098
1745.49492,0.02187
1743.56619,0.02322
1741.63747,0.02493
1739.70875,0.02640
1737.78002,0.02737
1735.85130,0.02993
1733.92257,0.03319
1731.99385,0.03443
1730.06513,0.03564
1728.13640,0.03747
1726.20768,0.03939
1724.27896,0.04127
1722.35023,0.04260
1720.42151,0.04448
1718.49279,0.04761
1716.56406,0.04990
1714.63534,0.05103
1712.70661,0.05243
1710.77789,0.05450
1708.84917,0.05712
1706.92044,0.06002
1704.99172,0.06213
1703.06300,0.06419
1701.13427,0.06809
1699.20555,0.07174
1697.27683,0.07513
1695.34810,0.07889
1693.41938,0.08136
1691.49065,0.08420
1689.56193,0.08747
1687.63321,0.09064
1685.70448,0.09568
1683.77576,0.10102
1681.84704,0.10345
1679.91831,0.10553
1677.98959,0.10891
1676.06087,0.11319
1674.13214,0.11653
1672.20342,0.11952
1670.27469,0.12379
1668.34597,0.12705
1666.41725,0.12900
1664.48852,0.13215
1662.55980,0.13570
1660.63108,0.13755
1658.70235,0.13849
1656.77363,0.14041
1654.84490,0.14462
1652.91618,0.14767
1650.98746,0.14623
1649.05873,0.14680
1647.13001,0.14996
1645.20129,0.15100
1643.27256,0.15066
1641.34384,0.15103
1639.41512,0.15200
1637.48639,0.15375
1635.55767,0.15472
1633.62894,0.15321
1631.70022,0.15200
1629.77150,0.15214
1627.84277,0.15172
1625.91405,0.15039
1623.98533,0.14892
1622.05660,0.14623
1620.12788,0.14337
1618.19916,0.14201
1616.27043,0.13966
1614.34171,0.13558
1612.41298,0.13253
1610.48426,0.13046
1608.55554,0.12783
1606.62681,0.12457
1604.69809,0.12144
1602.76937,0.11857
1600.84064,0.11567
1598.91192,0.11294
1596.98319,0.11065
1595.05447,0.10846
1593.12575,0.10606
1591.19702,0.10364
1589.26830,0.10140
1587.33958,0.09927
1585.41085,0.09723
1583.48213,0.09519
1581.55341,0.09304
1579.62468,0.09131
1577.69596,0.09055
1575.76723,0.08889
1573.83851,0.08592
1571.90979,0.08488
1569.98106,0.08518
1568.05234,0.08388
1566.12362,0.08216
1564.19489,0.08090
1562.26617,0.08067
1560.33745,0.08247
1558.40872,0.08195
1556.48000,0.07794
1554.55127,0.07621
1552.62255,0.07602
1550.69383,0.07561
1548.76510,0.07436
1546.83638,0.07308
1544.90766,0.07252
1542.97893,0.07201
1541.05021,0.07116
1539.12148,0.06799
1537.19276,0.06402
1535.26404,0.06318
1533.33531,0.06309
1531.40659,0.06075
1529.47787,0.05850
1527.54914,0.05709
1525.62042,0.05509
1523.69170,0.05330
1521.76297,0.05188
1519.83425,0.04933
1517.90552,0.04729
1515.97680,0.04549
1514.04808,0.04287
1512.11935,0.04057
1510.19063,0.03942
1508.26191,0.03917
1506.33318,0.03636
1504.40446,0.03095
1502.47574,0.02789
1500.54701,0.02726
1498.61829,0.02662
1496.68956,0.02470
1494.76084,0.02187
1492.83212,0.02037
1490.90339,0.02058
1488.97467,0.02020
1487.04595,0.01892
1485.11722,0.01827
1483.18850,0.01878
1481.25977,0.01974
1479.33105,0.02054
1477.40233,0.02181
1475.47360,0.02405
1473.54488,0.02721
1471.61616,0.02959
1469.68743,0.03064
1467.75871,0.03280
1465.82999,0.03615
1463.90126,0.03761
1461.97254,0.03681
1460.04381,0.03725
1458.11509,0.03959
1456.18637,0.04026
1454.25764,0.03906
1452.32892,0.03870
1450.40020,0.03929
1448.47147,0.03993
1446.54275,0.04005
1444.61403,0.04026
1442.68530,0.04120
1440.75658,0.04252
1438.82785,0.04455
1436.89913,0.04650
1434.97041,0.04648
1433.04168,0.04658
1431.11296,0.04870
1429.18424,0.05093
1427.25551,0.05148
1425.32679,0.05120
1423.39806,0.05089
1421.46934,0.05143
1419.54062,0.05292
1417.61189,0.05331
1415.68317,0.05287
1413.75445,0.05302
1411.82572,0.05342
1409.89700,0.05364
1407.96828,0.05407
1406.03955,0.05492
1404.11083,0.05529
1402.18210,0.05500
1400.25338,0.05476
1398.32466,0.05392
1396.39593,0.05238
1394.46721,0.05042
1392.53849,0.04797
1390.60976,0.04614
1388.68104,0.04526
1386.75232,0.04408
1384.82359,0.04241
1382.89487,0.04111
1380.96614,0.04016
1379.03742,0.03923
1377.10870,0.03840
1375.17997,0.03761
1373.25125,0.03614
1371.32253,0.03434
1369.39380,0.03306
1367.46508,0.03184
1365.53635,0.03071
1363.60763,0.02990
1361.67891,0.02870
1359.75018,0.02727
1357.82146,0.02637
1355.89274,0.02577
1353.96401,0.02508
1352.03529,0.02445
1350.10657,0.02400
1348.17784,0.02356
1346.24912,0.02300
1344.32039,0.02244
1342.39167,0.02219
1340.46295,0.02234
1338.53422,0.02225
1336.60550,0.02187
1334.67678,0.02174
1332.74805,0.02195
1330.81933,0.02232
1328.89061,0.02279
1326.96188,0.02347
1325.03316,0.02441
1323.10443,0.02579
1321.17571,0.02806
1319.24699,0.03161
1317.31826,0.03641
1315.38954,0.04251
1313.46082,0.04983
1311.53209,0.05777
1309.60337,0.06616
1307.67464,0.07636
1305.74592,0.09132
1303.81720,0.11190
1301.88847,0.13107
1299.95975,0.13962
1298.03103,0.14002
1296.10230,0.14087
1294.17358,0.14244
1292.24486,0.14006
1290.31613,0.13311
1288.38741,0.12365
1286.45868,0.11297
1284.52996,0.10224
1282.60124,0.09264
1280.67251,0.08477
1278.74379,0.07895
1276.81507,0.07539
1274.88634,0.07411
1272.95762,0.07487
1271.02890,0.07715
1269.10017,0.08062
1267.17145,0.08544
1265.24272,0.09167
1263.31400,0.09898
1261.38528,0.10729
1259.45655,0.11666
1257.52783,0.12703
1255.59911,0.13834
1253.67038,0.15033
1251.74166,0.16261
1249.81294,0.17476
1247.88421,0.18634
1245.95549,0.19711
1244.02676,0.20720
1242.09804,0.21667
1240.16932,0.22537
1238.24059,0.23315
1236.31187,0.24013
1234.38315,0.24654
1232.45442,0.25270
1230.52570,0.25887
1228.59697,0.26495
1226.66825,0.27069
1224.73953,0.27608
1222.81080,0.28128
1220.88208,0.28632
1218.95336,0.29140
1217.02463,0.29665
1215.09591,0.30182
1213.16719,0.30678
1211.23846,0.31163
1209.30974,0.31662
1207.38101,0.32217
1205.45229,0.32878
1203.52357,0.33664
1201.59484,0.34637
1199.66612,0.35998
1197.73740,0.37992
1195.80867,0.40555
1193.87995,0.43112
1191.95123,0.44746
1190.02250,0.45132
1188.09378,0.45141
1186.16505,0.45532
1184.23633,0.45801
1182.30761,0.45246
1180.37888,0.44125
1178.45016,0.42932
1176.52144,0.41788
1174.59271,0.40689
1172.66399,0.39664
1170.73526,0.38748
1168.80654,0.37973
1166.87782,0.37347
1164.94909,0.36854
1163.02037,0.36496
1161.09165,0.36286
1159.16292,0.36176
1157.23420,0.36127
1155.30548,0.36152
1153.37675,0.36260
1151.44803,0.36425
1149.51930,0.36597
1147.59058,0.36743
1145.66186,0.36866
1143.73313,0.36995
1141.80441,0.37134
1139.87569,0.37283
1137.94696,0.37464
1136.01824,0.37702
1134.08952,0.37992
1132.16079,0.38307
1130.23207,0.38637
1128.30334,0.39004
1126.37462,0.39464
1124.44590,0.40024
1122.51717,0.40680
1120.58845,0.41490
1118.65973,0.42460
1116.73100,0.43514
1114.80228,0.44524
1112.87355,0.45366
1110.94483,0.46067
1109.01611,0.46932
1107.08738,0.48181
1105.15866,0.49309
1103.22994,0.49734
1101.30121,0.49861
1099.37249,0.50212
1097.44377,0.50661
1095.51504,0.50891
1093.58632,0.50794
1091.65759,0.50534
1089.72887,0.50270
1087.80015,0.49979
1085.87142,0.49686
1083.94270,0.49428
1082.01398,0.49169
1080.08525,0.48884
1078.15653,0.48543
1076.22781,0.48196
1074.29908,0.47903
1072.37036,0.47559
1070.44163,0.47085
1068.51291,0.46592
1066.58419,0.46121
1064.65546,0.45557
1062.72674,0.44899
1060.79802,0.44253
1058.86929,0.43653
1056.94057,0.43036
1055.01184,0.42340
1053.08312,0.41610
1051.15440,0.40899
1049.22567,0.40191
1047.29695,0.39470
1045.36823,0.38739
1043.43950,0.37981
1041.51078,0.37202
1039.58206,0.36444
1037.65333,0.35708
1035.72461,0.34953
1033.79588,0.34164
1031.86716,0.33408
1029.93844,0.32715
1028.00971,0.32012
1026.08099,0.31282
1024.15227,0.30587
1022.22354,0.29959
1020.29482,0.29380
1018.36610,0.28828
1016.43737,0.28297
1014.50865,0.27784
1012.57992,0.27274
1010.65120,0.26760
1008.72248,0.26256
1006.79375,0.25787
1004.86503,0.25366
1002.93631,0.24971
1001.00758,0.24556
999.07886,0.24130
997.15013,0.23752
995.22141,0.23475
993.29269,0.23280
991.36396,0.23098
989.43524,0.22912
987.50652,0.22758
985.57779,0.22626
983.64907,0.22494
981.72035,0.22379
979.79162,0.22326
977.86290,0.22348
975.93417,0.22428
974.00545,0.22477
972.07673,0.22353
970.14800,0.22053
968.21928,0.21744
966.29056,0.21524
964.36183,0.21333
962.43311,0.21109
960.50439,0.20870
958.57566,0.20634
956.64694,0.20393
954.71821,0.20147
952.78949,0.19897
950.86077,0.19649
948.93204,0.19425
947.00332,0.19218
945.07460,0.18990
943.14587,0.18740
941.21715,0.18507
939.28842,0.18296
937.35970,0.18071
935.43098,0.17815
933.50225,0.17561
931.57353,0.17323
929.64481,0.17062
927.71608,0.16755
925.78736,0.16436
923.85864,0.16122
921.92991,0.15804
920.00119,0.15497
918.07246,0.15174
916.14374,0.14787
914.21502,0.14392
912.28629,0.14070
910.35757,0.13780
908.42885,0.13437
906.50012,0.13028
904.57140,0.12610
902.64268,0.12234
900.71395,0.11889
898.78523,0.11553
896.85650,0.11220
894.92778,0.10881
892.99906,0.10539
891.07033,0.10195
889.14161,0.09862
887.21289,0.09583
885.28416,0.09339
883.35544,0.09062
881.42671,0.08751
879.49799,0.08479
877.56927,0.08276
875.64054,0.08076
873.71182,0.07829
871.78310,0.07573
869.85437,0.07347
867.92565,0.07154
865.99693,0.06977
864.06820,0.06812
862.13948,0.06692
860.21075,0.06612
858.28203,0.06532
856.35331,0.06427
854.42458,0.06315
852.49586,0.06257
850.56714,0.06255
848.63841,0.06265
846.70969,0.06307
844.78097,0.06433
842.85224,0.06599
840.92352,0.06731
838.99479,0.06861
837.06607,0.07044
835.13735,0.07275
833.20862,0.07530
831.27990,0.07775
829.35118,0.08010
827.42245,0.08241
825.49373,0.08451
823.56501,0.08670
821.63628,0.08960
819.70756,0.09302
817.77883,0.09596
815.85011,0.09838
813.92139,0.10104
811.99266,0.10408
810.06394,0.10718
808.13522,0.11004
806.20649,0.11251
804.27777,0.11464
802.34904,0.11652
800.42032,0.11815
798.49160,0.11921
796.56287,0.11941
794.63415,0.11884
792.70543,0.11780
790.77670,0.11672
788.84798,0.11544
786.91926,0.11341
784.99053,0.11080
783.06181,0.10818
781.13308,0.10549
779.20436,0.10221
777.27564,0.09818
775.34691,0.09368
773.41819,0.08944
771.48947,0.08619
769.56074,0.08383
767.63202,0.08175
765.70330,0.08018
763.77457,0.07974
761.84585,0.08012
759.91712,0.08036
757.98840,0.08005
756.05968,0.07945
754.13095,0.07894
752.20223,0.07850
750.27351,0.07786
748.34478,0.07740
746.41606,0.07736
744.48733,0.07714
742.55861,0.07667
740.62989,0.07648
738.70116,0.07658
736.77244,0.07665
734.84372,0.07682
732.91499,0.07708
730.98627,0.07717
729.05755,0.07701
727.12882,0.07686
725.20010,0.07686
723.27137,0.07688
721.34265,0.07693
719.41393,0.07709
717.48520,0.07761
715.55648,0.07843
713.62776,0.07899
711.69903,0.07918
709.77031,0.07943
707.84159,0.08005
705.91286,0.08117
703.98414,0.08263
702.05541,0.08390
700.12669,0.08460
698.19797,0.08502
696.26924,0.08583
694.34052,0.08698
692.41180,0.08785
690.48307,0.08825
688.55435,0.08852
686.62562,0.08910
684.69690,0.09044
682.76818,0.09254
680.83945,0.09479
678.91073,0.09652
676.98201,0.09775
675.05328,0.09854
673.12456,0.09841
671.19584,0.09787
669.26711,0.09910
667.33839,0.10204
665.40966,0.10308
663.48094,0.10182
661.55222,0.10073
659.62349,0.10085
657.69477,0.10120
655.76605,0.10099
653.83732,0.10052
651.90860,0.10028
649.97988,0.10044
648.05115,0.10098
646.12243,0.10195
644.19370,0.10345
642.26498,0.10500
640.33626,0.10600
638.40753,0.10649
636.47881,0.10715
634.55009,0.10834
632.62136,0.10953
630.69264,0.11021
628.76391,0.11096
626.83519,0.11262
624.90647,0.11446
622.97774,0.11584
621.04902,0.11699
619.12030,0.11767
617.19157,0.11798
615.26285,0.11849
613.33413,0.11923
611.40540,0.12020
609.47668,0.12163
607.54795,0.12366
605.61923,0.12597
603.69051,0.12774
601.76178,0.12903
599.83306,0.13037
597.90434,0.13160
595.97561,0.13295
594.04689,0.13458
592.11817,0.13579
590.18944,0.13626
588.26072,0.13697
586.33199,0.13883
584.40327,0.14121
582.47455,0.14274
580.54582,0.14320
578.61710,0.14368
576.68838,0.14455
574.75965,0.14537
572.83093,0.14613
570.90220,0.14640
568.97348,0.14624
567.04476,0.14662
565.11603,0.14721
563.18731,0.14730
561.25859,0.14742
559.32986,0.14789
557.40114,0.14863
555.47242,0.14995
553.54369,0.15183
551.61497,0.15384
549.68624,0.15564
547.75752,0.15677
545.82880,0.15678
543.90007,0.15673
541.97135,0.15805
540.04263,0.15925
538.11390,0.15794
536.18518,0.15515
534.25646,0.15345
532.32773,0.15292
530.39901,0.15200
528.47028,0.15098
526.54156,0.15101
524.61284,0.15163
522.68411,0.15228
520.75539,0.15344
518.82667,0.15532
516.89794,0.15703
514.96922,0.15745
513.04049,0.15704
511.11177,0.15736
509.18305,0.15963
507.25432,0.16324
505.32560,0.16646
503.39688,0.17039
501.46815,0.17776
499.53943,0.18790
497.61071,0.19747
495.68198,0.20591
493.75326,0.21478
491.82453,0.22222
489.89581,0.22701
487.96709,0.23328
486.03836,0.24224
484.10964,0.25014
482.18092,0.25757
480.25219,0.26775
478.32347,0.27636
476.39475,0.27835
474.46602,0.27861
472.53730,0.28258
470.60857,0.28775
468.67985,0.29212
466.75113,0.29764
464.82240,0.30385
462.89368,0.30753
460.96496,0.30760
459.03623,0.30394
457.10751,0.29672
455.17878,0.29047
453.25006,0.28687
451.32134,0.28074
449.39261,0.27036
447.46389,0.25951
445.53517,0.25184
443.60644,0.24877
441.67772,0.24731
439.74900,0.24234
437.82027,0.23400
435.89155,0.22839
433.96282,0.22988
432.03410,0.23299
430.10538,0.22882
428.17665,0.21816
426.24793,0.20623
424.31921,0.19384
422.39048,0.18178
420.46176,0.17159
418.53304,0.16312
416.60431,0.15989
414.67559,0.16288
412.74686,0.16511
410.81814,0.16009
408.88942,0.14866
406.96069,0.13879
405.03197,0.13499
403.10325,0.13028
401.17452,0.11854
399.24580,0.10992
397.31708,0.12015
395.38835,0.13366
393.45963,0.12117
391.53090,0.09847
389.60218,0.09457
387.67346,0.09702
385.74473,0.08146
383.81601,0.06879
381.88729,0.08209
379.95856,0.08500
378.02984,0.04617
376.10111,0.00307
374.17239,0.00000
372.24367,-0.01333
370.31494,-0.01423
368.38622,0.00000
