3996.31543,0.00010
3994.38671,0.00000
3992.45799,0.00006
3990.52926,0.00019
3988.60054,0.00028
3986.67182,0.00033
3984.74309,0.00035
3982.81437,0.00037
3980.88564,0.00040
3978.95692,0.00045
3977.02820,0.00055
3975.09947,0.00068
3973.17075,0.00072
3971.24203,0.00070
3969.31330,0.00071
3967.38458,0.00070
3965.45586,0.00061
3963.52713,0.00051
3961.59841,0.00054
3959.66968,0.00073
3957.74096,0.00091
3955.81224,0.00093
3953.88351,0.00079
3951.95479,0.00065
3950.02607,0.00061
3948.09734,0.00059
3946.16862,0.00051
3944.23990,0.00051
3942.31117,0.00068
3940.38245,0.00081
3938.45372,0.00075
3936.52500,0.00059
3934.59628,0.00049
3932.66755,0.00063
3930.73883,0.00093
3928.81011,0.00105
3926.88138,0.00096
3924.95266,0.00098
3923.02393,0.00116
3921.09521,0.00129
3919.16649,0.00140
3917.23776,0.00149
3915.30904,0.00139
3913.38032,0.00107
3911.45159,0.00070
3909.52287,0.00034
3907.59415,0.00000
3905.66542,0.00003
3903.73670,0.00076
3901.80797,0.00169
3899.87925,0.00221
3897.95053,0.00211
3896.02180,0.00149
3894.09308,0.00086
3892.16436,0.00081
3890.23563,0.00105
3888.30691,0.00091
3886.37819,0.00072
3884.44946,0.00084
3882.52074,0.00095
3880.59201,0.00107
3878.66329,0.00111
3876.73457,0.00085
3874.80584,0.00065
3872.87712,0.00074
3870.94840,0.00100
3869.01967,0.00132
3867.09095,0.00134
3865.16222,0.00128
3863.23350,0.00148
3861.30478,0.00150
3859.37605,0.00095
3857.44733,0.00015
3855.51861,0.00000
3853.58988,0.00126
3851.66116,0.00257
3849.73244,0.00231
3847.80371,0.00122
3845.87499,0.00045
3843.94626,0.00028
3842.01754,0.00042
3840.08882,0.00073
3838.16009,0.00121
3836.23137,0.00149
3834.30265,0.00131
3832.37392,0.00103
3830.44520,0.00090
3828.51648,0.00085
3826.58775,0.00074
3824.65903,0.00048
3822.73030,0.00045
3820.80158,0.00103
3818.87286,0.00151
3816.94413,0.00164
3815.01541,0.00185
3813.08669,0.00173
3811.15796,0.00103
3809.22924,0.00046
3807.30052,0.00060
3805.37179,0.00091
3803.44307,0.00095
3801.51434,0.00139
3799.58562,0.00208
3797.65690,0.00226
3795.72817,0.00215
3793.79945,0.00204
3791.87073,0.00193
3789.94200,0.00187
3788.01328,0.00184
3786.08455,0.00187
3784.15583,0.00195
3782.22711,0.00198
3780.29838,0.00223
3778.36966,0.00285
3776.44094,0.00323
3774.51221,0.00296
3772.58349,0.00250
3770.65477,0.00259
3768.72604,0.00329
3766.79732,0.00396
3764.86859,0.00432
3762.93987,0.00437
3761.01115,0.00446
3759.08242,0.00499
3757.15370,0.00538
3755.22498,0.00515
3753.29625,0.00506
3751.36753,0.00613
3749.43881,0.00762
3747.51008,0.00807
3745.58136,0.00824
3743.65263,0.00914
3741.72391,0.00980
3739.79519,0.00958
3737.86646,0.00946
3735.93774,0.01057
3734.00902,0.01265
3732.08029,0.01435
3730.15157,0.01505
3728.22284,0.01540
3726.29412,0.01625
3724.36540,0.01772
3722.43667,0.01941
3720.50795,0.02112
3718.57923,0.02268
3716.65050,0.02388
3714.72178,0.02506
3712.79306,0.02727
3710.86433,0.03076
3708.93561,0.03390
3707.00688,0.03574
3705.07816,0.03714
3703.14944,0.03933
3701.22071,0.04255
3699.29199,0.04570
3697.36327,0.04809
3695.43454,0.04996
3693.50582,0.05172
3691.57710,0.05420
3689.64837,0.05816
3687.71965,0.06261
3685.79092,0.06587
3683.86220,0.06823
3681.93348,0.07058
3680.00475,0.07313
3678.07603,0.07618
3676.14731,0.08076
3674.21858,0.08589
3672.28986,0.08954
3670.36113,0.09312
3668.43241,0.09734
3666.50369,0.10049
3664.57496,0.10274
3662.64624,0.10509
3660.71752,0.10761
3658.78879,0.11029
3656.86007,0.11353
3654.93135,0.11673
3653.00262,0.11882
3651.07390,0.12116
3649.14517,0.12557
3647.21645,0.13035
3645.28773,0.13309
3643.35900,0.13449
3641.43028,0.13590
3639.50156,0.13774
3637.57283,0.13987
3635.64411,0.14197
3633.71539,0.14371
3631.78666,0.14526
3629.85794,0.14788
3627.92921,0.15173
3626.00049,0.15437
3624.07177,0.15516
3622.14304,0.15567
3620.21432,0.15716
3618.28560,0.15940
3616.35687,0.16123
3614.42815,0.16253
3612.49942,0.16376
3610.57070,0.16491
3608.64198,0.16626
3606.71325,0.16793
3604.78453,0.16929
3602.85581,0.17015
3600.92708,0.17107
3598.99836,0.17229
3597.06964,0.17377
3595.14091,0.17552
3593.21219,0.17711
3591.28346,0.17803
3589.35474,0.17889
3587.42602,0.18074
3585.49729,0.18296
3583.56857,0.18426
3581.63985,0.18488
3579.71112,0.18557
3577.78240,0.18651
3575.85368,0.18761
3573.92495,0.18869
3571.99623,0.18943
3570.06750,0.18997
3568.13878,0.19125
3566.21006,0.19351
3564.28133,0.19528
3562.35261,0.19592
3560.42389,0.19635
3558.49516,0.19716
3556.56644,0.19805
3554.63771,0.19894
3552.70899,0.20005
3550.78027,0.20113
3548.85154,0.20186
3546.92282,0.20270
3544.99410,0.20399
3543.06537,0.20522
3541.13665,0.20607
3539.20793,0.20676
3537.27920,0.20760
3535.35048,0.20867
3533.42175,0.20975
3531.49303,0.21060
3529.56431,0.21125
3527.63558,0.21191
3525.70686,0.21280
3523.77814,0.21397
3521.84941,0.21518
3519.92069,0.21606
3517.99197,0.21664
3516.06324,0.21720
3514.13452,0.21781
3512.20579,0.21843
3510.27707,0.21916
3508.34835,0.22005
3506.41962,0.22089
3504.49090,0.22170
3502.56218,0.22259
3500.63345,0.22335
3498.70473,0.22389
3496.77600,0.22450
3494.84728,0.22520
3492.91856,0.22576
3490.98983,0.22620
3489.06111,0.22683
3487.13239,0.22763
3485.20366,0.22823
3483.27494,0.22866
3481.34622,0.22922
3479.41749,0.22982
3477.48877,0.23030
3475.56004,0.23081
3473.63132,0.23143
3471.70260,0.23200
3469.77387,0.23245
3467.84515,0.23281
3465.91643,0.23317
3463.98770,0.23367
3462.05898,0.23434
3460.13026,0.23490
3458.20153,0.23529
3456.27281,0.23569
3454.34408,0.23607
3452.41536,0.23626
3450.48664,0.23638
3448.55791,0.23671
3446.62919,0.23738
3444.70047,0.23804
3442.77174,0.23839
3440.84302,0.23857
3438.91429,0.23877
3436.98557,0.23903
3435.05685,0.23928
3433.12812,0.23945
3431.19940,0.23953
3429.27068,0.23961
3427.34195,0.23986
3425.41323,0.24029
3423.48451,0.24071
3421.55578,0.24090
3419.62706,0.24093
3417.69833,0.24101
3415.76961,0.24122
3413.84089,0.24136
3411.91216,0.24131
3409.98344,0.24117
3408.05472,0.24116
3406.12599,0.24144
3404.19727,0.24190
3402.26855,0.24215
3400.33982,0.24212
3398.41110,0.24203
3396.48237,0.24194
3394.55365,0.24177
3392.62493,0.24153
3390.69620,0.24133
3388.76748,0.24129
3386.83876,0.24134
3384.91003,0.24126
3382.98131,0.24105
3381.05259,0.24095
3379.12386,0.24095
3377.19514,0.24088
3375.26641,0.24082
3373.33769,0.24079
3371.40897,0.24060
3369.48024,0.24019
3367.55152,0.23983
3365.62280,0.23970
3363.69407,0.23962
3361.76535,0.23936
3359.83662,0.23905
3357.90790,0.23877
3355.97918,0.23857
3354.05045,0.23851
3352.12173,0.23852
3350.19301,0.23836
3348.26428,0.23798
3346.33556,0.23749
3344.40684,0.23704
3342.47811,0.23668
3340.54939,0.23645
3338.62066,0.23624
3336.69194,0.23597
3334.76322,0.23573
3332.83449,0.23550
3330.90577,0.23515
3328.97705,0.23476
3327.04832,0.23453
3325.11960,0.23445
3323.19088,0.23424
3321.26215,0.23382
3319.33343,0.23336
3317.40470,0.23309
3315.47598,0.23298
3313.54726,0.23278
3311.61853,0.23243
3309.68981,0.23212
3307.76109,0.23186
3305.83236,0.23147
3303.90364,0.23104
3301.97491,0.23078
3300.04619,0.23064
3298.11747,0.23049
3296.18874,0.23029
3294.26002,0.23003
3292.33130,0.22964
3290.40257,0.22925
3288.47385,0.22898
3286.54513,0.22879
3284.61640,0.22855
3282.68768,0.22814
3280.75895,0.22769
3278.83023,0.22730
3276.90151,0.22685
3274.97278,0.22628
3273.04406,0.22590
3271.11534,0.22585
3269.18661,0.22574
3267.25789,0.22533
3265.32917,0.22489
3263.40044,0.22460
3261.47172,0.22432
3259.54299,0.22401
3257.61427,0.22364
3255.68555,0.22318
3253.75682,0.22273
3251.82810,0.22235
3249.89938,0.22192
3247.97065,0.22135
3246.04193,0.22071
3244.11320,0.22022
3242.18448,0.21989
3240.25576,0.21950
3238.32703,0.21904
3236.39831,0.21871
3234.46959,0.21850
3232.54086,0.21826
3230.61214,0.21788
3228.68342,0.21736
3226.75469,0.21674
3224.82597,0.21603
3222.89724,0.21536
3220.96852,0.21478
3219.03980,0.21425
3217.11107,0.21375
3215.18235,0.21326
3213.25363,0.21281
3211.32490,0.21241
3209.39618,0.21203
3207.46746,0.21143
3205.53873,0.21048
3203.61001,0.20949
3201.68128,0.20879
3199.75256,0.20833
3197.82384,0.20790
3195.89511,0.20731
3193.96639,0.20664
3192.03767,0.20595
3190.10894,0.20526
3188.18022,0.20460
3186.25149,0.20396
3184.32277,0.20326
3182.39405,0.20255
3180.46532,0.20189
3178.53660,0.20130
3176.60788,0.20069
3174.67915,0.19989
3172.75043,0.19893
3170.82171,0.19796
3168.89298,0.19712
3166.96426,0.19647
3165.03553,0.19586
3163.10681,0.19516
3161.17809,0.19436
3159.24936,0.19358
3157.32064,0.19287
3155.39192,0.19211
3153.46319,0.19127
3151.53447,0.19046
3149.60575,0.18965
3147.67702,0.18881
3145.74830,0.18800
3143.81957,0.18726
3141.89085,0.18660
3139.96213,0.18602
3138.03340,0.18543
3136.10468,0.18471
3134.17596,0.18386
3132.24723,0.18302
3130.31851,0.18226
3128.38978,0.18156
3126.46106,0.18084
3124.53234,0.18006
3122.60361,0.17925
3120.67489,0.17837
3118.74617,0.17743
3116.81744,0.17668
3114.88872,0.17613
3112.96000,0.17551
3111.03127,0.17468
3109.10255,0.17368
3107.17382,0.17262
3105.24510,0.17159
3103.31638,0.17068
3101.38765,0.16982
3099.45893,0.16890
3097.53021,0.16795
3095.60148,0.16702
3093.67276,0.16613
3091.74404,0.16533
3089.81531,0.16455
3087.88659,0.16361
3085.95786,0.16255
3084.02914,0.16155
3082.10042,0.16068
3080.17169,0.15992
3078.24297,0.15915
3076.31425,0.15827
3074.38552,0.15726
3072.45680,0.15622
3070.52807,0.15526
3068.59935,0.15441
3066.67063,0.15352
3064.74190,0.15256
3062.81318,0.15162
3060.88446,0.15063
3058.95573,0.14954
3057.02701,0.14847
3055.09829,0.14753
3053.16956,0.14667
3051.24084,0.14580
3049.31211,0.14491
3047.38339,0.14407
3045.45467,0.14334
3043.52594,0.14263
3041.59722,0.14182
3039.66850,0.14092
3037.73977,0.14001
3035.81105,0.13918
3033.88233,0.13841
3031.95360,0.13760
3030.02488,0.13677
3028.09615,0.13598
3026.16743,0.13525
3024.23871,0.13452
3022.30998,0.13376
3020.38126,0.13302
3018.45254,0.13238
3016.52381,0.13177
3014.59509,0.13109
3012.66636,0.13033
3010.73764,0.12953
3008.80892,0.12878
3006.88019,0.12805
3004.95147,0.12734
3003.02275,0.12671
3001.09402,0.12614
2999.16530,0.12551
2997.23658,0.12481
2995.30785,0.12410
2993.37913,0.12343
2991.45040,0.12285
2989.52168,0.12234
2987.59296,0.12191
2985.66423,0.12149
2983.73551,0.12098
2981.80679,0.12051
2979.87806,0.12011
2977.94934,0.11974
2976.02062,0.11945
2974.09189,0.11915
2972.16317,0.11872
2970.23444,0.11823
2968.30572,0.11786
2966.37700,0.11774
2964.44827,0.11772
2962.51955,0.11756
2960.59083,0.11725
2958.66210,0.11685
2956.73338,0.11642
2954.80466,0.11611
2952.87593,0.11599
2950.94721,0.11586
2949.01848,0.11564
2947.08976,0.11543
2945.16104,0.11531
2943.23231,0.11520
2941.30359,0.11517
2939.37487,0.11532
2937.44614,0.11546
2935.51742,0.11548
2933.58869,0.11548
2931.65997,0.11550
2929.73125,0.11540
2927.80252,0.11508
2925.87380,0.11447
2923.94508,0.11350
2922.01635,0.11212
2920.08763,0.11047
2918.15891,0.10876
2916.23018,0.10712
2914.30146,0.10559
2912.37273,0.10424
2910.44401,0.10302
2908.51529,0.10176
2906.58656,0.10045
2904.65784,0.09928
2902.72912,0.09833
2900.80039,0.09742
2898.87167,0.09646
2896.94295,0.09548
2895.01422,0.09453
2893.08550,0.09366
2891.15677,0.09288
2889.22805,0.09209
2887.29933,0.09116
2885.37060,0.09014
2883.44188,0.08927
2881.51316,0.08857
2879.58443,0.08794
2877.65571,0.08735
2875.72698,0.08687
2873.79826,0.08642
2871.86954,0.08585
2869.94081,0.08519
2868.01209,0.08455
2866.08337,0.08399
2864.15464,0.08350
2862.22592,0.08314
2860.29720,0.08289
2858.36847,0.08270
2856.43975,0.08265
2854.51102,0.08262
2852.58230,0.08215
2850.65358,0.08098
2848.72485,0.07933
2846.79613,0.07756
2844.86741,0.07584
2842.93868,0.07426
2841.00996,0.07292
2839.08124,0.07176
2837.15251,0.07071
2835.22379,0.06974
2833.29506,0.06877
2831.36634,0.06781
2829.43762,0.06693
2827.50889,0.06611
2825.58017,0.06523
2823.65145,0.06437
2821.72272,0.06371
2819.79400,0.06317
2817.86527,0.06257
2815.93655,0.06190
2814.00783,0.06128
2812.07910,0.06072
2810.15038,0.06017
2808.22166,0.05954
2806.29293,0.05878
2804.36421,0.05803
2802.43549,0.05746
2800.50676,0.05702
2798.57804,0.05656
2796.64931,0.05600
2794.72059,0.05539
2792.79187,0.05485
2790.86314,0.05438
2788.93442,0.05386
2787.00570,0.05329
2785.07697,0.05272
2783.14825,0.05217
2781.21953,0.05166
2779.29080,0.05121
2777.36208,0.05078
2775.43335,0.05028
2773.50463,0.04963
2771.57591,0.04896
2769.64718,0.04846
2767.71846,0.04807
2765.78974,0.04764
2763.86101,0.04709
2761.93229,0.04655
2760.00356,0.04614
2758.07484,0.04578
2756.14612,0.04534
2754.21739,0.04486
2752.28867,0.04440
2750.35995,0.04392
2748.43122,0.04340
2746.50250,0.04283
2744.57378,0.04228
2742.64505,0.04181
2740.71633,0.04139
2738.78760,0.04099
2736.85888,0.04059
2734.93016,0.04015
2733.00143,0.03966
2731.07271,0.03922
2729.14399,0.03887
2727.21526,0.03851
2725.28654,0.03807
2723.35782,0.03757
2721.42909,0.03708
2719.50037,0.03662
2717.57164,0.03620
2715.64292,0.03579
2713.71420,0.03544
2711.78547,0.03507
2709.85675,0.03463
2707.92803,0.03422
2705.99930,0.03387
2704.07058,0.03348
2702.14185,0.03300
2700.21313,0.03251
2698.28441,0.03212
2696.35568,0.03180
2694.42696,0.03150
2692.49824,0.03121
2690.56951,0.03090
2688.64079,0.03059
2686.71207,0.03025
2684.78334,0.02985
2682.85462,0.02945
2680.92589,0.02910
2678.99717,0.02872
2677.06845,0.02832
2675.13972,0.02793
2673.21100,0.02754
2671.28228,0.02717
2669.35355,0.02681
2667.42483,0.02649
2665.49611,0.02621
2663.56738,0.02593
2661.63866,0.02559
2659.70993,0.02523
2657.78121,0.02489
2655.85249,0.02457
2653.92376,0.02426
2651.99504,0.02403
2650.06632,0.02379
2648.13759,0.02343
2646.20887,0.02306
2644.28014,0.02274
2642.35142,0.02241
2640.42270,0.02209
2638.49397,0.02183
2636.56525,0.02159
2634.63653,0.02132
2632.70780,0.02100
2630.77908,0.02068
2628.85036,0.02039
2626.92163,0.02011
2624.99291,0.01988
2623.06418,0.01966
2621.13546,0.01936
2619.20674,0.01897
2617.27801,0.01865
2615.34929,0.01843
2613.42057,0.01821
2611.49184,0.01795
2609.56312,0.01770
2607.63440,0.01746
2605.70567,0.01723
2603.77695,0.01699
2601.84822,0.01673
2599.91950,0.01649
2597.99078,0.01630
2596.06205,0.01606
2594.13333,0.01575
2592.20461,0.01549
2590.27588,0.01528
2588.34716,0.01509
2586.41843,0.01488
2584.48971,0.01465
2582.56099,0.01441
2580.63226,0.01426
2578.70354,0.01416
2576.77482,0.01402
2574.84609,0.01384
2572.91737,0.01366
2570.98865,0.01344
2569.05992,0.01317
2567.13120,0.01289
2565.20247,0.01270
2563.27375,0.01261
2561.34503,0.01253
2559.41630,0.01238
2557.48758,0.01222
2555.55886,0.01207
2553.63013,0.01189
2551.70141,0.01168
2549.77269,0.01143
2547.84396,0.01120
2545.91524,0.01106
2543.98651,0.01097
2542.05779,0.01083
2540.12907,0.01065
2538.20034,0.01045
2536.27162,0.01027
2534.34290,0.01016
2532.41417,0.01006
2530.48545,0.00994
2528.55673,0.00980
2526.62800,0.00967
2524.69928,0.00956
2522.77055,0.00940
2520.84183,0.00919
2518.91311,0.00899
2516.98438,0.00879
2515.05566,0.00861
2513.12694,0.00847
2511.19821,0.00837
2509.26949,0.00825
2507.34076,0.00812
2505.41204,0.00799
2503.48332,0.00789
2501.55459,0.00781
2499.62587,0.00772
2497.69715,0.00761
2495.76842,0.00750
2493.83970,0.00739
2491.91098,0.00727
2489.98225,0.00712
2488.05353,0.00698
2486.12480,0.00685
2484.19608,0.00672
2482.26736,0.00660
2480.33863,0.00651
2478.40991,0.00641
2476.48119,0.00631
2474.55246,0.00620
2472.62374,0.00608
2470.69502,0.00599
2468.76629,0.00592
2466.83757,0.00581
2464.90884,0.00566
2462.98012,0.00552
2461.05140,0.00538
2459.12267,0.00527
2457.19395,0.00518
2455.26523,0.00506
2453.33650,0.00489
2451.40778,0.00477
2449.47905,0.00466
2447.55033,0.00452
2445.62161,0.00436
2443.69288,0.00423
2441.76416,0.00414
2439.83544,0.00411
2437.90671,0.00406
2435.97799,0.00397
2434.04927,0.00390
2432.12054,0.00386
2430.19182,0.00378
2428.26309,0.00363
2426.33437,0.00350
2424.40565,0.00342
2422.47692,0.00333
2420.54820,0.00317
2418.61948,0.00298
2416.69075,0.00285
2414.76203,0.00276
2412.83331,0.00262
2410.90458,0.00247
2408.97586,0.00241
2407.04713,0.00240
2405.11841,0.00234
2403.18969,0.00227
2401.26096,0.00225
2399.33224,0.00221
2397.40352,0.00214
2395.47479,0.00207
2393.54607,0.00198
2391.61734,0.00185
2389.68862,0.00172
2387.75990,0.00165
2385.83117,0.00160
2383.90245,0.00149
2381.97373,0.00136
2380.04500,0.00129
2378.11628,0.00131
2376.18756,0.00134
2374.25883,0.00136
2372.33011,0.00138
2370.40138,0.00140
2368.47266,0.00142
2366.54394,0.00151
2364.61521,0.00166
2362.68649,0.00175
2360.75777,0.00174
2358.82904,0.00178
2356.90032,0.00193
2354.97160,0.00206
2353.04287,0.00208
2351.11415,0.00186
2349.18542,0.00140
2347.25670,0.00098
2345.32798,0.00094
2343.39925,0.00118
2341.47053,0.00138
2339.54181,0.00144
2337.61308,0.00139
2335.68436,0.00128
2333.75563,0.00114
2331.82691,0.00106
2329.89819,0.00107
2327.96946,0.00108
2326.04074,0.00104
2324.11202,0.00096
2322.18329,0.00088
2320.25457,0.00083
2318.32585,0.00085
2316.39712,0.00085
2314.46840,0.00080
2312.53967,0.00075
2310.61095,0.00073
2308.68223,0.00069
2306.75350,0.00058
2304.82478,0.00044
2302.89606,0.00035
2300.96733,0.00033
2299.03861,0.00033
2297.10989,0.00034
2295.18116,0.00036
2293.25244,0.00034
2291.32371,0.00027
2289.39499,0.00022
2287.46627,0.00020
2285.53754,0.00017
2283.60882,0.00011
2281.68010,0.00006
2279.75137,0.00005
2277.82265,0.00005
2275.89392,0.00007
2273.96520,0.00012
2272.03648,0.00019
2270.10775,0.00020
2268.17903,0.00019
2266.25031,0.00020
2264.32158,0.00020
2262.39286,0.00018
2260.46414,0.00011
2258.53541,0.00004
2256.60669,0.00000
2254.67796,0.00001
2252.74924,-0.00000
2250.82052,-0.00003
2248.89179,-0.00004
2246.96307,-0.00000
2245.03435,0.00002
2243.10562,0.00002
2241.17690,0.00001
2239.24818,-0.00001
2237.31945,-0.00003
2235.39073,-0.00003
2233.46200,-0.00001
2231.53328,0.00004
2229.60456,0.00005
2227.67583,0.00001
2225.74711,-0.00007
2223.81839,-0.00012
2221.88966,-0.00007
2219.96094,0.00005
2218.03221,0.00011
2216.10349,0.00007
2214.17477,0.00004
2212.24604,0.00005
2210.31732,0.00006
2208.38860,0.00002
2206.45987,0.00000
2204.53115,-0.00000
2202.60243,0.00001
2200.67370,-0.00001
2198.74498,-0.00007
2196.81625,-0.00014
2194.88753,-0.00017
2192.95881,-0.00014
2191.03008,-0.00010
2189.10136,-0.00009
2187.17264,-0.00009
2185.24391,-0.00008
2183.31519,-0.00006
2181.38647,-0.00005
2179.45774,-0.00010
2177.52902,-0.00017
2175.60029,-0.00018
2173.67157,-0.00017
2171.74285,-0.00017
2169.81412,-0.00013
2167.88540,-0.00011
2165.95668,-0.00019
2164.02795,-0.00024
2162.09923,-0.00012
2160.17050,0.00006
2158.24178,0.00016
2156.31306,0.00018
2154.38433,0.00018
2152.45561,0.00015
2150.52689,0.00007
2148.59816,0.00000
2146.66944,-0.00004
2144.74072,0.00000
2142.81199,0.00012
2140.88327,0.00015
2138.95454,0.00008
2137.02582,0.00002
2135.09710,0.00007
2133.16837,0.00016
2131.23965,0.00016
2129.31093,0.00011
2127.38220,0.00009
2125.45348,0.00011
2123.52476,0.00011
2121.59603,0.00010
2119.66731,0.00008
2117.73858,0.00008
2115.80986,0.00011
2113.88114,0.00012
2111.95241,0.00008
2110.02369,0.00000
2108.09497,-0.00009
2106.16624,-0.00016
2104.23752,-0.00011
2102.30880,0.00005
2100.38007,0.00017
2098.45135,0.00018
2096.52262,0.00013
2094.59390,0.00007
2092.66518,0.00000
2090.73645,-0.00009
2088.80773,-0.00013
2086.87901,-0.00011
2084.95028,-0.00007
2083.02156,-0.00008
2081.09283,-0.00015
2079.16411,-0.00022
2077.23539,-0.00023
2075.30666,-0.00018
2073.37794,-0.00012
2071.44922,-0.00008
2069.52049,-0.00009
2067.59177,-0.00011
2065.66305,-0.00009
2063.73432,-0.00004
2061.80560,-0.00001
2059.87687,0.00001
2057.94815,0.00004
2056.01943,0.00009
2054.09070,0.00015
2052.16198,0.00021
2050.23326,0.00030
2048.30453,0.00043
2046.37581,0.00055
2044.44709,0.00067
2042.51836,0.00081
2040.58964,0.00095
2038.66091,0.00107
2036.73219,0.00116
2034.80347,0.00123
2032.87474,0.00134
2030.94602,0.00151
2029.01730,0.00168
2027.08857,0.00182
2025.15985,0.00191
2023.23112,0.00198
2021.30240,0.00206
2019.37368,0.00217
2017.44495,0.00236
2015.51623,0.00254
2013.58751,0.00262
2011.65878,0.00264
2009.73006,0.00269
2007.80134,0.00279
2005.87261,0.00287
2003.94389,0.00292
2002.01516,0.00295
2000.08644,0.00298
1998.15772,0.00296
1996.22899,0.00287
1994.30027,0.00279
1992.37155,0.00283
1990.44282,0.00287
1988.51410,0.00279
1986.58538,0.00268
1984.65665,0.00261
1982.72793,0.00256
1980.79920,0.00255
1978.87048,0.00255
1976.94176,0.00252
1975.01303,0.00244
1973.08431,0.00232
1971.15559,0.00212
1969.22686,0.00194
1967.29814,0.00189
1965.36941,0.00187
1963.44069,0.00175
1961.51197,0.00158
1959.58324,0.00146
1957.65452,0.00138
1955.72580,0.00126
1953.79707,0.00109
1951.86835,0.00093
1949.93963,0.00078
1948.01090,0.00065
1946.08218,0.00049
1944.15345,0.00039
1942.22473,0.00047
1940.29601,0.00055
1938.36728,0.00045
1936.43856,0.00031
1934.50984,0.00023
1932.58111,0.00017
1930.65239,0.00010
1928.72367,0.00003
1926.79494,0.00000
1924.86622,0.00007
1922.93749,0.00029
1921.00877,0.00047
1919.08005,0.00061
1917.15132,0.00083
1915.22260,0.00098
1913.29388,0.00101
1911.36515,0.00115
1909.43643,0.00149
1907.50770,0.00188
1905.57898,0.00223
1903.65026,0.00256
1901.72153,0.00287
1899.79281,0.00312
1897.86409,0.00341
1895.93536,0.00376
1894.00664,0.00409
1892.07792,0.00436
1890.14919,0.00473
1888.22047,0.00518
1886.29174,0.00548
1884.36302,0.00568
1882.43430,0.00588
1880.50557,0.00606
1878.57685,0.00619
1876.64813,0.00627
1874.71940,0.00623
1872.79068,0.00604
1870.86196,0.00594
1868.93323,0.00611
1867.00451,0.00626
1865.07578,0.00602
1863.14706,0.00553
1861.21834,0.00507
1859.28961,0.00474
1857.36089,0.00445
1855.43217,0.00413
1853.50344,0.00373
1851.57472,0.00327
1849.64599,0.00281
1847.71727,0.00241
1845.78855,0.00222
1843.85982,0.00224
1841.93110,0.00214
1840.00238,0.00178
1838.07365,0.00141
1836.14493,0.00111
1834.21621,0.00080
1832.28748,0.00051
1830.35876,0.00043
1828.43003,0.00046
1826.50131,0.00043
1824.57259,0.00039
1822.64386,0.00032
1820.71514,0.00017
1818.78642,0.00006
1816.85769,0.00003
1814.92897,0.00000
1813.00025,-0.00014
1811.07152,-0.00010
1809.14280,-0.00001
1807.21407,-0.00009
1805.28535,-0.00031
1803.35663,-0.00045
1801.42790,-0.00036
1799.49918,-0.00010
1797.57046,0.00008
1795.64173,0.00015
1793.71301,0.00041
1791.78428,0.00100
1789.85556,0.00148
1787.92684,0.00161
1785.99811,0.00173
1784.06939,0.00209
1782.14067,0.00259
1780.21194,0.00311
1778.28322,0.00348
1776.35450,0.00369
1774.42577,0.00410
1772.49705,0.00500
1770.56832,0.00603
1768.63960,0.00667
1766.71088,0.00697
1764.78215,0.00718
1762.85343,0.00761
1760.92471,0.00829
1758.99598,0.00890
1757.06726,0.00936
1755.13854,0.00967
1753.20981,0.00992
1751.28109,0.01060
1749.35236,0.01173
1747.42364,0.01269
1745.49492,0.01334
1743.56619,0.01401
1741.63747,0.01496
1739.70875,0.01610
1737.78002,0.01704
1735.85130,0.01802
1733.92257,0.01987
1731.99385,0.02193
1730.06513,0.02322
1728.13640,0.02410
1726.20768,0.02505
1724.27896,0.02618
1722.35023,0.02726
1720.42151,0.02827
1718.49279,0.03000
1716.56406,0.03266
1714.63534,0.03498
1712.70661,0.03641
1710.77789,0.03750
1708.84917,0.03882
1706.92044,0.04070
1704.99172,0.04284
1703.06300,0.04465
1701.13427,0.04681
1699.20555,0.05007
1697.27683,0.05360
1695.34810,0.05684
1693.41938,0.05934
1691.49065,0.06125
1689.56193,0.06320
1687.63321,0.06526
1685.70448,0.06826
1683.77576,0.07298
1681.84704,0.07700
1679.91831,0.07904
1677.98959,0.08058
1676.06087,0.08292
1674.13214,0.08585
1672.20342,0.08858
1670.27469,0.09150
1668.34597,0.09459
1666.41725,0.09674
1664.48852,0.09842
1662.55980,0.10071
1660.63108,0.10304
1658.70235,0.10433
1656.77363,0.10477
1654.84490,0.10599
1652.91618,0.10903
1650.98746,0.11143
1649.05873,0.11220
1647.13001,0.11324
1645.20129,0.11471
1643.27256,0.11542
1641.34384,0.11548
1639.41512,0.11547
1637.48639,0.11591
1635.55767,0.11692
1633.62894,0.11739
1631.70022,0.11679
1629.77150,0.11579
1627.84277,0.11488
1625.91405,0.11390
1623.98533,0.11261
1622.05660,0.11092
1620.12788,0.10885
1618.19916,0.10659
1616.27043,0.10430
1614.34171,0.10196
1612.41298,0.09949
1610.48426,0.09695
1608.55554,0.09441
1606.62681,0.09190
1604.69809,0.08935
1602.76937,0.08679
1600.84064,0.08435
1598.91192,0.08212
1596.98319,0.08006
1595.05447,0.07810
1593.12575,0.07622
1591.19702,0.07436
1589.26830,0.07247
1587.33958,0.07052
1585.41085,0.06855
1583.48213,0.06664
1581.55341,0.06476
1579.62468,0.06297
1577.69596,0.06154
1575.76723,0.06063
1573.83851,0.05976
1571.90979,0.05876
1569.98106,0.05804
1568.05234,0.05754
1566.12362,0.05677
1564.19489,0.05562
1562.26617,0.05431
1560.33745,0.05340
1558.40872,0.05336
1556.48000,0.05315
1554.55127,0.05223
1552.62255,0.05114
1550.69383,0.05008
1548.76510,0.04887
1546.83638,0.04738
1544.90766,0.04573
1542.97893,0.04416
1541.05021,0.04298
1539.12148,0.04210
1537.19276,0.04101
1535.26404,0.03975
1533.33531,0.03863
1531.40659,0.03753
1529.47787,0.03614
1527.54914,0.03458
1525.62042,0.03302
1523.69170,0.03144
1521.76297,0.02986
1519.83425,0.02836
1517.90552,0.02686
1515.97680,0.02523
1514.04808,0.02349
1512.11935,0.02164
1510.19063,0.01970
1508.26191,0.01781
1506.33318,0.01607
1504.40446,0.01432
1502.47574,0.01244
1500.54701,0.01056
1498.61829,0.00892
1496.68956,0.00754
1494.76084,0.00622
1492.83212,0.00494
1490.90339,0.00401
1488.97467,0.00354
1487.04595,0.00317
1485.11722,0.00271
1483.18850,0.00242
1481.25977,0.00245
1479.33105,0.00263
1477.40233,0.00287
1475.47360,0.00356
1473.54488,0.00527
1471.61616,0.00757
1469.68743,0.00916
1467.75871,0.01000
1465.82999,0.01094
1463.90126,0.01206
1461.97254,0.01270
1460.04381,0.01303
1458.11509,0.01403
1456.18637,0.01552
1454.25764,0.01612
1452.32892,0.01590
1450.40020,0.01566
1448.47147,0.01584
1446.54275,0.01630
1444.61403,0.01667
1442.68530,0.01685
1440.75658,0.01693
1438.82785,0.01716
1436.89913,0.01786
1434.97041,0.01870
1433.04168,0.01909
1431.11296,0.01939
1429.18424,0.01993
1427.25551,0.02053
1425.32679,0.02106
1423.39806,0.02158
1421.46934,0.02217
1419.54062,0.02314
1417.61189,0.02435
1415.68317,0.02516
1413.75445,0.02573
1411.82572,0.02656
1409.89700,0.02762
1407.96828,0.02868
1406.03955,0.02976
1404.11083,0.03072
1402.18210,0.03102
1400.25338,0.03052
1398.32466,0.02943
1396.39593,0.02789
1394.46721,0.02599
1392.53849,0.02387
1390.60976,0.02170
1388.68104,0.01969
1386.75232,0.01800
1384.82359,0.01660
1382.89487,0.01540
1380.96614,0.01436
1379.03742,0.01343
1377.10870,0.01257
1375.17997,0.01173
1373.25125,0.01084
1371.32253,0.00982
1369.39380,0.00874
1367.46508,0.00767
1365.53635,0.00664
1363.60763,0.00576
1361.67891,0.00505
1359.75018,0.00432
1357.82146,0.00350
1355.89274,0.00270
1353.96401,0.00207
1352.03529,0.00162
1350.10657,0.00131
1348.17784,0.00102
1346.24912,0.00069
1344.32039,0.00032
1342.39167,0.00000
1340.46295,-0.00018
1338.53422,-0.00025
1336.60550,-0.00038
1334.67678,-0.00058
1332.74805,-0.00070
1330.81933,-0.00067
1328.89061,-0.00059
1326.96188,-0.00064
1325.03316,-0.00079
1323.10443,-0.00086
1321.17571,-0.00070
1319.24699,-0.00043
1317.31826,-0.00024
1315.38954,-0.00014
1313.46082,0.00003
1311.53209,0.00029
1309.60337,0.00063
1307.67464,0.00106
1305.74592,0.00158
1303.81720,0.00217
1301.88847,0.00291
1299.95975,0.00387
1298.03103,0.00505
1296.10230,0.00633
1294.17358,0.00760
1292.24486,0.00891
1290.31613,0.01040
1288.38741,0.01213
1286.45868,0.01400
1284.52996,0.01594
1282.60124,0.01803
1280.67251,0.02046
1278.74379,0.02326
1276.81507,0.02629
1274.88634,0.02959
1272.95762,0.03337
1271.02890,0.03768
1269.10017,0.04252
1267.17145,0.04794
1265.24272,0.05396
1263.31400,0.06063
1261.38528,0.06812
1259.45655,0.07642
1257.52783,0.08536
1255.59911,0.09484
1253.67038,0.10464
1251.74166,0.11447
1249.81294,0.12403
1247.88421,0.13313
1245.95549,0.14173
1244.02676,0.14980
1242.09804,0.15712
1240.16932,0.16363
1238.24059,0.16955
1236.31187,0.17495
1234.38315,0.17979
1232.45442,0.18425
1230.52570,0.18847
1228.59697,0.19237
1226.66825,0.19582
1224.73953,0.19907
1222.81080,0.20231
1220.88208,0.20546
1218.95336,0.20843
1217.02463,0.21123
1215.09591,0.21386
1213.16719,0.21637
1211.23846,0.21879
1209.30974,0.22111
1207.38101,0.22357
1205.45229,0.22625
1203.52357,0.22887
1201.59484,0.23130
1199.66612,0.23367
1197.73740,0.23619
1195.80867,0.23897
1193.87995,0.24160
1191.95123,0.24375
1190.02250,0.24572
1188.09378,0.24792
1186.16505,0.25034
1184.23633,0.25290
1182.30761,0.25543
1180.37888,0.25784
1178.45016,0.26022
1176.52144,0.26258
1174.59271,0.26483
1172.66399,0.26697
1170.73526,0.26918
1168.80654,0.27153
1166.87782,0.27398
1164.94909,0.27654
1163.02037,0.27904
1161.09165,0.28122
1159.16292,0.28304
1157.23420,0.28469
1155.30548,0.28628
1153.37675,0.28789
1151.44803,0.28970
1149.51930,0.29159
1147.59058,0.29328
1145.66186,0.29477
1143.73313,0.29648
1141.80441,0.29884
1139.87569,0.30136
1137.94696,0.30328
1136.01824,0.30501
1134.08952,0.30707
1132.16079,0.30918
1130.23207,0.31134
1128.30334,0.31379
1126.37462,0.31655
1124.44590,0.31937
1122.51717,0.32226
1120.58845,0.32560
1118.65973,0.32926
1116.73100,0.33305
1114.80228,0.33722
1112.87355,0.34218
1110.94483,0.34800
1109.01611,0.35406
1107.08738,0.35975
1105.15866,0.36500
1103.22994,0.37002
1101.30121,0.37471
1099.37249,0.37879
1097.44377,0.38211
1095.51504,0.38492
1093.58632,0.38739
1091.65759,0.38920
1089.72887,0.39013
1087.80015,0.39036
1085.87142,0.39022
1083.94270,0.38971
1082.01398,0.38884
1080.08525,0.38809
1078.15653,0.38739
1076.22781,0.38613
1074.29908,0.38418
1072.37036,0.38188
1070.44163,0.37953
1068.51291,0.37668
1066.58419,0.37299
1064.65546,0.36923
1062.72674,0.36614
1060.79802,0.36310
1058.86929,0.35922
1056.94057,0.35479
1055.01184,0.35036
1053.08312,0.34586
1051.15440,0.34133
1049.22567,0.33704
1047.29695,0.33256
1045.36823,0.32739
1043.43950,0.32192
1041.51078,0.31662
1039.58206,0.31133
1037.65333,0.30577
1035.72461,0.30016
1033.79588,0.29466
1031.86716,0.28908
1029.93844,0.28339
1028.00971,0.27793
1026.08099,0.27277
1024.15227,0.26778
1022.22354,0.26306
1020.29482,0.25868
1018.36610,0.25459
1016.43737,0.25057
1014.50865,0.24657
1012.57992,0.24282
1010.65120,0.23929
1008.72248,0.23581
1006.79375,0.23226
1004.86503,0.22862
1002.93631,0.22504
1001.00758,0.22188
999.07886,0.21920
997.15013,0.21646
995.22141,0.21333
993.29269,0.21021
991.36396,0.20746
989.43524,0.20476
987.50652,0.20199
985.57779,0.19964
983.64907,0.19771
981.72035,0.19593
979.79162,0.19434
977.86290,0.19296
975.93417,0.19174
974.00545,0.19079
972.07673,0.19017
970.14800,0.18964
968.21928,0.18905
966.29056,0.18831
964.36183,0.18744
962.43311,0.18655
960.50439,0.18554
958.57566,0.18440
956.64694,0.18338
954.71821,0.18246
952.78949,0.18127
950.86077,0.17980
948.93204,0.17837
947.00332,0.17694
945.07460,0.17520
943.14587,0.17307
941.21715,0.17078
939.28842,0.16861
937.35970,0.16644
935.43098,0.16413
933.50225,0.16177
931.57353,0.15926
929.64481,0.15651
927.71608,0.15374
925.78736,0.15098
923.85864,0.14786
921.92991,0.14452
920.00119,0.14146
918.07246,0.13864
916.14374,0.13576
914.21502,0.13271
912.28629,0.12950
910.35757,0.12615
908.42885,0.12270
906.50012,0.11917
904.57140,0.11556
902.64268,0.11179
900.71395,0.10798
898.78523,0.10447
896.85650,0.10137
894.92778,0.09838
892.99906,0.09522
891.07033,0.09190
889.14161,0.08858
887.21289,0.08526
885.28416,0.08200
883.35544,0.07900
881.42671,0.07637
879.49799,0.07388
877.56927,0.07116
875.64054,0.06825
873.71182,0.06573
871.78310,0.06383
869.85437,0.06207
867.92565,0.06016
865.99693,0.05835
864.06820,0.05658
862.13948,0.05437
860.21075,0.05195
858.28203,0.04992
856.35331,0.04815
854.42458,0.04635
852.49586,0.04457
850.56714,0.04290
848.63841,0.04147
846.70969,0.04064
844.78097,0.04044
842.85224,0.04052
840.92352,0.04081
838.99479,0.04143
837.06607,0.04250
835.13735,0.04418
833.20862,0.04612
831.27990,0.04782
829.35118,0.04939
827.42245,0.05124
825.49373,0.05334
823.56501,0.05548
821.63628,0.05769
819.70756,0.05993
817.77883,0.06204
815.85011,0.06425
813.92139,0.06693
811.99266,0.06959
810.06394,0.07178
808.13522,0.07400
806.20649,0.07646
804.27777,0.07870
802.34904,0.08040
800.42032,0.08165
798.49160,0.08251
796.56287,0.08298
794.63415,0.08341
792.70543,0.08392
790.77670,0.08385
788.84798,0.08251
786.91926,0.08030
784.99053,0.07821
783.06181,0.07638
781.13308,0.07417
779.20436,0.07139
777.27564,0.06851
775.34691,0.06594
773.41819,0.06361
771.48947,0.06132
769.56074,0.05903
767.63202,0.05729
765.70330,0.05645
763.77457,0.05593
761.84585,0.05541
759.91712,0.05516
757.98840,0.05513
756.05968,0.05510
754.13095,0.05489
752.20223,0.05451
750.27351,0.05406
748.34478,0.05359
746.41606,0.05333
744.48733,0.05330
742.55861,0.05319
740.62989,0.05286
738.70116,0.05252
736.77244,0.05214
734.84372,0.05173
732.91499,0.05176
730.98627,0.05226
729.05755,0.05243
727.12882,0.05215
725.20010,0.05205
723.27137,0.05188
721.34265,0.05163
719.41393,0.05159
717.48520,0.05159
715.55648,0.05143
713.62776,0.05145
711.69903,0.05186
709.77031,0.05230
707.84159,0.05264
705.91286,0.05319
703.98414,0.05375
702.05541,0.05392
700.12669,0.05407
698.19797,0.05466
696.26924,0.05541
694.34052,0.05590
692.41180,0.05611
690.48307,0.05619
688.55435,0.05632
686.62562,0.05643
684.69690,0.05648
682.76818,0.05665
680.83945,0.05684
678.91073,0.05678
676.98201,0.05658
675.05328,0.05634
673.12456,0.05576
671.19584,0.05487
669.26711,0.05453
667.33839,0.05532
665.40966,0.05631
663.48094,0.05674
661.55222,0.05680
659.62349,0.05695
657.69477,0.05748
655.76605,0.05844
653.83732,0.05972
651.90860,0.06124
649.97988,0.06278
648.05115,0.06429
646.12243,0.06606
644.19370,0.06848
642.26498,0.07135
640.33626,0.07393
638.40753,0.07571
636.47881,0.07699
634.55009,0.07833
632.62136,0.07981
630.69264,0.08114
628.76391,0.08205
626.83519,0.08255
624.90647,0.08304
622.97774,0.08374
621.04902,0.08436
619.12030,0.08504
617.19157,0.08633
615.26285,0.08800
613.33413,0.08904
611.40540,0.08922
609.47668,0.08956
607.54795,0.09079
605.61923,0.09282
603.69051,0.09511
601.76178,0.09708
599.83306,0.09890
597.90434,0.10086
595.97561,0.10251
594.04689,0.10366
592.11817,0.10486
590.18944,0.10648
588.26072,0.10842
586.33199,0.11013
584.40327,0.11111
582.47455,0.11165
580.54582,0.11213
578.61710,0.11265
576.68838,0.11324
574.75965,0.11300
572.83093,0.11159
570.90220,0.11051
568.97348,0.11074
567.04476,0.11098
565.11603,0.11033
563.18731,0.10997
561.25859,0.11043
559.32986,0.11059
557.40114,0.11015
555.47242,0.10984
553.54369,0.11003
551.61497,0.11105
549.68624,0.11288
547.75752,0.11466
545.82880,0.11596
543.90007,0.11727
541.97135,0.11876
540.04263,0.11957
538.11390,0.11861
536.18518,0.11680
534.25646,0.11609
532.32773,0.11636
530.39901,0.11572
528.47028,0.11335
526.54156,0.11061
524.61284,0.10964
522.68411,0.11095
520.75539,0.11300
518.82667,0.11385
516.89794,0.11353
514.96922,0.11435
513.04049,0.11725
511.11177,0.12029
509.18305,0.12200
507.25432,0.12399
505.32560,0.12806
503.39688,0.13308
501.46815,0.13717
499.53943,0.14043
497.61071,0.14406
495.68198,0.14833
493.75326,0.15302
491.82453,0.15845
489.89581,0.16490
487.96709,0.17222
486.03836,0.18017
484.10964,0.18880
482.18092,0.19809
480.25219,0.20685
478.32347,0.21318
476.39475,0.21678
474.46602,0.21949
472.53730,0.22346
470.60857,0.22925
468.67985,0.23485
466.75113,0.23736
464.82240,0.23544
462.89368,0.22985
460.96496,0.22400
459.03623,0.22276
457.10751,0.22668
455.17878,0.22948
453.25006,0.22522
451.32134,0.21503
449.39261,0.20601
447.46389,0.20241
445.53517,0.20199
443.60644,0.20153
441.67772,0.19952
439.74900,0.19470
437.82027,0.18803
435.89155,0.18278
433.96282,0.17989
432.03410,0.17731
430.10538,0.17367
428.17665,0.16833
426.24793,0.16149
424.31921,0.15509
422.39048,0.14953
420.46176,0.14303
418.53304,0.13696
416.60431,0.13361
414.67559,0.13038
412.74686,0.12481
410.81814,0.11674
408.88942,0.10885
406.96069,0.10596
405.03197,0.10767
403.10325,0.10784
401.17452,0.10498
399.24580,0.10376
397.31708,0.09935
395.38835,0.08225
393.45963,0.06617
391.53090,0.06455
389.60218,0.07244
387.67346,0.08545
385.74473,0.10355
383.81601,0.11564
381.88729,0.11040
379.95856,0.10357
378.02984,0.11172
376.10111,0.11758
374.17239,0.09771
372.24367,0.06681
370.31494,0.03550
368.38622,0.00000
