3996.31543,0.00000
3994.38671,0.00010
3992.45799,0.00022
3990.52926,0.00021
3988.60054,0.00025
3986.67182,0.00044
3984.74309,0.00063
3982.81437,0.00064
3980.88564,0.00056
3978.95692,0.00055
3977.02820,0.00057
3975.09947,0.00056
3973.17075,0.00063
3971.24203,0.00084
3969.31330,0.00110
3967.38458,0.00129
3965.45586,0.00136
3963.52713,0.00131
3961.59841,0.00131
3959.66968,0.00137
3957.74096,0.00134
3955.81224,0.00134
3953.88351,0.00147
3951.95479,0.00154
3950.02607,0.00143
3948.09734,0.00156
3946.16862,0.00192
3944.23990,0.00169
3942.31117,0.00108
3940.38245,0.00102
3938.45372,0.00147
3936.52500,0.00206
3934.59628,0.00226
3932.66755,0.00184
3930.73883,0.00149
3928.81011,0.00176
3926.88138,0.00202
3924.95266,0.00192
3923.02393,0.00208
3921.09521,0.00226
3919.16649,0.00189
3917.23776,0.00131
3915.30904,0.00124
3913.38032,0.00155
3911.45159,0.00200
3909.52287,0.00290
3907.59415,0.00379
3905.66542,0.00374
3903.73670,0.00293
3901.80797,0.00191
3899.87925,0.00090
3897.95053,0.00112
3896.02180,0.00245
3894.09308,0.00294
3892.16436,0.00218
3890.23563,0.00224
3888.30691,0.00299
3886.37819,0.00266
3884.44946,0.00247
3882.52074,0.00245
3880.59201,0.00187
3878.66329,0.00243
3876.73457,0.00351
3874.80584,0.00370
3872.87712,0.00342
3870.94840,0.00249
3869.01967,0.00226
3867.09095,0.00297
3865.16222,0.00246
3863.23350,0.00154
3861.30478,0.00201
3859.37605,0.00391
3857.44733,0.00583
3855.51861,0.00517
3853.58988,0.00160
3851.66116,0.00000
3849.73244,0.00132
3847.80371,0.00310
3845.87499,0.00406
3843.94626,0.00445
3842.01754,0.00455
3840.08882,0.00363
3838.16009,0.00224
3836.23137,0.00205
3834.30265,0.00258
3832.37392,0.00270
3830.44520,0.00291
3828.51648,0.00323
3826.58775,0.00386
3824.65903,0.00489
3822.73030,0.00432
3820.80158,0.00297
3818.87286,0.00312
3816.94413,0.00255
3815.01541,0.00185
3813.08669,0.00287
3811.15796,0.00429
3809.22924,0.00459
3807.30052,0.00422
3805.37179,0.00499
3803.44307,0.00496
3801.51434,0.00330
3799.58562,0.00304
3797.65690,0.00333
3795.72817,0.00335
3793.79945,0.00382
3791.87073,0.00435
3789.94200,0.00476
3788.01328,0.00503
3786.08455,0.00508
3784.15583,0.00551
3782.22711,0.00609
3780.29838,0.00568
3778.36966,0.00525
3776.44094,0.00595
3774.51221,0.00721
3772.58349,0.00792
3770.65477,0.00766
3768.72604,0.00744
3766.79732,0.00752
3764.86859,0.00810
3762.93987,0.00932
3761.01115,0.00980
3759.08242,0.00984
3757.15370,0.01109
3755.22498,0.01305
3753.29625,0.01353
3751.36753,0.01249
3749.43881,0.01293
3747.51008,0.01464
3745.58136,0.01417
3743.65263,0.01356
3741.72391,0.01581
3739.79519,0.01883
3737.86646,0.02039
3735.93774,0.02009
3734.00902,0.01957
3732.08029,0.02072
3730.15157,0.02356
3728.22284,0.02622
3726.29412,0.02792
3724.36540,0.02936
3722.43667,0.03088
3720.50795,0.03293
3718.57923,0.03592
3716.65050,0.03971
3714.72178,0.04304
3712.79306,0.04476
3710.86433,0.04625
3708.93561,0.04940
3707.00688,0.05363
3705.07816,0.05749
3703.14944,0.06033
3701.22071,0.06327
3699.29199,0.06713
3697.36327,0.07108
3695.43454,0.07511
3693.50582,0.07905
3691.57710,0.08188
3689.64837,0.08380
3687.71965,0.08695
3685.79092,0.09182
3683.86220,0.09681
3681.93348,0.10155
3680.00475,0.10629
3678.07603,0.11029
3676.14731,0.11340
3674.21858,0.11808
3672.28986,0.12267
3670.36113,0.12504
3668.43241,0.12834
3666.50369,0.13296
3664.57496,0.13708
3662.64624,0.14084
3660.71752,0.14474
3658.78879,0.14812
3656.86007,0.15092
3654.93135,0.15496
3653.00262,0.15935
3651.07390,0.16141
3649.14517,0.16194
3647.21645,0.16392
3645.28773,0.16783
3643.35900,0.17159
3641.43028,0.17440
3639.50156,0.17685
3637.57283,0.17941
3635.64411,0.18213
3633.71539,0.18518
3631.78666,0.18774
3629.85794,0.18818
3627.92921,0.18878
3626.00049,0.19187
3624.07177,0.19549
3622.14304,0.19785
3620.21432,0.19873
3618.28560,0.19975
3616.35687,0.20164
3614.42815,0.20319
3612.49942,0.20459
3610.57070,0.20605
3608.64198,0.20696
3606.71325,0.20816
3604.78453,0.21016
3602.85581,0.21196
3600.92708,0.21326
3598.99836,0.21462
3597.06964,0.21598
3595.14091,0.21728
3593.21219,0.21926
3591.28346,0.22156
3589.35474,0.22237
3587.42602,0.22204
3585.49729,0.22299
3583.56857,0.22500
3581.63985,0.22671
3579.71112,0.22803
3577.78240,0.22920
3575.85368,0.23033
3573.92495,0.23180
3571.99623,0.23374
3570.06750,0.23519
3568.13878,0.23514
3566.21006,0.23484
3564.28133,0.23580
3562.35261,0.23727
3560.42389,0.23861
3558.49516,0.24006
3556.56644,0.24160
3554.63771,0.24273
3552.70899,0.24347
3550.78027,0.24451
3548.85154,0.24566
3546.92282,0.24622
3544.99410,0.24662
3543.06537,0.24758
3541.13665,0.24898
3539.20793,0.25018
3537.27920,0.25089
3535.35048,0.25164
3533.42175,0.25271
3531.49303,0.25372
3529.56431,0.25444
3527.63558,0.25513
3525.70686,0.25588
3523.77814,0.25653
3521.84941,0.25725
3519.92069,0.25810
3517.99197,0.25896
3516.06324,0.25986
3514.13452,0.26070
3512.20579,0.26137
3510.27707,0.26198
3508.34835,0.26286
3506.41962,0.26372
3504.49090,0.26400
3502.56218,0.26420
3500.63345,0.26492
3498.70473,0.26583
3496.77600,0.26663
3494.84728,0.26749
3492.91856,0.26838
3490.98983,0.26895
3489.06111,0.26913
3487.13239,0.26944
3485.20366,0.27021
3483.27494,0.27096
3481.34622,0.27153
3479.41749,0.27220
3477.48877,0.27273
3475.56004,0.27286
3473.63132,0.27302
3471.70260,0.27365
3469.77387,0.27450
3467.84515,0.27518
3465.91643,0.27565
3463.98770,0.27595
3462.05898,0.27619
3460.13026,0.27660
3458.20153,0.27711
3456.27281,0.27753
3454.34408,0.27794
3452.41536,0.27854
3450.48664,0.27925
3448.55791,0.27948
3446.62919,0.27950
3444.70047,0.27986
3442.77174,0.28006
3440.84302,0.27999
3438.91429,0.27993
3436.98557,0.28013
3435.05685,0.28068
3433.12812,0.28129
3431.19940,0.28172
3429.27068,0.28192
3427.34195,0.28186
3425.41323,0.28179
3423.48451,0.28190
3421.55578,0.28208
3419.62706,0.28236
3417.69833,0.28270
3415.76961,0.28286
3413.84089,0.28288
3411.91216,0.28279
3409.98344,0.28279
3408.05472,0.28305
3406.12599,0.28335
3404.19727,0.28350
3402.26855,0.28362
3400.33982,0.28385
3398.41110,0.28409
3396.48237,0.28427
3394.55365,0.28421
3392.62493,0.28386
3390.69620,0.28353
3388.76748,0.28335
3386.83876,0.28318
3384.91003,0.28300
3382.98131,0.28297
3381.05259,0.28303
3379.12386,0.28302
3377.19514,0.28292
3375.26641,0.28290
3373.33769,0.28294
3371.40897,0.28288
3369.48024,0.28276
3367.55152,0.28267
3365.62280,0.28254
3363.69407,0.28238
3361.76535,0.28218
3359.83662,0.28176
3357.90790,0.28121
3355.97918,0.28096
3354.05045,0.28098
3352.12173,0.28090
3350.19301,0.28068
3348.26428,0.28045
3346.33556,0.28024
3344.40684,0.28010
3342.47811,0.27995
3340.54939,0.27968
3338.62066,0.27928
3336.69194,0.27891
3334.76322,0.27874
3332.83449,0.27862
3330.90577,0.27836
3328.97705,0.27805
3327.04832,0.27783
3325.11960,0.27758
3323.19088,0.27715
3321.26215,0.27668
3319.33343,0.27637
3317.40470,0.27613
3315.47598,0.27570
3313.54726,0.27512
3311.61853,0.27465
3309.68981,0.27433
3307.76109,0.27417
3305.83236,0.27412
3303.90364,0.27398
3301.97491,0.27372
3300.04619,0.27352
3298.11747,0.27340
3296.18874,0.27325
3294.26002,0.27295
3292.33130,0.27255
3290.40257,0.27224
3288.47385,0.27195
3286.54513,0.27159
3284.61640,0.27128
3282.68768,0.27099
3280.75895,0.27066
3278.83023,0.27044
3276.90151,0.27026
3274.97278,0.26989
3273.04406,0.26933
3271.11534,0.26871
3269.18661,0.26813
3267.25789,0.26776
3265.32917,0.26758
3263.40044,0.26742
3261.47172,0.26721
3259.54299,0.26683
3257.61427,0.26620
3255.68555,0.26539
3253.75682,0.26466
3251.82810,0.26423
3249.89938,0.26399
3247.97065,0.26373
3246.04193,0.26331
3244.11320,0.26277
3242.18448,0.26227
3240.25576,0.26180
3238.32703,0.26122
3236.39831,0.26060
3234.46959,0.26011
3232.54086,0.25972
3230.61214,0.25933
3228.68342,0.25877
3226.75469,0.25802
3224.82597,0.25721
3222.89724,0.25645
3220.96852,0.25582
3219.03980,0.25540
3217.11107,0.25499
3215.18235,0.25436
3213.25363,0.25373
3211.32490,0.25328
3209.39618,0.25279
3207.46746,0.25219
3205.53873,0.25151
3203.61001,0.25077
3201.68128,0.25005
3199.75256,0.24944
3197.82384,0.24891
3195.89511,0.24832
3193.96639,0.24758
3192.03767,0.24687
3190.10894,0.24625
3188.18022,0.24547
3186.25149,0.24451
3184.32277,0.24360
3182.39405,0.24280
3180.46532,0.24195
3178.53660,0.24107
3176.60788,0.24034
3174.67915,0.23969
3172.75043,0.23895
3170.82171,0.23814
3168.89298,0.23725
3166.96426,0.23632
3165.03553,0.23534
3163.10681,0.23439
3161.17809,0.23362
3159.24936,0.23297
3157.32064,0.23232
3155.39192,0.23167
3153.46319,0.23095
3151.53447,0.23013
3149.60575,0.22929
3147.67702,0.22838
3145.74830,0.22730
3143.81957,0.22620
3141.89085,0.22530
3139.96213,0.22461
3138.03340,0.22408
3136.10468,0.22349
3134.17596,0.22262
3132.24723,0.22163
3130.31851,0.22073
3128.38978,0.21986
3126.46106,0.21900
3124.53234,0.21818
3122.60361,0.21745
3120.67489,0.21674
3118.74617,0.21591
3116.81744,0.21494
3114.88872,0.21402
3112.96000,0.21320
3111.03127,0.21234
3109.10255,0.21140
3107.17382,0.21043
3105.24510,0.20950
3103.31638,0.20855
3101.38765,0.20761
3099.45893,0.20679
3097.53021,0.20598
3095.60148,0.20499
3093.67276,0.20386
3091.74404,0.20269
3089.81531,0.20161
3087.88659,0.20065
3085.95786,0.19972
3084.02914,0.19875
3082.10042,0.19780
3080.17169,0.19686
3078.24297,0.19584
3076.31425,0.19474
3074.38552,0.19368
3072.45680,0.19270
3070.52807,0.19177
3068.59935,0.19081
3066.67063,0.18979
3064.74190,0.18875
3062.81318,0.18770
3060.88446,0.18662
3058.95573,0.18553
3057.02701,0.18452
3055.09829,0.18367
3053.16956,0.18283
3051.24084,0.18185
3049.31211,0.18075
3047.38339,0.17969
3045.45467,0.17874
3043.52594,0.17783
3041.59722,0.17683
3039.66850,0.17576
3037.73977,0.17475
3035.81105,0.17386
3033.88233,0.17298
3031.95360,0.17203
3030.02488,0.17110
3028.09615,0.17019
3026.16743,0.16924
3024.23871,0.16838
3022.30998,0.16766
3020.38126,0.16702
3018.45254,0.16631
3016.52381,0.16541
3014.59509,0.16453
3012.66636,0.16384
3010.73764,0.16323
3008.80892,0.16260
3006.88019,0.16194
3004.95147,0.16125
3003.02275,0.16061
3001.09402,0.16008
2999.16530,0.15952
2997.23658,0.15886
2995.30785,0.15820
2993.37913,0.15762
2991.45040,0.15712
2989.52168,0.15676
2987.59296,0.15652
2985.66423,0.15628
2983.73551,0.15600
2981.80679,0.15582
2979.87806,0.15581
2977.94934,0.15577
2976.02062,0.15556
2974.09189,0.15551
2972.16317,0.15581
2970.23444,0.15620
2968.30572,0.15650
2966.37700,0.15683
2964.44827,0.15720
2962.51955,0.15741
2960.59083,0.15739
2958.66210,0.15715
2956.73338,0.15682
2954.80466,0.15648
2952.87593,0.15607
2950.94721,0.15561
2949.01848,0.15532
2947.08976,0.15534
2945.16104,0.15561
2943.23231,0.15600
2941.30359,0.15655
2939.37487,0.15738
2937.44614,0.15841
2935.51742,0.15946
2933.58869,0.16042
2931.65997,0.16124
2929.73125,0.16180
2927.80252,0.16199
2925.87380,0.16166
2923.94508,0.16070
2922.01635,0.15917
2920.08763,0.15716
2918.15891,0.15467
2916.23018,0.15191
2914.30146,0.14924
2912.37273,0.14677
2910.44401,0.14450
2908.51529,0.14254
2906.58656,0.14083
2904.65784,0.13924
2902.72912,0.13771
2900.80039,0.13623
2898.87167,0.13476
2896.94295,0.13332
2895.01422,0.13193
2893.08550,0.13052
2891.15677,0.12915
2889.22805,0.12794
2887.29933,0.12684
2885.37060,0.12581
2883.44188,0.12493
2881.51316,0.12414
2879.58443,0.12330
2877.65571,0.12244
2875.72698,0.12177
2873.79826,0.12129
2871.86954,0.12080
2869.94081,0.12014
2868.01209,0.11946
2866.08337,0.11903
2864.15464,0.11891
2862.22592,0.11903
2860.29720,0.11931
2858.36847,0.11981
2856.43975,0.12048
2854.51102,0.12084
2852.58230,0.12021
2850.65358,0.11830
2848.72485,0.11534
2846.79613,0.11192
2844.86741,0.10859
2842.93868,0.10561
2841.00996,0.10309
2839.08124,0.10100
2837.15251,0.09918
2835.22379,0.09755
2833.29506,0.09612
2831.36634,0.09490
2829.43762,0.09380
2827.50889,0.09268
2825.58017,0.09157
2823.65145,0.09050
2821.72272,0.08957
2819.79400,0.08873
2817.86527,0.08783
2815.93655,0.08692
2814.00783,0.08605
2812.07910,0.08517
2810.15038,0.08433
2808.22166,0.08354
2806.29293,0.08273
2804.36421,0.08194
2802.43549,0.08120
2800.50676,0.08049
2798.57804,0.07981
2796.64931,0.07911
2794.72059,0.07835
2792.79187,0.07761
2790.86314,0.07694
2788.93442,0.07618
2787.00570,0.07532
2785.07697,0.07458
2783.14825,0.07396
2781.21953,0.07331
2779.29080,0.07265
2777.36208,0.07206
2775.43335,0.07149
2773.50463,0.07088
2771.57591,0.07021
2769.64718,0.06956
2767.71846,0.06896
2765.78974,0.06834
2763.86101,0.06767
2761.93229,0.06705
2760.00356,0.06647
2758.07484,0.06586
2756.14612,0.06520
2754.21739,0.06464
2752.28867,0.06421
2750.35995,0.06371
2748.43122,0.06309
2746.50250,0.06247
2744.57378,0.06190
2742.64505,0.06128
2740.71633,0.06063
2738.78760,0.06004
2736.85888,0.05951
2734.93016,0.05900
2733.00143,0.05853
2731.07271,0.05804
2729.14399,0.05752
2727.21526,0.05699
2725.28654,0.05638
2723.35782,0.05570
2721.42909,0.05505
2719.50037,0.05444
2717.57164,0.05390
2715.64292,0.05341
2713.71420,0.05289
2711.78547,0.05232
2709.85675,0.05182
2707.92803,0.05134
2705.99930,0.05074
2704.07058,0.05013
2702.14185,0.04961
2700.21313,0.04912
2698.28441,0.04859
2696.35568,0.04805
2694.42696,0.04761
2692.49824,0.04723
2690.56951,0.04683
2688.64079,0.04638
2686.71207,0.04590
2684.78334,0.04541
2682.85462,0.04496
2680.92589,0.04455
2678.99717,0.04407
2677.06845,0.04352
2675.13972,0.04300
2673.21100,0.04252
2671.28228,0.04203
2669.35355,0.04155
2667.42483,0.04107
2665.49611,0.04052
2663.56738,0.03994
2661.63866,0.03948
2659.70993,0.03915
2657.78121,0.03882
2655.85249,0.03838
2653.92376,0.03786
2651.99504,0.03736
2650.06632,0.03700
2648.13759,0.03671
2646.20887,0.03627
2644.28014,0.03570
2642.35142,0.03518
2640.42270,0.03476
2638.49397,0.03443
2636.56525,0.03410
2634.63653,0.03370
2632.70780,0.03327
2630.77908,0.03287
2628.85036,0.03242
2626.92163,0.03192
2624.99291,0.03147
2623.06418,0.03115
2621.13546,0.03085
2619.20674,0.03047
2617.27801,0.03010
2615.34929,0.02977
2613.42057,0.02945
2611.49184,0.02907
2609.56312,0.02864
2607.63440,0.02820
2605.70567,0.02785
2603.77695,0.02760
2601.84822,0.02733
2599.91950,0.02699
2597.99078,0.02661
2596.06205,0.02620
2594.13333,0.02573
2592.20461,0.02532
2590.27588,0.02505
2588.34716,0.02482
2586.41843,0.02454
2584.48971,0.02423
2582.56099,0.02391
2580.63226,0.02356
2578.70354,0.02321
2576.77482,0.02295
2574.84609,0.02275
2572.91737,0.02253
2570.98865,0.02227
2569.05992,0.02196
2567.13120,0.02164
2565.20247,0.02133
2563.27375,0.02105
2561.34503,0.02078
2559.41630,0.02052
2557.48758,0.02028
2555.55886,0.02005
2553.63013,0.01980
2551.70141,0.01963
2549.77269,0.01955
2547.84396,0.01937
2545.91524,0.01901
2543.98651,0.01865
2542.05779,0.01847
2540.12907,0.01833
2538.20034,0.01810
2536.27162,0.01784
2534.34290,0.01760
2532.41417,0.01736
2530.48545,0.01715
2528.55673,0.01691
2526.62800,0.01658
2524.69928,0.01630
2522.77055,0.01616
2520.84183,0.01603
2518.91311,0.01583
2516.98438,0.01558
2515.05566,0.01529
2513.12694,0.01500
2511.19821,0.01471
2509.26949,0.01444
2507.34076,0.01422
2505.41204,0.01405
2503.48332,0.01393
2501.55459,0.01386
2499.62587,0.01375
2497.69715,0.01352
2495.76842,0.01324
2493.83970,0.01304
2491.91098,0.01289
2489.98225,0.01270
2488.05353,0.01249
2486.12480,0.01230
2484.19608,0.01209
2482.26736,0.01189
2480.33863,0.01173
2478.40991,0.01148
2476.48119,0.01115
2474.55246,0.01088
2472.62374,0.01073
2470.69502,0.01060
2468.76629,0.01044
2466.83757,0.01024
2464.90884,0.01002
2462.98012,0.00977
2461.05140,0.00952
2459.12267,0.00927
2457.19395,0.00908
2455.26523,0.00894
2453.33650,0.00883
2451.40778,0.00870
2449.47905,0.00855
2447.55033,0.00838
2445.62161,0.00816
2443.69288,0.00792
2441.76416,0.00779
2439.83544,0.00778
2437.90671,0.00770
2435.97799,0.00747
2434.04927,0.00724
2432.12054,0.00701
2430.19182,0.00682
2428.26309,0.00668
2426.33437,0.00656
2424.40565,0.00641
2422.47692,0.00625
2420.54820,0.00606
2418.61948,0.00586
2416.69075,0.00570
2414.76203,0.00558
2412.83331,0.00543
2410.90458,0.00525
2408.97586,0.00509
2407.04713,0.00497
2405.11841,0.00488
2403.18969,0.00480
2401.26096,0.00472
2399.33224,0.00462
2397.40352,0.00448
2395.47479,0.00432
2393.54607,0.00414
2391.61734,0.00396
2389.68862,0.00380
2387.75990,0.00370
2385.83117,0.00371
2383.90245,0.00383
2381.97373,0.00399
2380.04500,0.00411
2378.11628,0.00423
2376.18756,0.00441
2374.25883,0.00459
2372.33011,0.00466
2370.40138,0.00453
2368.47266,0.00425
2366.54394,0.00396
2364.61521,0.00378
2362.68649,0.00370
2360.75777,0.00362
2358.82904,0.00355
2356.90032,0.00338
2354.97160,0.00292
2353.04287,0.00228
2351.11415,0.00201
2349.18542,0.00244
2347.25670,0.00313
2345.32798,0.00345
2343.39925,0.00335
2341.47053,0.00318
2339.54181,0.00301
2337.61308,0.00272
2335.68436,0.00244
2333.75563,0.00236
2331.82691,0.00243
2329.89819,0.00242
2327.96946,0.00222
2326.04074,0.00198
2324.11202,0.00186
2322.18329,0.00174
2320.25457,0.00152
2318.32585,0.00131
2316.39712,0.00122
2314.46840,0.00125
2312.53967,0.00132
2310.61095,0.00135
2308.68223,0.00132
2306.75350,0.00126
2304.82478,0.00121
2302.89606,0.00115
2300.96733,0.00108
2299.03861,0.00106
2297.10989,0.00110
2295.18116,0.00105
2293.25244,0.00092
2291.32371,0.00077
2289.39499,0.00068
2287.46627,0.00066
2285.53754,0.00067
2283.60882,0.00065
2281.68010,0.00063
2279.75137,0.00064
2277.82265,0.00067
2275.89392,0.00064
2273.96520,0.00056
2272.03648,0.00053
2270.10775,0.00057
2268.17903,0.00062
2266.25031,0.00061
2264.32158,0.00054
2262.39286,0.00045
2260.46414,0.00039
2258.53541,0.00039
2256.60669,0.00042
2254.67796,0.00042
2252.74924,0.00038
2250.82052,0.00038
2248.89179,0.00038
2246.96307,0.00030
2245.03435,0.00022
2243.10562,0.00025
2241.17690,0.00033
2239.24818,0.00038
2237.31945,0.00036
2235.39073,0.00028
2233.46200,0.00018
2231.53328,0.00008
2229.60456,-0.00000
2227.67583,-0.00001
2225.74711,0.00008
2223.81839,0.00019
2221.88966,0.00027
2219.96094,0.00027
2218.03221,0.00018
2216.10349,0.00008
2214.17477,0.00006
2212.24604,0.00005
2210.31732,0.00000
2208.38860,-0.00002
2206.45987,0.00000
2204.53115,-0.00000
2202.60243,-0.00000
2200.67370,0.00002
2198.74498,0.00002
2196.81625,-0.00003
2194.88753,-0.00006
2192.95881,-0.00005
2191.03008,-0.00002
2189.10136,0.00002
2187.17264,0.00007
2185.24391,0.00012
2183.31519,0.00016
2181.38647,0.00018
2179.45774,0.00021
2177.52902,0.00026
2175.60029,0.00027
2173.67157,0.00026
2171.74285,0.00026
2169.81412,0.00028
2167.88540,0.00034
2165.95668,0.00038
2164.02795,0.00039
2162.09923,0.00043
2160.17050,0.00046
2158.24178,0.00043
2156.31306,0.00044
2154.38433,0.00054
2152.45561,0.00064
2150.52689,0.00065
2148.59816,0.00060
2146.66944,0.00060
2144.74072,0.00060
2142.81199,0.00054
2140.88327,0.00052
2138.95454,0.00056
2137.02582,0.00059
2135.09710,0.00059
2133.16837,0.00062
2131.23965,0.00064
2129.31093,0.00058
2127.38220,0.00049
2125.45348,0.00045
2123.52476,0.00045
2121.59603,0.00047
2119.66731,0.00050
2117.73858,0.00054
2115.80986,0.00055
2113.88114,0.00049
2111.95241,0.00040
2110.02369,0.00036
2108.09497,0.00036
2106.16624,0.00032
2104.23752,0.00022
2102.30880,0.00015
2100.38007,0.00016
2098.45135,0.00024
2096.52262,0.00031
2094.59390,0.00032
2092.66518,0.00027
2090.73645,0.00018
2088.80773,0.00008
2086.87901,0.00000
2084.95028,-0.00003
2083.02156,0.00003
2081.09283,0.00005
2079.16411,-0.00001
2077.23539,-0.00011
2075.30666,-0.00021
2073.37794,-0.00028
2071.44922,-0.00027
2069.52049,-0.00015
2067.59177,-0.00004
2065.66305,-0.00008
2063.73432,-0.00009
2061.80560,-0.00003
2059.87687,-0.00001
2057.94815,0.00002
2056.01943,0.00009
2054.09070,0.00019
2052.16198,0.00036
2050.23326,0.00052
2048.30453,0.00064
2046.37581,0.00080
2044.44709,0.00098
2042.51836,0.00108
2040.58964,0.00125
2038.66091,0.00155
2036.73219,0.00180
2034.80347,0.00193
2032.87474,0.00204
2030.94602,0.00218
2029.01730,0.00237
2027.08857,0.00259
2025.15985,0.00281
2023.23112,0.00301
2021.30240,0.00320
2019.37368,0.00329
2017.44495,0.00328
2015.51623,0.00344
2013.58751,0.00372
2011.65878,0.00388
2009.73006,0.00394
2007.80134,0.00393
2005.87261,0.00397
2003.94389,0.00416
2002.01516,0.00432
2000.08644,0.00433
1998.15772,0.00430
1996.22899,0.00443
1994.30027,0.00440
1992.37155,0.00406
1990.44282,0.00398
1988.51410,0.00406
1986.58538,0.00403
1984.65665,0.00395
1982.72793,0.00382
1980.79920,0.00371
1978.87048,0.00362
1976.94176,0.00348
1975.01303,0.00330
1973.08431,0.00322
1971.15559,0.00329
1969.22686,0.00312
1967.29814,0.00263
1965.36941,0.00243
1963.44069,0.00243
1961.51197,0.00234
1959.58324,0.00221
1957.65452,0.00201
1955.72580,0.00174
1953.79707,0.00152
1951.86835,0.00141
1949.93963,0.00139
1948.01090,0.00146
1946.08218,0.00150
1944.15345,0.00106
1942.22473,0.00046
1940.29601,0.00045
1938.36728,0.00056
1936.43856,0.00050
1934.50984,0.00041
1932.58111,0.00034
1930.65239,0.00036
1928.72367,0.00052
1926.79494,0.00074
1924.86622,0.00063
1922.93749,0.00052
1921.00877,0.00085
1919.08005,0.00077
1917.15132,0.00069
1915.22260,0.00131
1913.29388,0.00195
1911.36515,0.00225
1909.43643,0.00244
1907.50770,0.00287
1905.57898,0.00348
1903.65026,0.00406
1901.72153,0.00463
1899.79281,0.00522
1897.86409,0.00572
1895.93536,0.00613
1894.00664,0.00679
1892.07792,0.00735
1890.14919,0.00734
1888.22047,0.00755
1886.29174,0.00812
1884.36302,0.00851
1882.43430,0.00879
1880.50557,0.00899
1878.57685,0.00914
1876.64813,0.00934
1874.71940,0.00972
1872.79068,0.01009
1870.86196,0.00962
1868.93323,0.00848
1867.00451,0.00807
1865.07578,0.00835
1863.14706,0.00829
1861.21834,0.00775
1859.28961,0.00706
1857.36089,0.00644
1855.43217,0.00594
1853.50344,0.00547
1851.57472,0.00505
1849.64599,0.00477
1847.71727,0.00445
1845.78855,0.00335
1843.85982,0.00205
1841.93110,0.00199
1840.00238,0.00224
1838.07365,0.00188
1836.14493,0.00164
1834.21621,0.00182
1832.28748,0.00155
1830.35876,0.00066
1828.43003,0.00039
1826.50131,0.00034
1824.57259,0.00000
1822.64386,0.00002
1820.71514,0.00019
1818.78642,0.00015
1816.85769,0.00023
1814.92897,0.00050
1813.00025,0.00041
1811.07152,0.00000
1809.14280,-0.00002
1807.21407,0.00048
1805.28535,0.00098
1803.35663,0.00104
1801.42790,0.00077
1799.49918,0.00102
1797.57046,0.00203
1795.64173,0.00284
1793.71301,0.00252
1791.78428,0.00212
1789.85556,0.00314
1787.92684,0.00444
1785.99811,0.00509
1784.06939,0.00571
1782.14067,0.00628
1780.21194,0.00693
1778.28322,0.00832
1776.35450,0.00983
1774.42577,0.01029
1772.49705,0.00999
1770.56832,0.01058
1768.63960,0.01176
1766.71088,0.01312
1764.78215,0.01427
1762.85343,0.01459
1760.92471,0.01526
1758.99598,0.01642
1757.06726,0.01747
1755.13854,0.01914
1753.20981,0.02053
1751.28109,0.02078
1749.35236,0.02129
1747.42364,0.02278
1745.49492,0.02455
1743.56619,0.02609
1741.63747,0.02746
1739.70875,0.02948
1737.78002,0.03238
1735.85130,0.03371
1733.92257,0.03402
1731.99385,0.03616
1730.06513,0.03857
1728.13640,0.04052
1726.20768,0.04226
1724.27896,0.04398
1722.35023,0.04634
1720.42151,0.04816
1718.49279,0.04846
1716.56406,0.04940
1714.63534,0.05198
1712.70661,0.05496
1710.77789,0.05754
1708.84917,0.05952
1706.92044,0.06134
1704.99172,0.06429
1703.06300,0.06757
1701.13427,0.06939
1699.20555,0.07179
1697.27683,0.07471
1695.34810,0.07780
1693.41938,0.08218
1691.49065,0.08591
1689.56193,0.08919
1687.63321,0.09252
1685.70448,0.09434
1683.77576,0.09661
1681.84704,0.10153
1679.91831,0.10610
1677.98959,0.10910
1676.06087,0.11143
1674.13214,0.11473
1672.20342,0.11792
1670.27469,0.11958
1668.34597,0.12234
1666.41725,0.12614
1664.48852,0.12827
1662.55980,0.12966
1660.63108,0.13245
1658.70235,0.13592
1656.77363,0.13808
1654.84490,0.13724
1652.91618,0.13667
1650.98746,0.14037
1649.05873,0.14214
1647.13001,0.14077
1645.20129,0.14115
1643.27256,0.14323
1641.34384,0.14478
1639.41512,0.14538
1637.48639,0.14414
1635.55767,0.14242
1633.62894,0.14322
1631.70022,0.14448
1629.77150,0.14401
1627.84277,0.14291
1625.91405,0.14167
1623.98533,0.13956
1622.05660,0.13812
1620.12788,0.13727
1618.19916,0.13418
1616.27043,0.13026
1614.34171,0.12849
1612.41298,0.12720
1610.48426,0.12478
1608.55554,0.12199
1606.62681,0.11953
1604.69809,0.11715
1602.76937,0.11461
1600.84064,0.11227
1598.91192,0.11022
1596.98319,0.10814
1595.05447,0.10594
1593.12575,0.10389
1591.19702,0.10195
1589.26830,0.10001
1587.33958,0.09808
1585.41085,0.09619
1583.48213,0.09446
1581.55341,0.09325
1579.62468,0.09202
1577.69596,0.08930
1575.76723,0.08679
1573.83851,0.08688
1571.90979,0.08652
1569.98106,0.08436
1568.05234,0.08330
1566.12362,0.08352
1564.19489,0.08438
1562.26617,0.08467
1560.33745,0.08138
1558.40872,0.07743
1556.48000,0.07786
1554.55127,0.07861
1552.62255,0.07810
1550.69383,0.07702
1548.76510,0.07650
1546.83638,0.07635
1544.90766,0.07525
1542.97893,0.07258
1541.05021,0.06814
1539.12148,0.06593
1537.19276,0.06745
1535.26404,0.06697
1533.33531,0.06425
1531.40659,0.06310
1529.47787,0.06242
1527.54914,0.06066
1525.62042,0.05889
1523.69170,0.05674
1521.76297,0.05378
1519.83425,0.05198
1517.90552,0.05023
1515.97680,0.04818
1514.04808,0.04727
1512.11935,0.04683
1510.19063,0.04513
1508.26191,0.03997
1506.33318,0.03438
1504.40446,0.03372
1502.47574,0.03416
1500.54701,0.03243
1498.61829,0.02915
1496.68956,0.02647
1494.76084,0.02609
1492.83212,0.02596
1490.90339,0.02398
1488.97467,0.02177
1487.04595,0.02123
1485.11722,0.02163
1483.18850,0.02182
1481.25977,0.02209
1479.33105,0.02305
1477.40233,0.02415
1475.47360,0.02493
1473.54488,0.02578
1471.61616,0.02844
1469.68743,0.03251
1467.75871,0.03491
1465.82999,0.03544
1463.90126,0.03671
1461.97254,0.03907
1460.04381,0.03969
1458.11509,0.03809
1456.18637,0.03785
1454.25764,0.03978
1452.32892,0.04111
1450.40020,0.04120
1448.47147,0.04080
1446.54275,0.04092
1444.61403,0.04159
1442.68530,0.04234
1440.75658,0.04315
1438.82785,0.04305
1436.89913,0.04228
1434.97041,0.04299
1433.04168,0.04422
1431.11296,0.04447
1429.18424,0.04480
1427.25551,0.04572
1425.32679,0.04651
1423.39806,0.04751
1421.46934,0.04812
1419.54062,0.04772
1417.61189,0.04830
1415.68317,0.05000
1413.75445,0.05116
1411.82572,0.05189
1409.89700,0.05298
1407.96828,0.05418
1406.03955,0.05492
1404.11083,0.05569
1402.18210,0.05635
1400.25338,0.05568
1398.32466,0.05406
1396.39593,0.05198
1394.46721,0.04974
1392.53849,0.04836
1390.60976,0.04707
1388.68104,0.04475
1386.75232,0.04245
1384.82359,0.04128
1382.89487,0.04065
1380.96614,0.04001
1379.03742,0.03934
1377.10870,0.03832
1375.17997,0.03667
1373.25125,0.03533
1371.32253,0.03462
1369.39380,0.03372
1367.46508,0.03281
1365.53635,0.03171
1363.60763,0.02984
1361.67891,0.02819
1359.75018,0.02747
1357.82146,0.02690
1355.89274,0.02614
1353.96401,0.02550
1352.03529,0.02505
1350.10657,0.02456
1348.17784,0.02407
1346.24912,0.02374
1344.32039,0.02355
1342.39167,0.02310
1340.46295,0.02220
1338.53422,0.02155
1336.60550,0.02154
1334.67678,0.02161
1332.74805,0.02140
1330.81933,0.02106
1328.89061,0.02084
1326.96188,0.02081
1325.03316,0.02090
1323.10443,0.02095
1321.17571,0.02083
1319.24699,0.02073
1317.31826,0.02091
1315.38954,0.02115
1313.46082,0.02122
1311.53209,0.02135
1309.60337,0.02159
1307.67464,0.02189
1305.74592,0.02236
1303.81720,0.02297
1301.88847,0.02369
1299.95975,0.02451
1298.03103,0.02543
1296.10230,0.02648
1294.17358,0.02775
1292.24486,0.02921
1290.31613,0.03074
1288.38741,0.03235
1286.45868,0.03424
1284.52996,0.03642
1282.60124,0.03871
1280.67251,0.04121
1278.74379,0.04407
1276.81507,0.04729
1274.88634,0.05075
1272.95762,0.05449
1271.02890,0.05868
1269.10017,0.06347
1267.17145,0.06882
1265.24272,0.07477
1263.31400,0.08138
1261.38528,0.08869
1259.45655,0.09685
1257.52783,0.10579
1255.59911,0.11519
1253.67038,0.12482
1251.74166,0.13444
1249.81294,0.14387
1247.88421,0.15300
1245.95549,0.16162
1244.02676,0.16948
1242.09804,0.17658
1240.16932,0.18306
1238.24059,0.18891
1236.31187,0.19416
1234.38315,0.19904
1232.45442,0.20369
1230.52570,0.20788
1228.59697,0.21147
1226.66825,0.21466
1224.73953,0.21773
1222.81080,0.22062
1220.88208,0.22311
1218.95336,0.22547
1217.02463,0.22803
1215.09591,0.23054
1213.16719,0.23274
1211.23846,0.23474
1209.30974,0.23670
1207.38101,0.23867
1205.45229,0.24055
1203.52357,0.24244
1201.59484,0.24447
1199.66612,0.24644
1197.73740,0.24822
1195.80867,0.24993
1193.87995,0.25160
1191.95123,0.25316
1190.02250,0.25469
1188.09378,0.25625
1186.16505,0.25780
1184.23633,0.25943
1182.30761,0.26124
1180.37888,0.26299
1178.45016,0.26447
1176.52144,0.26601
1174.59271,0.26790
1172.66399,0.26992
1170.73526,0.27192
1168.80654,0.27385
1166.87782,0.27563
1164.94909,0.27708
1163.02037,0.27827
1161.09165,0.27956
1159.16292,0.28119
1157.23420,0.28294
1155.30548,0.28448
1153.37675,0.28584
1151.44803,0.28724
1149.51930,0.28861
1147.59058,0.28967
1145.66186,0.29053
1143.73313,0.29174
1141.80441,0.29313
1139.87569,0.29436
1137.94696,0.29589
1136.01824,0.29800
1134.08952,0.30041
1132.16079,0.30299
1130.23207,0.30595
1128.30334,0.30931
1126.37462,0.31273
1124.44590,0.31606
1122.51717,0.31944
1120.58845,0.32312
1118.65973,0.32723
1116.73100,0.33166
1114.80228,0.33634
1112.87355,0.34162
1110.94483,0.34758
1109.01611,0.35357
1107.08738,0.35909
1105.15866,0.36401
1103.22994,0.36866
1101.30121,0.37314
1099.37249,0.37689
1097.44377,0.37962
1095.51504,0.38158
1093.58632,0.38259
1091.65759,0.38247
1089.72887,0.38194
1087.80015,0.38157
1085.87142,0.38091
1083.94270,0.37958
1082.01398,0.37804
1080.08525,0.37646
1078.15653,0.37452
1076.22781,0.37213
1074.29908,0.36923
1072.37036,0.36588
1070.44163,0.36223
1068.51291,0.35858
1066.58419,0.35497
1064.65546,0.35102
1062.72674,0.34674
1060.79802,0.34205
1058.86929,0.33704
1056.94057,0.33212
1055.01184,0.32686
1053.08312,0.32108
1051.15440,0.31536
1049.22567,0.30974
1047.29695,0.30381
1045.36823,0.29784
1043.43950,0.29214
1041.51078,0.28631
1039.58206,0.28002
1037.65333,0.27359
1035.72461,0.26744
1033.79588,0.26168
1031.86716,0.25623
1029.93844,0.25073
1028.00971,0.24487
1026.08099,0.23890
1024.15227,0.23331
1022.22354,0.22816
1020.29482,0.22303
1018.36610,0.21779
1016.43737,0.21303
1014.50865,0.20891
1012.57992,0.20499
1010.65120,0.20115
1008.72248,0.19750
1006.79375,0.19393
1004.86503,0.19020
1002.93631,0.18636
1001.00758,0.18287
999.07886,0.17993
997.15013,0.17732
995.22141,0.17476
993.29269,0.17210
991.36396,0.16934
989.43524,0.16656
987.50652,0.16386
985.57779,0.16138
983.64907,0.15937
981.72035,0.15781
979.79162,0.15629
977.86290,0.15479
975.93417,0.15364
974.00545,0.15278
972.07673,0.15204
970.14800,0.15153
968.21928,0.15121
966.29056,0.15091
964.36183,0.15062
962.43311,0.15034
960.50439,0.14992
958.57566,0.14939
956.64694,0.14872
954.71821,0.14785
952.78949,0.14699
950.86077,0.14603
948.93204,0.14483
947.00332,0.14363
945.07460,0.14240
943.14587,0.14079
941.21715,0.13887
939.28842,0.13696
937.35970,0.13514
935.43098,0.13328
933.50225,0.13122
931.57353,0.12887
929.64481,0.12625
927.71608,0.12346
925.78736,0.12082
923.85864,0.11831
921.92991,0.11561
920.00119,0.11266
918.07246,0.10950
916.14374,0.10620
914.21502,0.10297
912.28629,0.09981
910.35757,0.09654
908.42885,0.09323
906.50012,0.08987
904.57140,0.08640
902.64268,0.08302
900.71395,0.07993
898.78523,0.07716
896.85650,0.07443
894.92778,0.07143
892.99906,0.06843
891.07033,0.06566
889.14161,0.06305
887.21289,0.06060
885.28416,0.05827
883.35544,0.05595
881.42671,0.05383
879.49799,0.05196
877.56927,0.05008
875.64054,0.04801
873.71182,0.04590
871.78310,0.04378
869.85437,0.04178
867.92565,0.04016
865.99693,0.03888
864.06820,0.03759
862.13948,0.03619
860.21075,0.03494
858.28203,0.03372
856.35331,0.03234
854.42458,0.03118
852.49586,0.03060
850.56714,0.03045
848.63841,0.03061
846.70969,0.03113
844.78097,0.03214
842.85224,0.03358
840.92352,0.03513
838.99479,0.03680
837.06607,0.03896
835.13735,0.04154
833.20862,0.04427
831.27990,0.04722
829.35118,0.05038
827.42245,0.05356
825.49373,0.05657
823.56501,0.05956
821.63628,0.06263
819.70756,0.06545
817.77883,0.06817
815.85011,0.07125
813.92139,0.07434
811.99266,0.07665
810.06394,0.07832
808.13522,0.07996
806.20649,0.08170
804.27777,0.08338
802.34904,0.08478
800.42032,0.08574
798.49160,0.08657
796.56287,0.08726
794.63415,0.08726
792.70543,0.08623
790.77670,0.08453
788.84798,0.08258
786.91926,0.08031
784.99053,0.07788
783.06181,0.07558
781.13308,0.07314
779.20436,0.07017
777.27564,0.06661
775.34691,0.06254
773.41819,0.05864
771.48947,0.05578
769.56074,0.05398
767.63202,0.05271
765.70330,0.05161
763.77457,0.05071
761.84585,0.05015
759.91712,0.04967
757.98840,0.04902
756.05968,0.04843
754.13095,0.04807
752.20223,0.04766
750.27351,0.04720
748.34478,0.04698
746.41606,0.04677
744.48733,0.04649
742.55861,0.04660
740.62989,0.04692
738.70116,0.04687
736.77244,0.04666
734.84372,0.04664
732.91499,0.04672
730.98627,0.04671
729.05755,0.04676
727.12882,0.04722
725.20010,0.04787
723.27137,0.04813
721.34265,0.04809
719.41393,0.04798
717.48520,0.04781
715.55648,0.04769
713.62776,0.04790
711.69903,0.04858
709.77031,0.04952
707.84159,0.05041
705.91286,0.05135
703.98414,0.05256
702.05541,0.05388
700.12669,0.05504
698.19797,0.05575
696.26924,0.05586
694.34052,0.05589
692.41180,0.05648
690.48307,0.05729
688.55435,0.05742
686.62562,0.05690
684.69690,0.05659
682.76818,0.05678
680.83945,0.05727
678.91073,0.05778
676.98201,0.05812
675.05328,0.05836
673.12456,0.05861
671.19584,0.05886
669.26711,0.05906
667.33839,0.05935
665.40966,0.05983
663.48094,0.06026
661.55222,0.06056
659.62349,0.06105
657.69477,0.06184
655.76605,0.06279
653.83732,0.06397
651.90860,0.06547
649.97988,0.06684
648.05115,0.06762
646.12243,0.06820
644.19370,0.06905
642.26498,0.06997
640.33626,0.07074
638.40753,0.07165
636.47881,0.07293
634.55009,0.07437
632.62136,0.07581
630.69264,0.07728
628.76391,0.07858
626.83519,0.07930
624.90647,0.07984
622.97774,0.08051
621.04902,0.08114
619.12030,0.08191
617.19157,0.08269
615.26285,0.08329
613.33413,0.08410
611.40540,0.08539
609.47668,0.08685
607.54795,0.08797
605.61923,0.08869
603.69051,0.08963
601.76178,0.09119
599.83306,0.09301
597.90434,0.09458
595.97561,0.09551
594.04689,0.09583
592.11817,0.09633
590.18944,0.09760
588.26072,0.09910
586.33199,0.10041
584.40327,0.10172
582.47455,0.10275
580.54582,0.10319
578.61710,0.10338
576.68838,0.10391
574.75965,0.10507
572.83093,0.10605
570.90220,0.10600
568.97348,0.10523
567.04476,0.10489
565.11603,0.10572
563.18731,0.10687
561.25859,0.10685
559.32986,0.10612
557.40114,0.10674
555.47242,0.10879
553.54369,0.11031
551.61497,0.11074
549.68624,0.11105
547.75752,0.11111
545.82880,0.11106
543.90007,0.11172
541.97135,0.11233
540.04263,0.11236
538.11390,0.11260
536.18518,0.11271
534.25646,0.11168
532.32773,0.10984
530.39901,0.10834
528.47028,0.10777
526.54156,0.10863
524.61284,0.11088
522.68411,0.11269
520.75539,0.11308
518.82667,0.11290
516.89794,0.11302
514.96922,0.11369
513.04049,0.11517
511.11177,0.11771
509.18305,0.12065
507.25432,0.12290
505.32560,0.12439
503.39688,0.12701
501.46815,0.13305
499.53943,0.14120
497.61071,0.14912
495.68198,0.15676
493.75326,0.16383
491.82453,0.16939
489.89581,0.17321
487.96709,0.17628
486.03836,0.18070
484.10964,0.18807
482.18092,0.19745
480.25219,0.20511
478.32347,0.20851
476.39475,0.21063
474.46602,0.21589
472.53730,0.22333
470.60857,0.22904
468.67985,0.23150
466.75113,0.23135
464.82240,0.23164
462.89368,0.23510
460.96496,0.23833
459.03623,0.23603
457.10751,0.22944
455.17878,0.22217
453.25006,0.21442
451.32134,0.20654
449.39261,0.19923
447.46389,0.19308
445.53517,0.18990
443.60644,0.18982
441.67772,0.18888
439.74900,0.18378
437.82027,0.17699
435.89155,0.17184
433.96282,0.16561
432.03410,0.15535
430.10538,0.14519
428.17665,0.13869
426.24793,0.13390
424.31921,0.12995
422.39048,0.12692
420.46176,0.12255
418.53304,0.11810
416.60431,0.11592
414.67559,0.11154
412.74686,0.10353
410.81814,0.09819
408.88942,0.09906
406.96069,0.10063
405.03197,0.09633
403.10325,0.08587
401.17452,0.07310
399.24580,0.06097
397.31708,0.05325
395.38835,0.05682
393.45963,0.07028
391.53090,0.07970
389.60218,0.07590
387.67346,0.06488
385.74473,0.05325
383.81601,0.04133
381.88729,0.03255
379.95856,0.02791
378.02984,0.01787
376.10111,0.00000
374.17239,-0.00010
372.24367,0.03023
370.31494,0.04021
368.38622,0.00000
