3996.31543,0.00000
3994.38671,0.00008
3992.45799,0.00014
3990.52926,0.00011
3988.60054,0.00008
3986.67182,0.00009
3984.74309,0.00016
3982.81437,0.00037
3980.88564,0.00064
3978.95692,0.00081
3977.02820,0.00080
3975.09947,0.00065
3973.17075,0.00052
3971.24203,0.00052
3969.31330,0.00064
3967.38458,0.00082
3965.45586,0.00093
3963.52713,0.00089
3961.59841,0.00093
3959.66968,0.00118
3957.74096,0.00139
3955.81224,0.00156
3953.88351,0.00173
3951.95479,0.00171
3950.02607,0.00151
3948.09734,0.00151
3946.16862,0.00167
3944.23990,0.00152
3942.31117,0.00142
3940.38245,0.00162
3938.45372,0.00161
3936.52500,0.00148
3934.59628,0.00127
3932.66755,0.00114
3930.73883,0.00146
3928.81011,0.00181
3926.88138,0.00154
3924.95266,0.00127
3923.02393,0.00173
3921.09521,0.00203
3919.16649,0.00175
3917.23776,0.00159
3915.30904,0.00181
3913.38032,0.00186
3911.45159,0.00168
3909.52287,0.00184
3907.59415,0.00197
3905.66542,0.00167
3903.73670,0.00166
3901.80797,0.00188
3899.87925,0.00169
3897.95053,0.00197
3896.02180,0.00241
3894.09308,0.00182
3892.16436,0.00099
3890.23563,0.00152
3888.30691,0.00191
3886.37819,0.00103
3884.44946,0.00101
3882.52074,0.00129
3880.59201,0.00110
3878.66329,0.00192
3876.73457,0.00233
3874.80584,0.00175
3872.87712,0.00147
3870.94840,0.00114
3869.01967,0.00167
3867.09095,0.00240
3865.16222,0.00164
3863.23350,0.00123
3861.30478,0.00197
3859.37605,0.00288
3857.44733,0.00291
3855.51861,0.00136
3853.58988,0.00000
3851.66116,0.00130
3849.73244,0.00250
3847.80371,0.00224
3845.87499,0.00150
3843.94626,0.00127
3842.01754,0.00168
3840.08882,0.00170
3838.16009,0.00159
3836.23137,0.00215
3834.30265,0.00246
3832.37392,0.00219
3830.44520,0.00229
3828.51648,0.00244
3826.58775,0.00265
3824.65903,0.00304
3822.73030,0.00227
3820.80158,0.00200
3818.87286,0.00298
3816.94413,0.00228
3815.01541,0.00180
3813.08669,0.00266
3811.15796,0.00289
3809.22924,0.00215
3807.30052,0.00186
3805.37179,0.00311
3803.44307,0.00329
3801.51434,0.00264
3799.58562,0.00358
3797.65690,0.00391
3795.72817,0.00364
3793.79945,0.00390
3791.87073,0.00409
3789.94200,0.00431
3788.01328,0.00459
3786.08455,0.00472
3784.15583,0.00516
3782.22711,0.00558
3780.29838,0.00539
3778.36966,0.00578
3776.44094,0.00678
3774.51221,0.00734
3772.58349,0.00725
3770.65477,0.00703
3768.72604,0.00762
3766.79732,0.00829
3764.86859,0.00885
3762.93987,0.00955
3761.01115,0.00961
3759.08242,0.01003
3757.15370,0.01158
3755.22498,0.01276
3753.29625,0.01246
3751.36753,0.01241
3749.43881,0.01469
3747.51008,0.01660
3745.58136,0.01592
3743.65263,0.01651
3741.72391,0.01921
3739.79519,0.02060
3737.86646,0.02056
3735.93774,0.02097
3734.00902,0.02306
3732.08029,0.02591
3730.15157,0.02848
3728.22284,0.03011
3726.29412,0.03162
3724.36540,0.03403
3722.43667,0.03676
3720.50795,0.03952
3718.57923,0.04236
3716.65050,0.04526
3714.72178,0.04778
3712.79306,0.05032
3710.86433,0.05455
3708.93561,0.05986
3707.00688,0.06417
3705.07816,0.06720
3703.14944,0.07012
3701.22071,0.07451
3699.29199,0.07970
3697.36327,0.08394
3695.43454,0.08769
3693.50582,0.09128
3691.57710,0.09457
3689.64837,0.09886
3687.71965,0.10499
3685.79092,0.11091
3683.86220,0.11531
3681.93348,0.11931
3680.00475,0.12358
3678.07603,0.12772
3676.14731,0.13290
3674.21858,0.14070
3672.28986,0.14673
3670.36113,0.15044
3668.43241,0.15601
3666.50369,0.16149
3664.57496,0.16516
3662.64624,0.16865
3660.71752,0.17264
3658.78879,0.17640
3656.86007,0.18027
3654.93135,0.18509
3653.00262,0.18867
3651.07390,0.19063
3649.14517,0.19457
3647.21645,0.20035
3645.28773,0.20476
3643.35900,0.20726
3641.43028,0.20952
3639.50156,0.21234
3637.57283,0.21527
3635.64411,0.21803
3633.71539,0.22077
3631.78666,0.22293
3629.85794,0.22443
3627.92921,0.22799
3626.00049,0.23244
3624.07177,0.23477
3622.14304,0.23560
3620.21432,0.23684
3618.28560,0.23976
3616.35687,0.24275
3614.42815,0.24420
3612.49942,0.24554
3610.57070,0.24729
3608.64198,0.24896
3606.71325,0.25111
3604.78453,0.25319
3602.85581,0.25448
3600.92708,0.25580
3598.99836,0.25766
3597.06964,0.25946
3595.14091,0.26116
3593.21219,0.26324
3591.28346,0.26500
3589.35474,0.26570
3587.42602,0.26682
3585.49729,0.26925
3583.56857,0.27120
3581.63985,0.27219
3579.71112,0.27325
3577.78240,0.27473
3575.85368,0.27647
3573.92495,0.27835
3571.99623,0.27995
3570.06750,0.28062
3568.13878,0.28101
3566.21006,0.28279
3564.28133,0.28525
3562.35261,0.28663
3560.42389,0.28734
3558.49516,0.28819
3556.56644,0.28921
3554.63771,0.29033
3552.70899,0.29182
3550.78027,0.29358
3548.85154,0.29475
3546.92282,0.29544
3544.99410,0.29655
3543.06537,0.29794
3541.13665,0.29900
3539.20793,0.29980
3537.27920,0.30070
3535.35048,0.30190
3533.42175,0.30312
3531.49303,0.30404
3529.56431,0.30494
3527.63558,0.30612
3525.70686,0.30740
3523.77814,0.30846
3521.84941,0.30941
3519.92069,0.31027
3517.99197,0.31107
3516.06324,0.31194
3514.13452,0.31278
3512.20579,0.31353
3510.27707,0.31438
3508.34835,0.31548
3506.41962,0.31637
3504.49090,0.31686
3502.56218,0.31778
3500.63345,0.31908
3498.70473,0.31987
3496.77600,0.32023
3494.84728,0.32076
3492.91856,0.32158
3490.98983,0.32248
3489.06111,0.32331
3487.13239,0.32416
3485.20366,0.32496
3483.27494,0.32548
3481.34622,0.32606
3479.41749,0.32683
3477.48877,0.32737
3475.56004,0.32776
3473.63132,0.32848
3471.70260,0.32942
3469.77387,0.33015
3467.84515,0.33067
3465.91643,0.33124
3463.98770,0.33178
3462.05898,0.33223
3460.13026,0.33266
3458.20153,0.33295
3456.27281,0.33309
3454.34408,0.33333
3452.41536,0.33392
3450.48664,0.33481
3448.55791,0.33545
3446.62919,0.33592
3444.70047,0.33652
3442.77174,0.33688
3440.84302,0.33709
3438.91429,0.33743
3436.98557,0.33778
3435.05685,0.33801
3433.12812,0.33817
3431.19940,0.33846
3429.27068,0.33881
3427.34195,0.33913
3425.41323,0.33942
3423.48451,0.33964
3421.55578,0.33986
3419.62706,0.34024
3417.69833,0.34049
3415.76961,0.34049
3413.84089,0.34062
3411.91216,0.34085
3409.98344,0.34093
3408.05472,0.34086
3406.12599,0.34083
3404.19727,0.34104
3402.26855,0.34129
3400.33982,0.34120
3398.41110,0.34087
3396.48237,0.34089
3394.55365,0.34110
3392.62493,0.34111
3390.69620,0.34118
3388.76748,0.34137
3386.83876,0.34137
3384.91003,0.34112
3382.98131,0.34096
3381.05259,0.34093
3379.12386,0.34086
3377.19514,0.34062
3375.26641,0.34026
3373.33769,0.33997
3371.40897,0.33984
3369.48024,0.33966
3367.55152,0.33923
3365.62280,0.33897
3363.69407,0.33912
3361.76535,0.33925
3359.83662,0.33900
3357.90790,0.33849
3355.97918,0.33801
3354.05045,0.33770
3352.12173,0.33741
3350.19301,0.33719
3348.26428,0.33707
3346.33556,0.33681
3344.40684,0.33630
3342.47811,0.33571
3340.54939,0.33538
3338.62066,0.33542
3336.69194,0.33550
3334.76322,0.33537
3332.83449,0.33501
3330.90577,0.33444
3328.97705,0.33385
3327.04832,0.33348
3325.11960,0.33323
3323.19088,0.33290
3321.26215,0.33251
3319.33343,0.33214
3317.40470,0.33176
3315.47598,0.33137
3313.54726,0.33096
3311.61853,0.33048
3309.68981,0.33003
3307.76109,0.32982
3305.83236,0.32970
3303.90364,0.32944
3301.97491,0.32911
3300.04619,0.32877
3298.11747,0.32843
3296.18874,0.32805
3294.26002,0.32766
3292.33130,0.32730
3290.40257,0.32692
3288.47385,0.32650
3286.54513,0.32620
3284.61640,0.32599
3282.68768,0.32565
3280.75895,0.32525
3278.83023,0.32498
3276.90151,0.32474
3274.97278,0.32432
3273.04406,0.32373
3271.11534,0.32315
3269.18661,0.32260
3267.25789,0.32215
3265.32917,0.32175
3263.40044,0.32121
3261.47172,0.32053
3259.54299,0.31993
3257.61427,0.31949
3255.68555,0.31897
3253.75682,0.31838
3251.82810,0.31795
3249.89938,0.31760
3247.97065,0.31710
3246.04193,0.31645
3244.11320,0.31589
3242.18448,0.31541
3240.25576,0.31477
3238.32703,0.31402
3236.39831,0.31347
3234.46959,0.31320
3232.54086,0.31289
3230.61214,0.31226
3228.68342,0.31141
3226.75469,0.31065
3224.82597,0.30999
3222.89724,0.30929
3220.96852,0.30864
3219.03980,0.30807
3217.11107,0.30744
3215.18235,0.30672
3213.25363,0.30600
3211.32490,0.30517
3209.39618,0.30418
3207.46746,0.30330
3205.53873,0.30263
3203.61001,0.30211
3201.68128,0.30157
3199.75256,0.30076
3197.82384,0.29972
3195.89511,0.29874
3193.96639,0.29794
3192.03767,0.29720
3190.10894,0.29639
3188.18022,0.29546
3186.25149,0.29448
3184.32277,0.29352
3182.39405,0.29264
3180.46532,0.29181
3178.53660,0.29098
3176.60788,0.29013
3174.67915,0.28921
3172.75043,0.28821
3170.82171,0.28713
3168.89298,0.28598
3166.96426,0.28496
3165.03553,0.28410
3163.10681,0.28322
3161.17809,0.28229
3159.24936,0.28137
3157.32064,0.28045
3155.39192,0.27952
3153.46319,0.27858
3151.53447,0.27759
3149.60575,0.27661
3147.67702,0.27564
3145.74830,0.27463
3143.81957,0.27366
3141.89085,0.27276
3139.96213,0.27179
3138.03340,0.27077
3136.10468,0.26974
3134.17596,0.26862
3132.24723,0.26752
3130.31851,0.26654
3128.38978,0.26561
3126.46106,0.26470
3124.53234,0.26376
3122.60361,0.26283
3120.67489,0.26194
3118.74617,0.26094
3116.81744,0.25981
3114.88872,0.25865
3112.96000,0.25744
3111.03127,0.25620
3109.10255,0.25505
3107.17382,0.25395
3105.24510,0.25284
3103.31638,0.25169
3101.38765,0.25057
3099.45893,0.24955
3097.53021,0.24841
3095.60148,0.24709
3093.67276,0.24578
3091.74404,0.24453
3089.81531,0.24335
3087.88659,0.24219
3085.95786,0.24109
3084.02914,0.23995
3082.10042,0.23863
3080.17169,0.23728
3078.24297,0.23608
3076.31425,0.23491
3074.38552,0.23359
3072.45680,0.23224
3070.52807,0.23104
3068.59935,0.22992
3066.67063,0.22871
3064.74190,0.22745
3062.81318,0.22621
3060.88446,0.22488
3058.95573,0.22345
3057.02701,0.22215
3055.09829,0.22107
3053.16956,0.22005
3051.24084,0.21891
3049.31211,0.21761
3047.38339,0.21624
3045.45467,0.21500
3043.52594,0.21385
3041.59722,0.21258
3039.66850,0.21138
3037.73977,0.21039
3035.81105,0.20947
3033.88233,0.20842
3031.95360,0.20721
3030.02488,0.20604
3028.09615,0.20499
3026.16743,0.20393
3024.23871,0.20293
3022.30998,0.20200
3020.38126,0.20101
3018.45254,0.19996
3016.52381,0.19905
3014.59509,0.19825
3012.66636,0.19740
3010.73764,0.19652
3008.80892,0.19566
3006.88019,0.19476
3004.95147,0.19383
3003.02275,0.19294
3001.09402,0.19205
2999.16530,0.19122
2997.23658,0.19058
2995.30785,0.19006
2993.37913,0.18947
2991.45040,0.18878
2989.52168,0.18811
2987.59296,0.18752
2985.66423,0.18702
2983.73551,0.18673
2981.80679,0.18667
2979.87806,0.18661
2977.94934,0.18641
2976.02062,0.18613
2974.09189,0.18590
2972.16317,0.18580
2970.23444,0.18583
2968.30572,0.18606
2966.37700,0.18652
2964.44827,0.18699
2962.51955,0.18723
2960.59083,0.18715
2958.66210,0.18702
2956.73338,0.18689
2954.80466,0.18654
2952.87593,0.18596
2950.94721,0.18545
2949.01848,0.18527
2947.08976,0.18541
2945.16104,0.18581
2943.23231,0.18643
2941.30359,0.18722
2939.37487,0.18821
2937.44614,0.18941
2935.51742,0.19071
2933.58869,0.19191
2931.65997,0.19287
2929.73125,0.19358
2927.80252,0.19402
2925.87380,0.19409
2923.94508,0.19370
2922.01635,0.19277
2920.08763,0.19115
2918.15891,0.18859
2916.23018,0.18512
2914.30146,0.18126
2912.37273,0.17754
2910.44401,0.17421
2908.51529,0.17128
2906.58656,0.16872
2904.65784,0.16655
2902.72912,0.16472
2900.80039,0.16299
2898.87167,0.16127
2896.94295,0.15960
2895.01422,0.15789
2893.08550,0.15610
2891.15677,0.15440
2889.22805,0.15293
2887.29933,0.15158
2885.37060,0.15030
2883.44188,0.14909
2881.51316,0.14800
2879.58443,0.14707
2877.65571,0.14626
2875.72698,0.14549
2873.79826,0.14476
2871.86954,0.14406
2869.94081,0.14331
2868.01209,0.14261
2866.08337,0.14219
2864.15464,0.14210
2862.22592,0.14229
2860.29720,0.14290
2858.36847,0.14391
2856.43975,0.14497
2854.51102,0.14559
2852.58230,0.14522
2850.65358,0.14341
2848.72485,0.14000
2846.79613,0.13549
2844.86741,0.13097
2842.93868,0.12709
2841.00996,0.12381
2839.08124,0.12104
2837.15251,0.11868
2835.22379,0.11663
2833.29506,0.11484
2831.36634,0.11322
2829.43762,0.11172
2827.50889,0.11034
2825.58017,0.10912
2823.65145,0.10796
2821.72272,0.10679
2819.79400,0.10570
2817.86527,0.10463
2815.93655,0.10347
2814.00783,0.10240
2812.07910,0.10154
2810.15038,0.10069
2808.22166,0.09969
2806.29293,0.09862
2804.36421,0.09759
2802.43549,0.09665
2800.50676,0.09579
2798.57804,0.09496
2796.64931,0.09407
2794.72059,0.09319
2792.79187,0.09239
2790.86314,0.09157
2788.93442,0.09063
2787.00570,0.08964
2785.07697,0.08871
2783.14825,0.08786
2781.21953,0.08700
2779.29080,0.08615
2777.36208,0.08541
2775.43335,0.08479
2773.50463,0.08411
2771.57591,0.08326
2769.64718,0.08247
2767.71846,0.08180
2765.78974,0.08105
2763.86101,0.08016
2761.93229,0.07930
2760.00356,0.07853
2758.07484,0.07780
2756.14612,0.07711
2754.21739,0.07653
2752.28867,0.07594
2750.35995,0.07518
2748.43122,0.07434
2746.50250,0.07354
2744.57378,0.07284
2742.64505,0.07222
2740.71633,0.07161
2738.78760,0.07092
2736.85888,0.07017
2734.93016,0.06944
2733.00143,0.06878
2731.07271,0.06815
2729.14399,0.06748
2727.21526,0.06685
2725.28654,0.06625
2723.35782,0.06563
2721.42909,0.06497
2719.50037,0.06419
2717.57164,0.06340
2715.64292,0.06269
2713.71420,0.06200
2711.78547,0.06131
2709.85675,0.06076
2707.92803,0.06024
2705.99930,0.05960
2704.07058,0.05888
2702.14185,0.05818
2700.21313,0.05751
2698.28441,0.05688
2696.35568,0.05631
2694.42696,0.05572
2692.49824,0.05509
2690.56951,0.05450
2688.64079,0.05399
2686.71207,0.05351
2684.78334,0.05303
2682.85462,0.05250
2680.92589,0.05187
2678.99717,0.05125
2677.06845,0.05072
2675.13972,0.05017
2673.21100,0.04952
2671.28228,0.04888
2669.35355,0.04834
2667.42483,0.04779
2665.49611,0.04722
2663.56738,0.04670
2661.63866,0.04620
2659.70993,0.04567
2657.78121,0.04512
2655.85249,0.04460
2653.92376,0.04409
2651.99504,0.04353
2650.06632,0.04299
2648.13759,0.04244
2646.20887,0.04185
2644.28014,0.04130
2642.35142,0.04082
2640.42270,0.04037
2638.49397,0.03995
2636.56525,0.03958
2634.63653,0.03915
2632.70780,0.03861
2630.77908,0.03800
2628.85036,0.03740
2626.92163,0.03688
2624.99291,0.03648
2623.06418,0.03608
2621.13546,0.03559
2619.20674,0.03509
2617.27801,0.03466
2615.34929,0.03425
2613.42057,0.03383
2611.49184,0.03338
2609.56312,0.03288
2607.63440,0.03241
2605.70567,0.03195
2603.77695,0.03151
2601.84822,0.03114
2599.91950,0.03077
2597.99078,0.03032
2596.06205,0.02982
2594.13333,0.02936
2592.20461,0.02896
2590.27588,0.02857
2588.34716,0.02820
2586.41843,0.02787
2584.48971,0.02753
2582.56099,0.02713
2580.63226,0.02673
2578.70354,0.02636
2576.77482,0.02605
2574.84609,0.02576
2572.91737,0.02541
2570.98865,0.02499
2569.05992,0.02465
2567.13120,0.02439
2565.20247,0.02416
2563.27375,0.02392
2561.34503,0.02363
2559.41630,0.02326
2557.48758,0.02285
2555.55886,0.02247
2553.63013,0.02215
2551.70141,0.02186
2549.77269,0.02156
2547.84396,0.02129
2545.91524,0.02107
2543.98651,0.02081
2542.05779,0.02050
2540.12907,0.02024
2538.20034,0.02002
2536.27162,0.01974
2534.34290,0.01946
2532.41417,0.01924
2530.48545,0.01901
2528.55673,0.01867
2526.62800,0.01834
2524.69928,0.01809
2522.77055,0.01786
2520.84183,0.01763
2518.91311,0.01738
2516.98438,0.01713
2515.05566,0.01689
2513.12694,0.01664
2511.19821,0.01641
2509.26949,0.01620
2507.34076,0.01594
2505.41204,0.01565
2503.48332,0.01539
2501.55459,0.01513
2499.62587,0.01486
2497.69715,0.01460
2495.76842,0.01438
2493.83970,0.01420
2491.91098,0.01398
2489.98225,0.01368
2488.05353,0.01338
2486.12480,0.01322
2484.19608,0.01313
2482.26736,0.01300
2480.33863,0.01278
2478.40991,0.01249
2476.48119,0.01217
2474.55246,0.01186
2472.62374,0.01158
2470.69502,0.01137
2468.76629,0.01117
2466.83757,0.01089
2464.90884,0.01054
2462.98012,0.01025
2461.05140,0.01008
2459.12267,0.00998
2457.19395,0.00984
2455.26523,0.00962
2453.33650,0.00941
2451.40778,0.00923
2449.47905,0.00899
2447.55033,0.00868
2445.62161,0.00846
2443.69288,0.00835
2441.76416,0.00819
2439.83544,0.00795
2437.90671,0.00774
2435.97799,0.00752
2434.04927,0.00726
2432.12054,0.00701
2430.19182,0.00682
2428.26309,0.00670
2426.33437,0.00658
2424.40565,0.00642
2422.47692,0.00622
2420.54820,0.00603
2418.61948,0.00591
2416.69075,0.00578
2414.76203,0.00561
2412.83331,0.00547
2410.90458,0.00536
2408.97586,0.00519
2407.04713,0.00497
2405.11841,0.00475
2403.18969,0.00460
2401.26096,0.00447
2399.33224,0.00430
2397.40352,0.00416
2395.47479,0.00403
2393.54607,0.00390
2391.61734,0.00375
2389.68862,0.00361
2387.75990,0.00349
2385.83117,0.00340
2383.90245,0.00342
2381.97373,0.00352
2380.04500,0.00363
2378.11628,0.00366
2376.18756,0.00357
2374.25883,0.00351
2372.33011,0.00362
2370.40138,0.00375
2368.47266,0.00367
2366.54394,0.00358
2364.61521,0.00365
2362.68649,0.00371
2360.75777,0.00362
2358.82904,0.00341
2356.90032,0.00316
2354.97160,0.00294
2353.04287,0.00293
2351.11415,0.00320
2349.18542,0.00329
2347.25670,0.00284
2345.32798,0.00232
2343.39925,0.00223
2341.47053,0.00239
2339.54181,0.00258
2337.61308,0.00267
2335.68436,0.00260
2333.75563,0.00244
2331.82691,0.00226
2329.89819,0.00214
2327.96946,0.00208
2326.04074,0.00207
2324.11202,0.00202
2322.18329,0.00187
2320.25457,0.00166
2318.32585,0.00151
2316.39712,0.00142
2314.46840,0.00133
2312.53967,0.00124
2310.61095,0.00116
2308.68223,0.00110
2306.75350,0.00105
2304.82478,0.00094
2302.89606,0.00081
2300.96733,0.00069
2299.03861,0.00062
2297.10989,0.00056
2295.18116,0.00051
2293.25244,0.00045
2291.32371,0.00044
2289.39499,0.00048
2287.46627,0.00055
2285.53754,0.00059
2283.60882,0.00055
2281.68010,0.00042
2279.75137,0.00031
2277.82265,0.00031
2275.89392,0.00034
2273.96520,0.00030
2272.03648,0.00022
2270.10775,0.00014
2268.17903,0.00009
2266.25031,0.00009
2264.32158,0.00009
2262.39286,0.00008
2260.46414,0.00011
2258.53541,0.00019
2256.60669,0.00018
2254.67796,0.00012
2252.74924,0.00007
2250.82052,0.00006
2248.89179,0.00008
2246.96307,0.00005
2245.03435,-0.00006
2243.10562,-0.00013
2241.17690,-0.00010
2239.24818,-0.00005
2237.31945,-0.00006
2235.39073,-0.00012
2233.46200,-0.00016
2231.53328,-0.00018
2229.60456,-0.00018
2227.67583,-0.00015
2225.74711,-0.00011
2223.81839,-0.00011
2221.88966,-0.00011
2219.96094,-0.00010
2218.03221,-0.00009
2216.10349,-0.00007
2214.17477,-0.00007
2212.24604,-0.00009
2210.31732,-0.00004
2208.38860,0.00002
2206.45987,0.00000
2204.53115,-0.00006
2202.60243,-0.00002
2200.67370,0.00004
2198.74498,0.00002
2196.81625,-0.00004
2194.88753,-0.00006
2192.95881,-0.00005
2191.03008,0.00001
2189.10136,0.00006
2187.17264,0.00008
2185.24391,0.00007
2183.31519,0.00007
2181.38647,0.00010
2179.45774,0.00016
2177.52902,0.00020
2175.60029,0.00020
2173.67157,0.00018
2171.74285,0.00016
2169.81412,0.00012
2167.88540,0.00010
2165.95668,0.00013
2164.02795,0.00017
2162.09923,0.00021
2160.17050,0.00030
2158.24178,0.00038
2156.31306,0.00044
2154.38433,0.00047
2152.45561,0.00045
2150.52689,0.00038
2148.59816,0.00037
2146.66944,0.00040
2144.74072,0.00039
2142.81199,0.00035
2140.88327,0.00033
2138.95454,0.00035
2137.02582,0.00037
2135.09710,0.00030
2133.16837,0.00018
2131.23965,0.00016
2129.31093,0.00024
2127.38220,0.00026
2125.45348,0.00023
2123.52476,0.00024
2121.59603,0.00028
2119.66731,0.00031
2117.73858,0.00027
2115.80986,0.00019
2113.88114,0.00017
2111.95241,0.00021
2110.02369,0.00025
2108.09497,0.00024
2106.16624,0.00017
2104.23752,0.00012
2102.30880,0.00007
2100.38007,0.00000
2098.45135,-0.00003
2096.52262,-0.00003
2094.59390,0.00000
2092.66518,-0.00004
2090.73645,-0.00013
2088.80773,-0.00016
2086.87901,-0.00010
2084.95028,-0.00006
2083.02156,-0.00009
2081.09283,-0.00020
2079.16411,-0.00029
2077.23539,-0.00029
2075.30666,-0.00022
2073.37794,-0.00018
2071.44922,-0.00012
2069.52049,0.00000
2067.59177,0.00009
2065.66305,0.00005
2063.73432,0.00006
2061.80560,0.00012
2059.87687,0.00020
2057.94815,0.00034
2056.01943,0.00046
2054.09070,0.00058
2052.16198,0.00074
2050.23326,0.00090
2048.30453,0.00107
2046.37581,0.00125
2044.44709,0.00148
2042.51836,0.00169
2040.58964,0.00191
2038.66091,0.00215
2036.73219,0.00234
2034.80347,0.00254
2032.87474,0.00274
2030.94602,0.00296
2029.01730,0.00319
2027.08857,0.00337
2025.15985,0.00349
2023.23112,0.00361
2021.30240,0.00382
2019.37368,0.00402
2017.44495,0.00414
2015.51623,0.00437
2013.58751,0.00456
2011.65878,0.00457
2009.73006,0.00457
2007.80134,0.00460
2005.87261,0.00467
2003.94389,0.00477
2002.01516,0.00482
2000.08644,0.00476
1998.15772,0.00477
1996.22899,0.00495
1994.30027,0.00500
1992.37155,0.00481
1990.44282,0.00488
1988.51410,0.00493
1986.58538,0.00478
1984.65665,0.00459
1982.72793,0.00438
1980.79920,0.00425
1978.87048,0.00417
1976.94176,0.00405
1975.01303,0.00389
1973.08431,0.00378
1971.15559,0.00376
1969.22686,0.00354
1967.29814,0.00319
1965.36941,0.00309
1963.44069,0.00290
1961.51197,0.00250
1959.58324,0.00224
1957.65452,0.00206
1955.72580,0.00184
1953.79707,0.00164
1951.86835,0.00145
1949.93963,0.00127
1948.01090,0.00115
1946.08218,0.00102
1944.15345,0.00058
1942.22473,0.00022
1940.29601,0.00034
1938.36728,0.00027
1936.43856,0.00001
1934.50984,-0.00012
1932.58111,-0.00019
1930.65239,-0.00024
1928.72367,-0.00020
1926.79494,0.00000
1924.86622,0.00002
1922.93749,0.00009
1921.00877,0.00041
1919.08005,0.00028
1917.15132,0.00037
1915.22260,0.00104
1913.29388,0.00142
1911.36515,0.00159
1909.43643,0.00195
1907.50770,0.00257
1905.57898,0.00316
1903.65026,0.00358
1901.72153,0.00400
1899.79281,0.00454
1897.86409,0.00513
1895.93536,0.00569
1894.00664,0.00644
1892.07792,0.00702
1890.14919,0.00721
1888.22047,0.00774
1886.29174,0.00837
1884.36302,0.00862
1882.43430,0.00881
1880.50557,0.00900
1878.57685,0.00914
1876.64813,0.00933
1874.71940,0.00964
1872.79068,0.00986
1870.86196,0.00944
1868.93323,0.00887
1867.00451,0.00909
1865.07578,0.00929
1863.14706,0.00872
1861.21834,0.00789
1859.28961,0.00721
1857.36089,0.00662
1855.43217,0.00602
1853.50344,0.00545
1851.57472,0.00498
1849.64599,0.00457
1847.71727,0.00412
1845.78855,0.00317
1843.85982,0.00234
1841.93110,0.00248
1840.00238,0.00235
1838.07365,0.00158
1836.14493,0.00114
1834.21621,0.00111
1832.28748,0.00069
1830.35876,0.00003
1828.43003,0.00013
1826.50131,0.00010
1824.57259,-0.00034
1822.64386,-0.00026
1820.71514,-0.00021
1818.78642,-0.00039
1816.85769,-0.00031
1814.92897,0.00000
1813.00025,-0.00023
1811.07152,-0.00058
1809.14280,-0.00050
1807.21407,-0.00025
1805.28535,-0.00016
1803.35663,-0.00027
1801.42790,-0.00029
1799.49918,0.00035
1797.57046,0.00131
1795.64173,0.00171
1793.71301,0.00139
1791.78428,0.00168
1789.85556,0.00315
1787.92684,0.00410
1785.99811,0.00432
1784.06939,0.00500
1782.14067,0.00591
1780.21194,0.00685
1778.28322,0.00822
1776.35450,0.00940
1774.42577,0.00984
1772.49705,0.01039
1770.56832,0.01211
1768.63960,0.01368
1766.71088,0.01480
1764.78215,0.01559
1762.85343,0.01587
1760.92471,0.01703
1758.99598,0.01863
1757.06726,0.01980
1755.13854,0.02138
1753.20981,0.02254
1751.28109,0.02334
1749.35236,0.02538
1747.42364,0.02808
1745.49492,0.03020
1743.56619,0.03185
1741.63747,0.03356
1739.70875,0.03588
1737.78002,0.03857
1735.85130,0.03959
1733.92257,0.04075
1731.99385,0.04434
1730.06513,0.04720
1728.13640,0.04899
1726.20768,0.05059
1724.27896,0.05237
1722.35023,0.05466
1720.42151,0.05621
1718.49279,0.05705
1716.56406,0.05973
1714.63534,0.06336
1712.70661,0.06598
1710.77789,0.06779
1708.84917,0.06941
1706.92044,0.07144
1704.99172,0.07472
1703.06300,0.07791
1701.13427,0.07996
1699.20555,0.08391
1697.27683,0.08851
1695.34810,0.09253
1693.41938,0.09698
1691.49065,0.10027
1689.56193,0.10336
1687.63321,0.10677
1685.70448,0.10935
1683.77576,0.11384
1681.84704,0.12050
1679.91831,0.12483
1677.98959,0.12703
1676.06087,0.12933
1674.13214,0.13346
1672.20342,0.13753
1670.27469,0.14026
1668.34597,0.14426
1666.41725,0.14834
1664.48852,0.15033
1662.55980,0.15226
1660.63108,0.15569
1658.70235,0.15880
1656.77363,0.15991
1654.84490,0.15906
1652.91618,0.16073
1650.98746,0.16617
1649.05873,0.16768
1647.13001,0.16644
1645.20129,0.16773
1643.27256,0.16976
1641.34384,0.17043
1639.41512,0.17023
1637.48639,0.16901
1635.55767,0.16848
1633.62894,0.17014
1631.70022,0.17081
1629.77150,0.16936
1627.84277,0.16781
1625.91405,0.16650
1623.98533,0.16434
1622.05660,0.16264
1620.12788,0.16095
1618.19916,0.15694
1616.27043,0.15264
1614.34171,0.15031
1612.41298,0.14778
1610.48426,0.14427
1608.55554,0.14098
1606.62681,0.13821
1604.69809,0.13539
1602.76937,0.13234
1600.84064,0.12953
1598.91192,0.12699
1596.98319,0.12444
1595.05447,0.12193
1593.12575,0.11962
1591.19702,0.11731
1589.26830,0.11495
1587.33958,0.11270
1585.41085,0.11055
1583.48213,0.10863
1581.55341,0.10720
1579.62468,0.10568
1577.69596,0.10297
1575.76723,0.10095
1573.83851,0.10104
1571.90979,0.09985
1569.98106,0.09717
1568.05234,0.09620
1566.12362,0.09611
1564.19489,0.09589
1562.26617,0.09469
1560.33745,0.09097
1558.40872,0.08903
1556.48000,0.09110
1554.55127,0.09137
1552.62255,0.08995
1550.69383,0.08836
1548.76510,0.08746
1546.83638,0.08678
1544.90766,0.08541
1542.97893,0.08339
1541.05021,0.08023
1539.12148,0.07859
1537.19276,0.07907
1535.26404,0.07707
1533.33531,0.07369
1531.40659,0.07223
1529.47787,0.07072
1527.54914,0.06809
1525.62042,0.06581
1523.69170,0.06319
1521.76297,0.05980
1519.83425,0.05763
1517.90552,0.05525
1515.97680,0.05244
1514.04808,0.05059
1512.11935,0.04894
1510.19063,0.04634
1508.26191,0.04146
1506.33318,0.03715
1504.40446,0.03659
1502.47574,0.03573
1500.54701,0.03284
1498.61829,0.02943
1496.68956,0.02713
1494.76084,0.02664
1492.83212,0.02582
1490.90339,0.02357
1488.97467,0.02206
1487.04595,0.02218
1485.11722,0.02250
1483.18850,0.02238
1481.25977,0.02262
1479.33105,0.02382
1477.40233,0.02528
1475.47360,0.02693
1473.54488,0.02937
1471.61616,0.03341
1469.68743,0.03752
1467.75871,0.03922
1465.82999,0.03957
1463.90126,0.04115
1461.97254,0.04333
1460.04381,0.04353
1458.11509,0.04263
1456.18637,0.04400
1454.25764,0.04628
1452.32892,0.04671
1450.40020,0.04600
1448.47147,0.04554
1446.54275,0.04605
1444.61403,0.04689
1442.68530,0.04744
1440.75658,0.04794
1438.82785,0.04779
1436.89913,0.04768
1434.97041,0.04930
1433.04168,0.05066
1431.11296,0.05073
1429.18424,0.05125
1427.25551,0.05241
1425.32679,0.05317
1423.39806,0.05399
1421.46934,0.05458
1419.54062,0.05478
1417.61189,0.05640
1415.68317,0.05848
1413.75445,0.05942
1411.82572,0.06009
1409.89700,0.06138
1407.96828,0.06283
1406.03955,0.06384
1404.11083,0.06494
1402.18210,0.06569
1400.25338,0.06491
1398.32466,0.06325
1396.39593,0.06103
1394.46721,0.05837
1392.53849,0.05628
1390.60976,0.05416
1388.68104,0.05135
1386.75232,0.04908
1384.82359,0.04785
1382.89487,0.04657
1380.96614,0.04499
1379.03742,0.04352
1377.10870,0.04198
1375.17997,0.04004
1373.25125,0.03843
1371.32253,0.03729
1369.39380,0.03589
1367.46508,0.03456
1365.53635,0.03315
1363.60763,0.03127
1361.67891,0.02987
1359.75018,0.02917
1357.82146,0.02835
1355.89274,0.02732
1353.96401,0.02636
1352.03529,0.02548
1350.10657,0.02461
1348.17784,0.02391
1346.24912,0.02345
1344.32039,0.02311
1342.39167,0.02258
1340.46295,0.02183
1338.53422,0.02148
1336.60550,0.02146
1334.67678,0.02118
1332.74805,0.02068
1330.81933,0.02027
1328.89061,0.02006
1326.96188,0.02000
1325.03316,0.02006
1323.10443,0.02013
1321.17571,0.02015
1319.24699,0.02032
1317.31826,0.02081
1315.38954,0.02127
1313.46082,0.02151
1311.53209,0.02187
1309.60337,0.02231
1307.67464,0.02278
1305.74592,0.02350
1303.81720,0.02444
1301.88847,0.02543
1299.95975,0.02647
1298.03103,0.02770
1296.10230,0.02910
1294.17358,0.03056
1292.24486,0.03212
1290.31613,0.03392
1288.38741,0.03592
1286.45868,0.03815
1284.52996,0.04064
1282.60124,0.04333
1280.67251,0.04626
1278.74379,0.04959
1276.81507,0.05348
1274.88634,0.05782
1272.95762,0.06242
1271.02890,0.06755
1269.10017,0.07339
1267.17145,0.07977
1265.24272,0.08673
1263.31400,0.09446
1261.38528,0.10312
1259.45655,0.11309
1257.52783,0.12426
1255.59911,0.13604
1253.67038,0.14808
1251.74166,0.16014
1249.81294,0.17205
1247.88421,0.18357
1245.95549,0.19435
1244.02676,0.20416
1242.09804,0.21301
1240.16932,0.22101
1238.24059,0.22829
1236.31187,0.23483
1234.38315,0.24064
1232.45442,0.24583
1230.52570,0.25058
1228.59697,0.25502
1226.66825,0.25901
1224.73953,0.26259
1222.81080,0.26606
1220.88208,0.26942
1218.95336,0.27247
1217.02463,0.27519
1215.09591,0.27777
1213.16719,0.28034
1211.23846,0.28300
1209.30974,0.28560
1207.38101,0.28795
1205.45229,0.29007
1203.52357,0.29206
1201.59484,0.29413
1199.66612,0.29651
1197.73740,0.29913
1195.80867,0.30156
1193.87995,0.30370
1191.95123,0.30579
1190.02250,0.30766
1188.09378,0.30921
1186.16505,0.31092
1184.23633,0.31302
1182.30761,0.31518
1180.37888,0.31704
1178.45016,0.31858
1176.52144,0.31994
1174.59271,0.32127
1172.66399,0.32280
1170.73526,0.32472
1168.80654,0.32682
1166.87782,0.32894
1164.94909,0.33103
1163.02037,0.33270
1161.09165,0.33401
1159.16292,0.33555
1157.23420,0.33737
1155.30548,0.33914
1153.37675,0.34086
1151.44803,0.34266
1149.51930,0.34446
1147.59058,0.34643
1145.66186,0.34862
1143.73313,0.35059
1141.80441,0.35243
1139.87569,0.35459
1137.94696,0.35687
1136.01824,0.35903
1134.08952,0.36119
1132.16079,0.36361
1130.23207,0.36646
1128.30334,0.36968
1126.37462,0.37330
1124.44590,0.37749
1122.51717,0.38199
1120.58845,0.38618
1118.65973,0.39017
1116.73100,0.39479
1114.80228,0.40045
1112.87355,0.40714
1110.94483,0.41460
1109.01611,0.42224
1107.08738,0.42964
1105.15866,0.43648
1103.22994,0.44272
1101.30121,0.44805
1099.37249,0.45202
1097.44377,0.45522
1095.51504,0.45815
1093.58632,0.46025
1091.65759,0.46143
1089.72887,0.46233
1087.80015,0.46242
1085.87142,0.46094
1083.94270,0.45902
1082.01398,0.45793
1080.08525,0.45688
1078.15653,0.45437
1076.22781,0.45040
1074.29908,0.44628
1072.37036,0.44283
1070.44163,0.43900
1068.51291,0.43399
1066.58419,0.42879
1064.65546,0.42395
1062.72674,0.41905
1060.79802,0.41367
1058.86929,0.40767
1056.94057,0.40139
1055.01184,0.39500
1053.08312,0.38803
1051.15440,0.38037
1049.22567,0.37264
1047.29695,0.36512
1045.36823,0.35763
1043.43950,0.34979
1041.51078,0.34157
1039.58206,0.33352
1037.65333,0.32588
1035.72461,0.31811
1033.79588,0.30988
1031.86716,0.30175
1029.93844,0.29394
1028.00971,0.28626
1026.08099,0.27892
1024.15227,0.27204
1022.22354,0.26536
1020.29482,0.25868
1018.36610,0.25216
1016.43737,0.24603
1014.50865,0.24023
1012.57992,0.23473
1010.65120,0.22970
1008.72248,0.22503
1006.79375,0.22042
1004.86503,0.21598
1002.93631,0.21181
1001.00758,0.20751
999.07886,0.20293
997.15013,0.19862
995.22141,0.19499
993.29269,0.19148
991.36396,0.18772
989.43524,0.18444
987.50652,0.18195
985.57779,0.17960
983.64907,0.17711
981.72035,0.17478
979.79162,0.17292
977.86290,0.17168
975.93417,0.17086
974.00545,0.17030
972.07673,0.16992
970.14800,0.16949
968.21928,0.16889
966.29056,0.16829
964.36183,0.16789
962.43311,0.16752
960.50439,0.16701
958.57566,0.16636
956.64694,0.16557
954.71821,0.16472
952.78949,0.16368
950.86077,0.16241
948.93204,0.16107
947.00332,0.15952
945.07460,0.15769
943.14587,0.15573
941.21715,0.15366
939.28842,0.15147
937.35970,0.14909
935.43098,0.14641
933.50225,0.14350
931.57353,0.14045
929.64481,0.13734
927.71608,0.13430
925.78736,0.13129
923.85864,0.12814
921.92991,0.12470
920.00119,0.12089
918.07246,0.11681
916.14374,0.11277
914.21502,0.10894
912.28629,0.10512
910.35757,0.10111
908.42885,0.09714
906.50012,0.09342
904.57140,0.08982
902.64268,0.08616
900.71395,0.08242
898.78523,0.07866
896.85650,0.07496
894.92778,0.07137
892.99906,0.06786
891.07033,0.06440
889.14161,0.06095
887.21289,0.05758
885.28416,0.05435
883.35544,0.05137
881.42671,0.04884
879.49799,0.04645
877.56927,0.04378
875.64054,0.04114
873.71182,0.03889
871.78310,0.03703
869.85437,0.03539
867.92565,0.03363
865.99693,0.03162
864.06820,0.02958
862.13948,0.02773
860.21075,0.02621
858.28203,0.02491
856.35331,0.02356
854.42458,0.02235
852.49586,0.02189
850.56714,0.02224
848.63841,0.02294
846.70969,0.02375
844.78097,0.02482
842.85224,0.02638
840.92352,0.02850
838.99479,0.03110
837.06607,0.03415
835.13735,0.03771
833.20862,0.04156
831.27990,0.04542
829.35118,0.04922
827.42245,0.05287
825.49373,0.05644
823.56501,0.06027
821.63628,0.06438
819.70756,0.06815
817.77883,0.07127
815.85011,0.07419
813.92139,0.07721
811.99266,0.08018
810.06394,0.08291
808.13522,0.08520
806.20649,0.08712
804.27777,0.08886
802.34904,0.09045
800.42032,0.09176
798.49160,0.09239
796.56287,0.09215
794.63415,0.09139
792.70543,0.09030
790.77670,0.08889
788.84798,0.08697
786.91926,0.08437
784.99053,0.08129
783.06181,0.07791
781.13308,0.07418
779.20436,0.07024
777.27564,0.06620
775.34691,0.06180
773.41819,0.05701
771.48947,0.05265
769.56074,0.04961
767.63202,0.04772
765.70330,0.04615
763.77457,0.04473
761.84585,0.04400
759.91712,0.04387
757.98840,0.04367
756.05968,0.04312
754.13095,0.04229
752.20223,0.04167
750.27351,0.04171
748.34478,0.04181
746.41606,0.04130
744.48733,0.04082
742.55861,0.04082
740.62989,0.04061
738.70116,0.03997
736.77244,0.03959
734.84372,0.03965
732.91499,0.03986
730.98627,0.04010
729.05755,0.04039
727.12882,0.04077
725.20010,0.04104
723.27137,0.04120
721.34265,0.04144
719.41393,0.04182
717.48520,0.04227
715.55648,0.04247
713.62776,0.04232
711.69903,0.04231
709.77031,0.04289
707.84159,0.04367
705.91286,0.04422
703.98414,0.04484
702.05541,0.04585
700.12669,0.04708
698.19797,0.04822
696.26924,0.04907
694.34052,0.04964
692.41180,0.05016
690.48307,0.05086
688.55435,0.05155
686.62562,0.05168
684.69690,0.05117
682.76818,0.05068
680.83945,0.05071
678.91073,0.05081
676.98201,0.05064
675.05328,0.05076
673.12456,0.05143
671.19584,0.05142
669.26711,0.05028
667.33839,0.05011
665.40966,0.05127
663.48094,0.05195
661.55222,0.05242
659.62349,0.05342
657.69477,0.05441
655.76605,0.05508
653.83732,0.05585
651.90860,0.05699
649.97988,0.05835
648.05115,0.05947
646.12243,0.06015
644.19370,0.06085
642.26498,0.06198
640.33626,0.06320
638.40753,0.06408
636.47881,0.06472
634.55009,0.06551
632.62136,0.06655
630.69264,0.06759
628.76391,0.06858
626.83519,0.06992
624.90647,0.07164
622.97774,0.07277
621.04902,0.07319
619.12030,0.07405
617.19157,0.07515
615.26285,0.07581
613.33413,0.07663
611.40540,0.07785
609.47668,0.07887
607.54795,0.07985
605.61923,0.08125
603.69051,0.08297
601.76178,0.08464
599.83306,0.08591
597.90434,0.08694
595.97561,0.08846
594.04689,0.09035
592.11817,0.09182
590.18944,0.09256
588.26072,0.09283
586.33199,0.09347
584.40327,0.09494
582.47455,0.09693
580.54582,0.09892
578.61710,0.09976
576.68838,0.09927
574.75965,0.09912
572.83093,0.09994
570.90220,0.10077
568.97348,0.10131
567.04476,0.10240
565.11603,0.10374
563.18731,0.10426
561.25859,0.10445
559.32986,0.10500
557.40114,0.10563
555.47242,0.10572
553.54369,0.10505
551.61497,0.10405
549.68624,0.10339
547.75752,0.10373
545.82880,0.10498
543.90007,0.10605
541.97135,0.10687
540.04263,0.10807
538.11390,0.10855
536.18518,0.10760
534.25646,0.10687
532.32773,0.10708
530.39901,0.10667
528.47028,0.10521
526.54156,0.10426
524.61284,0.10468
522.68411,0.10558
520.75539,0.10639
518.82667,0.10687
516.89794,0.10748
514.96922,0.10954
513.04049,0.11304
511.11177,0.11684
509.18305,0.11999
507.25432,0.12291
505.32560,0.12661
503.39688,0.13137
501.46815,0.13818
499.53943,0.14689
497.61071,0.15597
495.68198,0.16479
493.75326,0.17267
491.82453,0.17848
489.89581,0.18240
487.96709,0.18669
486.03836,0.19402
484.10964,0.20512
482.18092,0.21777
480.25219,0.22920
478.32347,0.23815
476.39475,0.24334
474.46602,0.24544
472.53730,0.24848
470.60857,0.25356
468.67985,0.25721
466.75113,0.25860
464.82240,0.25872
462.89368,0.25760
460.96496,0.25629
459.03623,0.25478
457.10751,0.25073
455.17878,0.24434
453.25006,0.23863
451.32134,0.23313
449.39261,0.22460
447.46389,0.21467
445.53517,0.20778
443.60644,0.20444
441.67772,0.20231
439.74900,0.19823
437.82027,0.19079
435.89155,0.18321
433.96282,0.17814
432.03410,0.17401
430.10538,0.16870
428.17665,0.16063
426.24793,0.15118
424.31921,0.14482
422.39048,0.14208
420.46176,0.13755
418.53304,0.12791
416.60431,0.11751
414.67559,0.11031
412.74686,0.10346
410.81814,0.09332
408.88942,0.08254
406.96069,0.07835
405.03197,0.08289
403.10325,0.08846
401.17452,0.08690
399.24580,0.07931
397.31708,0.07117
395.38835,0.06363
393.45963,0.05704
391.53090,0.05245
389.60218,0.04883
387.67346,0.03959
385.74473,0.02474
383.81601,0.01950
381.88729,0.03226
379.95856,0.05306
378.02984,0.06855
376.10111,0.07229
374.17239,0.06654
372.24367,0.05201
370.31494,0.02849
368.38622,0.00000
