3996.31543,0.00040
3994.38671,0.00034
3992.45799,0.00018
3990.52926,0.00003
3988.60054,0.00000
3986.67182,0.00013
3984.74309,0.00038
3982.81437,0.00058
3980.88564,0.00059
3978.95692,0.00051
3977.02820,0.00052
3975.09947,0.00053
3973.17075,0.00045
3971.24203,0.00042
3969.31330,0.00047
3967.38458,0.00059
3965.45586,0.00073
3963.52713,0.00077
3961.59841,0.00066
3959.66968,0.00054
3957.74096,0.00057
3955.81224,0.00068
3953.88351,0.00077
3951.95479,0.00078
3950.02607,0.00071
3948.09734,0.00068
3946.16862,0.00085
3944.23990,0.00119
3942.31117,0.00128
3940.38245,0.00098
3938.45372,0.00064
3936.52500,0.00067
3934.59628,0.00099
3932.66755,0.00110
3930.73883,0.00085
3928.81011,0.00068
3926.88138,0.00075
3924.95266,0.00085
3923.02393,0.00087
3921.09521,0.00088
3919.16649,0.00071
3917.23776,0.00030
3915.30904,0.00000
3913.38032,0.00006
3911.45159,0.00035
3909.52287,0.00077
3907.59415,0.00125
3905.66542,0.00151
3903.73670,0.00133
3901.80797,0.00097
3899.87925,0.00057
3897.95053,0.00033
3896.02180,0.00062
3894.09308,0.00116
3892.16436,0.00117
3890.23563,0.00071
3888.30691,0.00057
3886.37819,0.00071
3884.44946,0.00070
3882.52074,0.00062
3880.59201,0.00038
3878.66329,0.00027
3876.73457,0.00080
3874.80584,0.00148
3872.87712,0.00166
3870.94840,0.00123
3869.01967,0.00061
3867.09095,0.00048
3865.16222,0.00066
3863.23350,0.00055
3861.30478,0.00042
3859.37605,0.00085
3857.44733,0.00186
3855.51861,0.00263
3853.58988,0.00197
3851.66116,0.00048
3849.73244,0.00000
3847.80371,0.00043
3845.87499,0.00098
3843.94626,0.00134
3842.01754,0.00165
3840.08882,0.00174
3838.16009,0.00117
3836.23137,0.00035
3834.30265,0.00018
3832.37392,0.00054
3830.44520,0.00092
3828.51648,0.00113
3826.58775,0.00121
3824.65903,0.00139
3822.73030,0.00152
3820.80158,0.00118
3818.87286,0.00080
3816.94413,0.00062
3815.01541,0.00038
3813.08669,0.00056
3811.15796,0.00129
3809.22924,0.00183
3807.30052,0.00174
3805.37179,0.00161
3803.44307,0.00178
3801.51434,0.00157
3799.58562,0.00115
3797.65690,0.00120
3795.72817,0.00149
3793.79945,0.00177
3791.87073,0.00206
3789.94200,0.00237
3788.01328,0.00277
3786.08455,0.00312
3784.15583,0.00327
3782.22711,0.00339
3780.29838,0.00347
3778.36966,0.00344
3776.44094,0.00358
3774.51221,0.00406
3772.58349,0.00463
3770.65477,0.00491
3768.72604,0.00495
3766.79732,0.00514
3764.86859,0.00562
3762.93987,0.00639
3761.01115,0.00708
3759.08242,0.00726
3757.15370,0.00743
3755.22498,0.00831
3753.29625,0.00946
3751.36753,0.00995
3749.43881,0.01003
3747.51008,0.01061
3745.58136,0.01124
3743.65263,0.01137
3741.72391,0.01206
3739.79519,0.01372
3737.86646,0.01550
3735.93774,0.01664
3734.00902,0.01719
3732.08029,0.01798
3730.15157,0.01942
3728.22284,0.02115
3726.29412,0.02280
3724.36540,0.02439
3722.43667,0.02618
3720.50795,0.02825
3718.57923,0.03059
3716.65050,0.03309
3714.72178,0.03571
3712.79306,0.03856
3710.86433,0.04170
3708.93561,0.04492
3707.00688,0.04812
3705.07816,0.05147
3703.14944,0.05512
3701.22071,0.05895
3699.29199,0.06270
3697.36327,0.06629
3695.43454,0.06975
3693.50582,0.07311
3691.57710,0.07642
3689.64837,0.07961
3687.71965,0.08268
3685.79092,0.08598
3683.86220,0.08973
3681.93348,0.09383
3680.00475,0.09815
3678.07603,0.10260
3676.14731,0.10705
3674.21858,0.11133
3672.28986,0.11546
3670.36113,0.11958
3668.43241,0.12358
3666.50369,0.12741
3664.57496,0.13116
3662.64624,0.13486
3660.71752,0.13854
3658.78879,0.14210
3656.86007,0.14546
3654.93135,0.14882
3653.00262,0.15231
3651.07390,0.15561
3649.14517,0.15821
3647.21645,0.16053
3645.28773,0.16324
3643.35900,0.16605
3641.43028,0.16869
3639.50156,0.17130
3637.57283,0.17398
3635.64411,0.17667
3633.71539,0.17932
3631.78666,0.18179
3629.85794,0.18381
3627.92921,0.18546
3626.00049,0.18751
3624.07177,0.19012
3622.14304,0.19256
3620.21432,0.19411
3618.28560,0.19498
3616.35687,0.19597
3614.42815,0.19730
3612.49942,0.19878
3610.57070,0.20040
3608.64198,0.20201
3606.71325,0.20347
3604.78453,0.20492
3602.85581,0.20634
3600.92708,0.20762
3598.99836,0.20888
3597.06964,0.21025
3595.14091,0.21159
3593.21219,0.21283
3591.28346,0.21416
3589.35474,0.21554
3587.42602,0.21659
3585.49729,0.21744
3583.56857,0.21862
3581.63985,0.22016
3579.71112,0.22170
3577.78240,0.22307
3575.85368,0.22433
3573.92495,0.22559
3571.99623,0.22693
3570.06750,0.22828
3568.13878,0.22923
3566.21006,0.22970
3564.28133,0.23032
3562.35261,0.23142
3560.42389,0.23278
3558.49516,0.23416
3556.56644,0.23545
3554.63771,0.23651
3552.70899,0.23731
3550.78027,0.23813
3548.85154,0.23916
3546.92282,0.24011
3544.99410,0.24076
3543.06537,0.24150
3541.13665,0.24264
3539.20793,0.24390
3537.27920,0.24497
3535.35048,0.24588
3533.42175,0.24681
3531.49303,0.24770
3529.56431,0.24841
3527.63558,0.24907
3525.70686,0.24994
3523.77814,0.25095
3521.84941,0.25188
3519.92069,0.25271
3517.99197,0.25355
3516.06324,0.25448
3514.13452,0.25547
3512.20579,0.25636
3510.27707,0.25712
3508.34835,0.25786
3506.41962,0.25870
3504.49090,0.25951
3502.56218,0.26014
3500.63345,0.26082
3498.70473,0.26172
3496.77600,0.26261
3494.84728,0.26337
3492.91856,0.26400
3490.98983,0.26441
3489.06111,0.26480
3487.13239,0.26542
3485.20366,0.26620
3483.27494,0.26692
3481.34622,0.26752
3479.41749,0.26817
3477.48877,0.26888
3475.56004,0.26944
3473.63132,0.26981
3471.70260,0.27025
3469.77387,0.27084
3467.84515,0.27138
3465.91643,0.27171
3463.98770,0.27206
3462.05898,0.27263
3460.13026,0.27322
3458.20153,0.27364
3456.27281,0.27393
3454.34408,0.27416
3452.41536,0.27446
3450.48664,0.27491
3448.55791,0.27532
3446.62919,0.27552
3444.70047,0.27583
3442.77174,0.27636
3440.84302,0.27670
3438.91429,0.27670
3436.98557,0.27671
3435.05685,0.27693
3433.12812,0.27728
3431.19940,0.27765
3429.27068,0.27796
3427.34195,0.27805
3425.41323,0.27791
3423.48451,0.27791
3421.55578,0.27820
3419.62706,0.27851
3417.69833,0.27866
3415.76961,0.27879
3413.84089,0.27902
3411.91216,0.27920
3409.98344,0.27907
3408.05472,0.27879
3406.12599,0.27874
3404.19727,0.27891
3402.26855,0.27916
3400.33982,0.27933
3398.41110,0.27936
3396.48237,0.27929
3394.55365,0.27914
3392.62493,0.27906
3390.69620,0.27917
3388.76748,0.27928
3386.83876,0.27912
3384.91003,0.27876
3382.98131,0.27852
3381.05259,0.27850
3379.12386,0.27859
3377.19514,0.27860
3375.26641,0.27845
3373.33769,0.27821
3371.40897,0.27808
3369.48024,0.27803
3367.55152,0.27786
3365.62280,0.27757
3363.69407,0.27731
3361.76535,0.27711
3359.83662,0.27691
3357.90790,0.27681
3355.97918,0.27670
3354.05045,0.27633
3352.12173,0.27579
3350.19301,0.27543
3348.26428,0.27526
3346.33556,0.27507
3344.40684,0.27472
3342.47811,0.27439
3340.54939,0.27419
3338.62066,0.27396
3336.69194,0.27353
3334.76322,0.27312
3332.83449,0.27297
3330.90577,0.27284
3328.97705,0.27251
3327.04832,0.27212
3325.11960,0.27180
3323.19088,0.27150
3321.26215,0.27128
3319.33343,0.27116
3317.40470,0.27089
3315.47598,0.27041
3313.54726,0.26990
3311.61853,0.26952
3309.68981,0.26930
3307.76109,0.26908
3305.83236,0.26874
3303.90364,0.26835
3301.97491,0.26804
3300.04619,0.26779
3298.11747,0.26758
3296.18874,0.26743
3294.26002,0.26730
3292.33130,0.26706
3290.40257,0.26675
3288.47385,0.26653
3286.54513,0.26633
3284.61640,0.26596
3282.68768,0.26552
3280.75895,0.26514
3278.83023,0.26483
3276.90151,0.26456
3274.97278,0.26422
3273.04406,0.26377
3271.11534,0.26328
3269.18661,0.26284
3267.25789,0.26247
3265.32917,0.26209
3263.40044,0.26162
3261.47172,0.26101
3259.54299,0.26037
3257.61427,0.25989
3255.68555,0.25941
3253.75682,0.25886
3251.82810,0.25835
3249.89938,0.25794
3247.97065,0.25769
3246.04193,0.25754
3244.11320,0.25725
3242.18448,0.25684
3240.25576,0.25635
3238.32703,0.25569
3236.39831,0.25499
3234.46959,0.25446
3232.54086,0.25408
3230.61214,0.25361
3228.68342,0.25310
3226.75469,0.25266
3224.82597,0.25214
3222.89724,0.25150
3220.96852,0.25093
3219.03980,0.25040
3217.11107,0.24976
3215.18235,0.24905
3213.25363,0.24836
3211.32490,0.24768
3209.39618,0.24703
3207.46746,0.24639
3205.53873,0.24565
3203.61001,0.24488
3201.68128,0.24429
3199.75256,0.24379
3197.82384,0.24310
3195.89511,0.24226
3193.96639,0.24148
3192.03767,0.24069
3190.10894,0.23989
3188.18022,0.23928
3186.25149,0.23874
3184.32277,0.23800
3182.39405,0.23707
3180.46532,0.23615
3178.53660,0.23533
3176.60788,0.23459
3174.67915,0.23381
3172.75043,0.23292
3170.82171,0.23199
3168.89298,0.23114
3166.96426,0.23036
3165.03553,0.22963
3163.10681,0.22887
3161.17809,0.22813
3159.24936,0.22738
3157.32064,0.22654
3155.39192,0.22561
3153.46319,0.22483
3151.53447,0.22415
3149.60575,0.22332
3147.67702,0.22236
3145.74830,0.22146
3143.81957,0.22064
3141.89085,0.21976
3139.96213,0.21882
3138.03340,0.21804
3136.10468,0.21732
3134.17596,0.21641
3132.24723,0.21537
3130.31851,0.21455
3128.38978,0.21397
3126.46106,0.21334
3124.53234,0.21255
3122.60361,0.21167
3120.67489,0.21078
3118.74617,0.20992
3116.81744,0.20907
3114.88872,0.20816
3112.96000,0.20716
3111.03127,0.20616
3109.10255,0.20518
3107.17382,0.20413
3105.24510,0.20310
3103.31638,0.20217
3101.38765,0.20124
3099.45893,0.20027
3097.53021,0.19934
3095.60148,0.19834
3093.67276,0.19733
3091.74404,0.19649
3089.81531,0.19566
3087.88659,0.19468
3085.95786,0.19367
3084.02914,0.19264
3082.10042,0.19141
3080.17169,0.19011
3078.24297,0.18896
3076.31425,0.18796
3074.38552,0.18709
3072.45680,0.18630
3070.52807,0.18541
3068.59935,0.18446
3066.67063,0.18351
3064.74190,0.18248
3062.81318,0.18135
3060.88446,0.18021
3058.95573,0.17917
3057.02701,0.17815
3055.09829,0.17704
3053.16956,0.17587
3051.24084,0.17474
3049.31211,0.17372
3047.38339,0.17283
3045.45467,0.17202
3043.52594,0.17116
3041.59722,0.17015
3039.66850,0.16905
3037.73977,0.16806
3035.81105,0.16726
3033.88233,0.16650
3031.95360,0.16563
3030.02488,0.16464
3028.09615,0.16362
3026.16743,0.16278
3024.23871,0.16215
3022.30998,0.16154
3020.38126,0.16080
3018.45254,0.16005
3016.52381,0.15933
3014.59509,0.15856
3012.66636,0.15775
3010.73764,0.15698
3008.80892,0.15621
3006.88019,0.15541
3004.95147,0.15466
3003.02275,0.15394
3001.09402,0.15328
2999.16530,0.15269
2997.23658,0.15211
2995.30785,0.15148
2993.37913,0.15098
2991.45040,0.15065
2989.52168,0.15033
2987.59296,0.14997
2985.66423,0.14977
2983.73551,0.14973
2981.80679,0.14965
2979.87806,0.14939
2977.94934,0.14905
2976.02062,0.14880
2974.09189,0.14868
2972.16317,0.14869
2970.23444,0.14886
2968.30572,0.14907
2966.37700,0.14911
2964.44827,0.14907
2962.51955,0.14910
2960.59083,0.14906
2958.66210,0.14877
2956.73338,0.14841
2954.80466,0.14818
2952.87593,0.14798
2950.94721,0.14773
2949.01848,0.14752
2947.08976,0.14749
2945.16104,0.14774
2943.23231,0.14820
2941.30359,0.14878
2939.37487,0.14953
2937.44614,0.15037
2935.51742,0.15120
2933.58869,0.15202
2931.65997,0.15285
2929.73125,0.15346
2927.80252,0.15354
2925.87380,0.15305
2923.94508,0.15211
2922.01635,0.15075
2920.08763,0.14888
2918.15891,0.14654
2916.23018,0.14395
2914.30146,0.14131
2912.37273,0.13878
2910.44401,0.13655
2908.51529,0.13458
2906.58656,0.13282
2904.65784,0.13120
2902.72912,0.12966
2900.80039,0.12827
2898.87167,0.12700
2896.94295,0.12570
2895.01422,0.12431
2893.08550,0.12290
2891.15677,0.12159
2889.22805,0.12044
2887.29933,0.11932
2885.37060,0.11821
2883.44188,0.11717
2881.51316,0.11624
2879.58443,0.11552
2877.65571,0.11502
2875.72698,0.11454
2873.79826,0.11391
2871.86954,0.11320
2869.94081,0.11257
2868.01209,0.11204
2866.08337,0.11152
2864.15464,0.11114
2862.22592,0.11115
2860.29720,0.11154
2858.36847,0.11208
2856.43975,0.11261
2854.51102,0.11284
2852.58230,0.11230
2850.65358,0.11060
2848.72485,0.10783
2846.79613,0.10455
2844.86741,0.10131
2842.93868,0.09841
2841.00996,0.09594
2839.08124,0.09386
2837.15251,0.09207
2835.22379,0.09046
2833.29506,0.08902
2831.36634,0.08776
2829.43762,0.08666
2827.50889,0.08570
2825.58017,0.08477
2823.65145,0.08375
2821.72272,0.08271
2819.79400,0.08178
2817.86527,0.08095
2815.93655,0.08013
2814.00783,0.07924
2812.07910,0.07832
2810.15038,0.07752
2808.22166,0.07679
2806.29293,0.07596
2804.36421,0.07506
2802.43549,0.07423
2800.50676,0.07359
2798.57804,0.07306
2796.64931,0.07238
2794.72059,0.07158
2792.79187,0.07089
2790.86314,0.07023
2788.93442,0.06951
2787.00570,0.06875
2785.07697,0.06803
2783.14825,0.06741
2781.21953,0.06687
2779.29080,0.06624
2777.36208,0.06554
2775.43335,0.06486
2773.50463,0.06420
2771.57591,0.06352
2769.64718,0.06280
2767.71846,0.06216
2765.78974,0.06172
2763.86101,0.06133
2761.93229,0.06080
2760.00356,0.06012
2758.07484,0.05938
2756.14612,0.05866
2754.21739,0.05802
2752.28867,0.05752
2750.35995,0.05706
2748.43122,0.05642
2746.50250,0.05573
2744.57378,0.05520
2742.64505,0.05475
2740.71633,0.05423
2738.78760,0.05368
2736.85888,0.05311
2734.93016,0.05259
2733.00143,0.05205
2731.07271,0.05148
2729.14399,0.05095
2727.21526,0.05050
2725.28654,0.05012
2723.35782,0.04969
2721.42909,0.04907
2719.50037,0.04832
2717.57164,0.04760
2715.64292,0.04705
2713.71420,0.04666
2711.78547,0.04625
2709.85675,0.04571
2707.92803,0.04512
2705.99930,0.04462
2704.07058,0.04414
2702.14185,0.04360
2700.21313,0.04307
2698.28441,0.04261
2696.35568,0.04214
2694.42696,0.04160
2692.49824,0.04109
2690.56951,0.04068
2688.64079,0.04030
2686.71207,0.03985
2684.78334,0.03941
2682.85462,0.03907
2680.92589,0.03879
2678.99717,0.03846
2677.06845,0.03801
2675.13972,0.03748
2673.21100,0.03695
2671.28228,0.03641
2669.35355,0.03587
2667.42483,0.03535
2665.49611,0.03484
2663.56738,0.03439
2661.63866,0.03399
2659.70993,0.03361
2657.78121,0.03328
2655.85249,0.03294
2653.92376,0.03256
2651.99504,0.03217
2650.06632,0.03177
2648.13759,0.03137
2646.20887,0.03097
2644.28014,0.03057
2642.35142,0.03014
2640.42270,0.02976
2638.49397,0.02944
2636.56525,0.02914
2634.63653,0.02879
2632.70780,0.02837
2630.77908,0.02797
2628.85036,0.02769
2626.92163,0.02745
2624.99291,0.02713
2623.06418,0.02668
2621.13546,0.02619
2619.20674,0.02583
2617.27801,0.02561
2615.34929,0.02532
2613.42057,0.02497
2611.49184,0.02462
2609.56312,0.02431
2607.63440,0.02401
2605.70567,0.02367
2603.77695,0.02327
2601.84822,0.02291
2599.91950,0.02264
2597.99078,0.02237
2596.06205,0.02198
2594.13333,0.02151
2592.20461,0.02115
2590.27588,0.02095
2588.34716,0.02080
2586.41843,0.02055
2584.48971,0.02024
2582.56099,0.01993
2580.63226,0.01967
2578.70354,0.01937
2576.77482,0.01901
2574.84609,0.01865
2572.91737,0.01841
2570.98865,0.01823
2569.05992,0.01803
2567.13120,0.01779
2565.20247,0.01749
2563.27375,0.01717
2561.34503,0.01694
2559.41630,0.01682
2557.48758,0.01669
2555.55886,0.01649
2553.63013,0.01624
2551.70141,0.01600
2549.77269,0.01575
2547.84396,0.01554
2545.91524,0.01537
2543.98651,0.01516
2542.05779,0.01492
2540.12907,0.01471
2538.20034,0.01449
2536.27162,0.01425
2534.34290,0.01403
2532.41417,0.01381
2530.48545,0.01357
2528.55673,0.01332
2526.62800,0.01311
2524.69928,0.01296
2522.77055,0.01281
2520.84183,0.01256
2518.91311,0.01232
2516.98438,0.01216
2515.05566,0.01201
2513.12694,0.01181
2511.19821,0.01160
2509.26949,0.01143
2507.34076,0.01128
2505.41204,0.01110
2503.48332,0.01091
2501.55459,0.01078
2499.62587,0.01067
2497.69715,0.01054
2495.76842,0.01037
2493.83970,0.01016
2491.91098,0.00993
2489.98225,0.00974
2488.05353,0.00959
2486.12480,0.00937
2484.19608,0.00914
2482.26736,0.00897
2480.33863,0.00884
2478.40991,0.00872
2476.48119,0.00860
2474.55246,0.00842
2472.62374,0.00818
2470.69502,0.00801
2468.76629,0.00794
2466.83757,0.00786
2464.90884,0.00763
2462.98012,0.00735
2461.05140,0.00720
2459.12267,0.00715
2457.19395,0.00705
2455.26523,0.00686
2453.33650,0.00662
2451.40778,0.00639
2449.47905,0.00623
2447.55033,0.00612
2445.62161,0.00600
2443.69288,0.00588
2441.76416,0.00582
2439.83544,0.00579
2437.90671,0.00569
2435.97799,0.00548
2434.04927,0.00526
2432.12054,0.00508
2430.19182,0.00489
2428.26309,0.00472
2426.33437,0.00460
2424.40565,0.00448
2422.47692,0.00437
2420.54820,0.00425
2418.61948,0.00407
2416.69075,0.00390
2414.76203,0.00376
2412.83331,0.00364
2410.90458,0.00355
2408.97586,0.00346
2407.04713,0.00336
2405.11841,0.00328
2403.18969,0.00320
2401.26096,0.00308
2399.33224,0.00299
2397.40352,0.00292
2395.47479,0.00283
2393.54607,0.00273
2391.61734,0.00265
2389.68862,0.00258
2387.75990,0.00249
2385.83117,0.00242
2383.90245,0.00243
2381.97373,0.00253
2380.04500,0.00268
2378.11628,0.00281
2376.18756,0.00288
2374.25883,0.00291
2372.33011,0.00299
2370.40138,0.00315
2368.47266,0.00324
2366.54394,0.00317
2364.61521,0.00301
2362.68649,0.00276
2360.75777,0.00243
2358.82904,0.00213
2356.90032,0.00189
2354.97160,0.00163
2353.04287,0.00134
2351.11415,0.00121
2349.18542,0.00144
2347.25670,0.00185
2345.32798,0.00215
2343.39925,0.00220
2341.47053,0.00208
2339.54181,0.00188
2337.61308,0.00168
2335.68436,0.00154
2333.75563,0.00145
2331.82691,0.00129
2329.89819,0.00105
2327.96946,0.00094
2326.04074,0.00105
2324.11202,0.00119
2322.18329,0.00117
2320.25457,0.00102
2318.32585,0.00086
2316.39712,0.00074
2314.46840,0.00065
2312.53967,0.00059
2310.61095,0.00060
2308.68223,0.00067
2306.75350,0.00071
2304.82478,0.00067
2302.89606,0.00061
2300.96733,0.00057
2299.03861,0.00053
2297.10989,0.00042
2295.18116,0.00029
2293.25244,0.00019
2291.32371,0.00017
2289.39499,0.00020
2287.46627,0.00027
2285.53754,0.00032
2283.60882,0.00031
2281.68010,0.00027
2279.75137,0.00025
2277.82265,0.00019
2275.89392,0.00010
2273.96520,0.00006
2272.03648,0.00006
2270.10775,0.00003
2268.17903,-0.00001
2266.25031,-0.00002
2264.32158,-0.00002
2262.39286,0.00000
2260.46414,0.00004
2258.53541,0.00009
2256.60669,0.00009
2254.67796,0.00002
2252.74924,-0.00005
2250.82052,-0.00009
2248.89179,-0.00009
2246.96307,-0.00008
2245.03435,-0.00006
2243.10562,-0.00000
2241.17690,0.00003
2239.24818,-0.00003
2237.31945,-0.00011
2235.39073,-0.00016
2233.46200,-0.00020
2231.53328,-0.00021
2229.60456,-0.00015
2227.67583,-0.00007
2225.74711,-0.00001
2223.81839,0.00006
2221.88966,0.00012
2219.96094,0.00010
2218.03221,0.00002
2216.10349,-0.00006
2214.17477,-0.00010
2212.24604,-0.00012
2210.31732,-0.00014
2208.38860,-0.00011
2206.45987,0.00000
2204.53115,0.00012
2202.60243,0.00023
2200.67370,0.00024
2198.74498,0.00017
2196.81625,0.00011
2194.88753,0.00012
2192.95881,0.00012
2191.03008,0.00008
2189.10136,0.00004
2187.17264,0.00008
2185.24391,0.00020
2183.31519,0.00029
2181.38647,0.00031
2179.45774,0.00030
2177.52902,0.00028
2175.60029,0.00027
2173.67157,0.00030
2171.74285,0.00031
2169.81412,0.00028
2167.88540,0.00027
2165.95668,0.00031
2164.02795,0.00037
2162.09923,0.00042
2160.17050,0.00042
2158.24178,0.00043
2156.31306,0.00046
2154.38433,0.00047
2152.45561,0.00049
2150.52689,0.00055
2148.59816,0.00060
2146.66944,0.00062
2144.74072,0.00063
2142.81199,0.00061
2140.88327,0.00058
2138.95454,0.00052
2137.02582,0.00050
2135.09710,0.00054
2133.16837,0.00059
2131.23965,0.00057
2129.31093,0.00052
2127.38220,0.00050
2125.45348,0.00051
2123.52476,0.00051
2121.59603,0.00047
2119.66731,0.00039
2117.73858,0.00028
2115.80986,0.00023
2113.88114,0.00024
2111.95241,0.00028
2110.02369,0.00034
2108.09497,0.00041
2106.16624,0.00040
2104.23752,0.00029
2102.30880,0.00018
2100.38007,0.00013
2098.45135,0.00011
2096.52262,0.00006
2094.59390,0.00000
2092.66518,-0.00009
2090.73645,-0.00020
2088.80773,-0.00031
2086.87901,-0.00036
2084.95028,-0.00036
2083.02156,-0.00038
2081.09283,-0.00044
2079.16411,-0.00050
2077.23539,-0.00053
2075.30666,-0.00056
2073.37794,-0.00060
2071.44922,-0.00059
2069.52049,-0.00052
2067.59177,-0.00045
2065.66305,-0.00044
2063.73432,-0.00047
2061.80560,-0.00049
2059.87687,-0.00044
2057.94815,-0.00037
2056.01943,-0.00027
2054.09070,-0.00018
2052.16198,-0.00007
2050.23326,0.00010
2048.30453,0.00028
2046.37581,0.00040
2044.44709,0.00050
2042.51836,0.00067
2040.58964,0.00086
2038.66091,0.00108
2036.73219,0.00136
2034.80347,0.00163
2032.87474,0.00184
2030.94602,0.00208
2029.01730,0.00236
2027.08857,0.00253
2025.15985,0.00259
2023.23112,0.00269
2021.30240,0.00286
2019.37368,0.00303
2017.44495,0.00315
2015.51623,0.00325
2013.58751,0.00339
2011.65878,0.00359
2009.73006,0.00377
2007.80134,0.00389
2005.87261,0.00395
2003.94389,0.00399
2002.01516,0.00404
2000.08644,0.00407
1998.15772,0.00404
1996.22899,0.00404
1994.30027,0.00410
1992.37155,0.00413
1990.44282,0.00405
1988.51410,0.00393
1986.58538,0.00379
1984.65665,0.00364
1982.72793,0.00353
1980.79920,0.00348
1978.87048,0.00349
1976.94176,0.00347
1975.01303,0.00339
1973.08431,0.00328
1971.15559,0.00314
1969.22686,0.00295
1967.29814,0.00263
1965.36941,0.00230
1963.44069,0.00210
1961.51197,0.00196
1959.58324,0.00178
1957.65452,0.00160
1955.72580,0.00144
1953.79707,0.00122
1951.86835,0.00098
1949.93963,0.00079
1948.01090,0.00069
1946.08218,0.00068
1944.15345,0.00061
1942.22473,0.00037
1940.29601,0.00015
1938.36728,0.00010
1936.43856,0.00010
1934.50984,0.00004
1932.58111,-0.00001
1930.65239,0.00002
1928.72367,0.00008
1926.79494,0.00015
1924.86622,0.00024
1922.93749,0.00033
1921.00877,0.00047
1919.08005,0.00063
1917.15132,0.00081
1915.22260,0.00116
1913.29388,0.00165
1911.36515,0.00209
1909.43643,0.00244
1907.50770,0.00285
1905.57898,0.00340
1903.65026,0.00403
1901.72153,0.00466
1899.79281,0.00526
1897.86409,0.00586
1895.93536,0.00647
1894.00664,0.00703
1892.07792,0.00753
1890.14919,0.00794
1888.22047,0.00829
1886.29174,0.00869
1884.36302,0.00910
1882.43430,0.00941
1880.50557,0.00960
1878.57685,0.00970
1876.64813,0.00979
1874.71940,0.00992
1872.79068,0.01008
1870.86196,0.01008
1868.93323,0.00975
1867.00451,0.00928
1865.07578,0.00897
1863.14706,0.00867
1861.21834,0.00817
1859.28961,0.00755
1857.36089,0.00696
1855.43217,0.00641
1853.50344,0.00585
1851.57472,0.00529
1849.64599,0.00477
1847.71727,0.00427
1845.78855,0.00361
1843.85982,0.00279
1841.93110,0.00224
1840.00238,0.00208
1838.07365,0.00195
1836.14493,0.00169
1834.21621,0.00146
1832.28748,0.00129
1830.35876,0.00100
1828.43003,0.00064
1826.50131,0.00039
1824.57259,0.00017
1822.64386,0.00000
1820.71514,-0.00009
1818.78642,-0.00007
1816.85769,-0.00004
1814.92897,0.00000
1813.00025,-0.00008
1811.07152,-0.00023
1809.14280,-0.00040
1807.21407,-0.00047
1805.28535,-0.00038
1803.35663,-0.00023
1801.42790,-0.00011
1799.49918,0.00003
1797.57046,0.00031
1795.64173,0.00070
1793.71301,0.00101
1791.78428,0.00117
1789.85556,0.00148
1787.92684,0.00209
1785.99811,0.00280
1784.06939,0.00344
1782.14067,0.00405
1780.21194,0.00471
1778.28322,0.00538
1776.35450,0.00607
1774.42577,0.00671
1772.49705,0.00721
1770.56832,0.00767
1768.63960,0.00832
1766.71088,0.00916
1764.78215,0.01009
1762.85343,0.01093
1760.92471,0.01161
1758.99598,0.01232
1757.06726,0.01314
1755.13854,0.01403
1753.20981,0.01495
1751.28109,0.01584
1749.35236,0.01667
1747.42364,0.01762
1745.49492,0.01884
1743.56619,0.02022
1741.63747,0.02161
1739.70875,0.02306
1737.78002,0.02464
1735.85130,0.02630
1733.92257,0.02797
1731.99385,0.02963
1730.06513,0.03130
1728.13640,0.03295
1726.20768,0.03455
1724.27896,0.03615
1722.35023,0.03778
1720.42151,0.03940
1718.49279,0.04092
1716.56406,0.04240
1714.63534,0.04407
1712.70661,0.04597
1710.77789,0.04800
1708.84917,0.05011
1706.92044,0.05235
1704.99172,0.05467
1703.06300,0.05700
1701.13427,0.05960
1699.20555,0.06254
1697.27683,0.06554
1695.34810,0.06863
1693.41938,0.07168
1691.49065,0.07464
1689.56193,0.07770
1687.63321,0.08077
1685.70448,0.08394
1683.77576,0.08749
1681.84704,0.09095
1679.91831,0.09399
1677.98959,0.09688
1676.06087,0.09993
1674.13214,0.10314
1672.20342,0.10620
1670.27469,0.10909
1668.34597,0.11189
1666.41725,0.11440
1664.48852,0.11667
1662.55980,0.11890
1660.63108,0.12105
1658.70235,0.12302
1656.77363,0.12476
1654.84490,0.12630
1652.91618,0.12766
1650.98746,0.12887
1649.05873,0.12994
1647.13001,0.13077
1645.20129,0.13150
1643.27256,0.13233
1641.34384,0.13316
1639.41512,0.13379
1637.48639,0.13397
1635.55767,0.13352
1633.62894,0.13303
1631.70022,0.13291
1629.77150,0.13265
1627.84277,0.13188
1625.91405,0.13066
1623.98533,0.12891
1622.05660,0.12678
1620.12788,0.12472
1618.19916,0.12223
1616.27043,0.11896
1614.34171,0.11602
1612.41298,0.11375
1610.48426,0.11126
1608.55554,0.10824
1606.62681,0.10511
1604.69809,0.10213
1602.76937,0.09918
1600.84064,0.09633
1598.91192,0.09377
1596.98319,0.09142
1595.05447,0.08905
1593.12575,0.08662
1591.19702,0.08425
1589.26830,0.08198
1587.33958,0.07981
1585.41085,0.07774
1583.48213,0.07576
1581.55341,0.07401
1579.62468,0.07248
1577.69596,0.07075
1575.76723,0.06867
1573.83851,0.06710
1571.90979,0.06623
1569.98106,0.06535
1568.05234,0.06439
1566.12362,0.06376
1564.19489,0.06347
1562.26617,0.06330
1560.33745,0.06252
1558.40872,0.06072
1556.48000,0.05943
1554.55127,0.05915
1552.62255,0.05890
1550.69383,0.05823
1548.76510,0.05735
1546.83638,0.05656
1544.90766,0.05573
1542.97893,0.05432
1541.05021,0.05194
1539.12148,0.04942
1537.19276,0.04827
1535.26404,0.04775
1533.33531,0.04670
1531.40659,0.04534
1529.47787,0.04411
1527.54914,0.04267
1525.62042,0.04092
1523.69170,0.03909
1521.76297,0.03718
1519.83425,0.03541
1517.90552,0.03389
1515.97680,0.03220
1514.04808,0.03045
1512.11935,0.02892
1510.19063,0.02729
1508.26191,0.02458
1506.33318,0.02074
1504.40446,0.01801
1502.47574,0.01676
1500.54701,0.01557
1498.61829,0.01368
1496.68956,0.01142
1494.76084,0.00965
1492.83212,0.00859
1490.90339,0.00763
1488.97467,0.00651
1487.04595,0.00576
1485.11722,0.00565
1483.18850,0.00590
1481.25977,0.00632
1479.33105,0.00696
1477.40233,0.00798
1475.47360,0.00948
1473.54488,0.01156
1471.61616,0.01409
1469.68743,0.01655
1467.75871,0.01863
1465.82999,0.02029
1463.90126,0.02147
1461.97254,0.02231
1460.04381,0.02294
1458.11509,0.02325
1456.18637,0.02331
1454.25764,0.02359
1452.32892,0.02413
1450.40020,0.02461
1448.47147,0.02486
1446.54275,0.02497
1444.61403,0.02515
1442.68530,0.02550
1440.75658,0.02598
1438.82785,0.02642
1436.89913,0.02667
1434.97041,0.02684
1433.04168,0.02727
1431.11296,0.02800
1429.18424,0.02879
1427.25551,0.02939
1425.32679,0.02978
1423.39806,0.03014
1421.46934,0.03061
1419.54062,0.03113
1417.61189,0.03167
1415.68317,0.03232
1413.75445,0.03311
1411.82572,0.03396
1409.89700,0.03486
1407.96828,0.03580
1406.03955,0.03672
1404.11083,0.03750
1402.18210,0.03795
1400.25338,0.03772
1398.32466,0.03652
1396.39593,0.03447
1394.46721,0.03207
1392.53849,0.02993
1390.60976,0.02820
1388.68104,0.02650
1386.75232,0.02478
1384.82359,0.02342
1382.89487,0.02246
1380.96614,0.02157
1379.03742,0.02062
1377.10870,0.01962
1375.17997,0.01843
1373.25125,0.01711
1371.32253,0.01597
1369.39380,0.01496
1367.46508,0.01388
1365.53635,0.01276
1363.60763,0.01158
1361.67891,0.01040
1359.75018,0.00941
1357.82146,0.00870
1355.89274,0.00811
1353.96401,0.00749
1352.03529,0.00686
1350.10657,0.00632
1348.17784,0.00595
1346.24912,0.00570
1344.32039,0.00547
1342.39167,0.00519
1340.46295,0.00485
1338.53422,0.00458
1336.60550,0.00445
1334.67678,0.00436
1332.74805,0.00429
1330.81933,0.00431
1328.89061,0.00445
1326.96188,0.00466
1325.03316,0.00487
1323.10443,0.00509
1321.17571,0.00537
1319.24699,0.00583
1317.31826,0.00666
1315.38954,0.00792
1313.46082,0.00942
1311.53209,0.01097
1309.60337,0.01259
1307.67464,0.01457
1305.74592,0.01747
1303.81720,0.02145
1301.88847,0.02525
1299.95975,0.02727
1298.03103,0.02804
1296.10230,0.02911
1294.17358,0.03052
1292.24486,0.03149
1290.31613,0.03184
1288.38741,0.03179
1286.45868,0.03162
1284.52996,0.03172
1282.60124,0.03234
1280.67251,0.03347
1278.74379,0.03517
1276.81507,0.03747
1274.88634,0.04038
1272.95762,0.04399
1271.02890,0.04827
1269.10017,0.05312
1267.17145,0.05859
1265.24272,0.06480
1263.31400,0.07173
1261.38528,0.07952
1259.45655,0.08831
1257.52783,0.09795
1255.59911,0.10814
1253.67038,0.11860
1251.74166,0.12902
1249.81294,0.13910
1247.88421,0.14865
1245.95549,0.15760
1244.02676,0.16596
1242.09804,0.17356
1240.16932,0.18026
1238.24059,0.18630
1236.31187,0.19198
1234.38315,0.19732
1232.45442,0.20209
1230.52570,0.20633
1228.59697,0.21026
1226.66825,0.21384
1224.73953,0.21703
1222.81080,0.22015
1220.88208,0.22328
1218.95336,0.22624
1217.02463,0.22913
1215.09591,0.23202
1213.16719,0.23472
1211.23846,0.23721
1209.30974,0.23964
1207.38101,0.24228
1205.45229,0.24521
1203.52357,0.24815
1201.59484,0.25114
1199.66612,0.25475
1197.73740,0.25944
1195.80867,0.26522
1193.87995,0.27101
1191.95123,0.27491
1190.02250,0.27649
1188.09378,0.27782
1186.16505,0.28012
1184.23633,0.28206
1182.30761,0.28223
1180.37888,0.28158
1178.45016,0.28117
1176.52144,0.28085
1174.59271,0.28071
1172.66399,0.28102
1170.73526,0.28153
1168.80654,0.28206
1166.87782,0.28273
1164.94909,0.28353
1163.02037,0.28428
1161.09165,0.28511
1159.16292,0.28629
1157.23420,0.28765
1155.30548,0.28884
1153.37675,0.29006
1151.44803,0.29153
1149.51930,0.29311
1147.59058,0.29469
1145.66186,0.29625
1143.73313,0.29779
1141.80441,0.29913
1139.87569,0.30034
1137.94696,0.30199
1136.01824,0.30437
1134.08952,0.30687
1132.16079,0.30891
1130.23207,0.31087
1128.30334,0.31326
1126.37462,0.31609
1124.44590,0.31935
1122.51717,0.32297
1120.58845,0.32671
1118.65973,0.33057
1116.73100,0.33505
1114.80228,0.34039
1112.87355,0.34626
1110.94483,0.35227
1109.01611,0.35827
1107.08738,0.36439
1105.15866,0.37041
1103.22994,0.37556
1101.30121,0.37972
1099.37249,0.38338
1097.44377,0.38649
1095.51504,0.38839
1093.58632,0.38916
1091.65759,0.38962
1089.72887,0.38984
1087.80015,0.38948
1085.87142,0.38892
1083.94270,0.38818
1082.01398,0.38692
1080.08525,0.38551
1078.15653,0.38387
1076.22781,0.38184
1074.29908,0.37961
1072.37036,0.37704
1070.44163,0.37409
1068.51291,0.37076
1066.58419,0.36687
1064.65546,0.36281
1062.72674,0.35913
1060.79802,0.35550
1058.86929,0.35140
1056.94057,0.34669
1055.01184,0.34144
1053.08312,0.33579
1051.15440,0.32993
1049.22567,0.32413
1047.29695,0.31843
1045.36823,0.31259
1043.43950,0.30660
1041.51078,0.30031
1039.58206,0.29375
1037.65333,0.28734
1035.72461,0.28117
1033.79588,0.27504
1031.86716,0.26898
1029.93844,0.26297
1028.00971,0.25697
1026.08099,0.25102
1024.15227,0.24509
1022.22354,0.23916
1020.29482,0.23333
1018.36610,0.22777
1016.43737,0.22269
1014.50865,0.21798
1012.57992,0.21354
1010.65120,0.20941
1008.72248,0.20523
1006.79375,0.20085
1004.86503,0.19676
1002.93631,0.19306
1001.00758,0.18937
999.07886,0.18570
997.15013,0.18233
995.22141,0.17918
993.29269,0.17603
991.36396,0.17287
989.43524,0.16986
987.50652,0.16711
985.57779,0.16462
983.64907,0.16240
981.72035,0.16063
979.79162,0.15930
977.86290,0.15832
975.93417,0.15749
974.00545,0.15651
972.07673,0.15535
970.14800,0.15420
968.21928,0.15307
966.29056,0.15199
964.36183,0.15104
962.43311,0.15016
960.50439,0.14923
958.57566,0.14811
956.64694,0.14685
954.71821,0.14570
952.78949,0.14444
950.86077,0.14296
948.93204,0.14159
947.00332,0.14030
945.07460,0.13882
943.14587,0.13697
941.21715,0.13482
939.28842,0.13253
937.35970,0.13020
935.43098,0.12813
933.50225,0.12634
931.57353,0.12419
929.64481,0.12153
927.71608,0.11870
925.78736,0.11590
923.85864,0.11310
921.92991,0.11025
920.00119,0.10736
918.07246,0.10435
916.14374,0.10115
914.21502,0.09798
912.28629,0.09490
910.35757,0.09153
908.42885,0.08770
906.50012,0.08377
904.57140,0.08020
902.64268,0.07694
900.71395,0.07361
898.78523,0.07017
896.85650,0.06670
894.92778,0.06322
892.99906,0.05991
891.07033,0.05685
889.14161,0.05379
887.21289,0.05060
885.28416,0.04751
883.35544,0.04455
881.42671,0.04148
879.49799,0.03846
877.56927,0.03585
875.64054,0.03356
873.71182,0.03136
871.78310,0.02931
869.85437,0.02735
867.92565,0.02540
865.99693,0.02363
864.06820,0.02210
862.13948,0.02063
860.21075,0.01907
858.28203,0.01774
856.35331,0.01683
854.42458,0.01583
852.49586,0.01460
850.56714,0.01377
848.63841,0.01363
846.70969,0.01381
844.78097,0.01439
842.85224,0.01564
840.92352,0.01723
838.99479,0.01905
837.06607,0.02148
835.13735,0.02430
833.20862,0.02699
831.27990,0.02941
829.35118,0.03165
827.42245,0.03399
825.49373,0.03699
823.56501,0.04079
821.63628,0.04467
819.70756,0.04808
817.77883,0.05122
815.85011,0.05437
813.92139,0.05736
811.99266,0.05979
810.06394,0.06211
808.13522,0.06504
806.20649,0.06800
804.27777,0.07052
802.34904,0.07300
800.42032,0.07511
798.49160,0.07616
796.56287,0.07619
794.63415,0.07553
792.70543,0.07471
790.77670,0.07384
788.84798,0.07228
786.91926,0.06986
784.99053,0.06713
783.06181,0.06445
781.13308,0.06170
779.20436,0.05844
777.27564,0.05463
775.34691,0.05075
773.41819,0.04717
771.48947,0.04393
769.56074,0.04130
767.63202,0.03962
765.70330,0.03857
763.77457,0.03762
761.84585,0.03664
759.91712,0.03581
757.98840,0.03535
756.05968,0.03526
754.13095,0.03511
752.20223,0.03453
750.27351,0.03377
748.34478,0.03314
746.41606,0.03271
744.48733,0.03260
742.55861,0.03277
740.62989,0.03297
738.70116,0.03292
736.77244,0.03250
734.84372,0.03202
732.91499,0.03185
730.98627,0.03188
729.05755,0.03194
727.12882,0.03215
725.20010,0.03236
723.27137,0.03210
721.34265,0.03157
719.41393,0.03142
717.48520,0.03170
715.55648,0.03194
713.62776,0.03197
711.69903,0.03203
709.77031,0.03247
707.84159,0.03323
705.91286,0.03383
703.98414,0.03434
702.05541,0.03534
700.12669,0.03657
698.19797,0.03722
696.26924,0.03732
694.34052,0.03733
692.41180,0.03734
690.48307,0.03733
688.55435,0.03719
686.62562,0.03680
684.69690,0.03658
682.76818,0.03700
680.83945,0.03784
678.91073,0.03830
676.98201,0.03820
675.05328,0.03806
673.12456,0.03799
671.19584,0.03775
669.26711,0.03743
667.33839,0.03735
665.40966,0.03761
663.48094,0.03810
661.55222,0.03882
659.62349,0.03961
657.69477,0.03999
655.76605,0.03988
653.83732,0.04005
651.90860,0.04115
649.97988,0.04296
648.05115,0.04492
646.12243,0.04690
644.19370,0.04881
642.26498,0.05031
640.33626,0.05127
638.40753,0.05214
636.47881,0.05350
634.55009,0.05538
632.62136,0.05723
630.69264,0.05863
628.76391,0.05935
626.83519,0.05938
624.90647,0.05933
622.97774,0.05977
621.04902,0.06071
619.12030,0.06192
617.19157,0.06284
615.26285,0.06335
613.33413,0.06415
611.40540,0.06554
609.47668,0.06710
607.54795,0.06853
605.61923,0.07000
603.69051,0.07170
601.76178,0.07359
599.83306,0.07544
597.90434,0.07674
595.97561,0.07724
594.04689,0.07772
592.11817,0.07936
590.18944,0.08195
588.26072,0.08423
586.33199,0.08530
584.40327,0.08534
582.47455,0.08569
580.54582,0.08659
578.61710,0.08687
576.68838,0.08621
574.75965,0.08545
572.83093,0.08551
570.90220,0.08619
568.97348,0.08661
567.04476,0.08660
565.11603,0.08645
563.18731,0.08672
561.25859,0.08777
559.32986,0.08864
557.40114,0.08861
555.47242,0.08848
553.54369,0.08920
551.61497,0.09042
549.68624,0.09099
547.75752,0.09124
545.82880,0.09211
543.90007,0.09287
541.97135,0.09295
540.04263,0.09299
538.11390,0.09335
536.18518,0.09389
534.25646,0.09435
532.32773,0.09433
530.39901,0.09353
528.47028,0.09145
526.54156,0.08843
524.61284,0.08672
522.68411,0.08720
520.75539,0.08819
518.82667,0.08917
516.89794,0.09203
514.96922,0.09632
513.04049,0.09865
511.11177,0.09860
509.18305,0.09909
507.25432,0.10200
505.32560,0.10661
503.39688,0.11155
501.46815,0.11684
499.53943,0.12294
497.61071,0.12982
495.68198,0.13707
493.75326,0.14407
491.82453,0.15005
489.89581,0.15443
487.96709,0.15856
486.03836,0.16487
484.10964,0.17338
482.18092,0.18100
480.25219,0.18563
478.32347,0.18863
476.39475,0.19209
474.46602,0.19716
472.53730,0.20460
470.60857,0.21364
468.67985,0.22072
466.75113,0.22244
464.82240,0.21985
462.89368,0.21672
460.96496,0.21433
459.03623,0.21124
457.10751,0.20634
455.17878,0.20029
453.25006,0.19478
451.32134,0.19011
449.39261,0.18468
447.46389,0.17855
445.53517,0.17542
443.60644,0.17672
441.67772,0.17804
439.74900,0.17597
437.82027,0.17057
435.89155,0.16140
433.96282,0.15007
432.03410,0.14114
430.10538,0.13602
428.17665,0.13221
426.24793,0.12930
424.31921,0.12896
422.39048,0.12775
420.46176,0.11829
418.53304,0.10238
416.60431,0.09214
414.67559,0.08863
412.74686,0.08513
410.81814,0.08208
408.88942,0.08249
406.96069,0.08465
405.03197,0.08554
403.10325,0.08383
401.17452,0.07984
399.24580,0.07721
397.31708,0.07955
395.38835,0.07825
393.45963,0.06656
391.53090,0.06123
389.60218,0.07496
387.67346,0.08780
385.74473,0.07591
383.81601,0.04842
381.88729,0.02692
379.95856,0.01266
378.02984,0.00480
376.10111,0.01662
374.17239,0.04202
372.24367,0.04153
370.31494,0.01746
368.38622,0.00000
