3996.31543,0.00006
3994.38671,0.00000
3992.45799,0.00009
3990.52926,0.00033
3988.60054,0.00042
3986.67182,0.00032
3984.74309,0.00024
3982.81437,0.00033
3980.88564,0.00053
3978.95692,0.00069
3977.02820,0.00085
3975.09947,0.00098
3973.17075,0.00106
3971.24203,0.00113
3969.31330,0.00114
3967.38458,0.00104
3965.45586,0.00093
3963.52713,0.00093
3961.59841,0.00095
3959.66968,0.00097
3957.74096,0.00104
3955.81224,0.00102
3953.88351,0.00101
3951.95479,0.00132
3950.02607,0.00180
3948.09734,0.00188
3946.16862,0.00167
3944.23990,0.00175
3942.31117,0.00169
3940.38245,0.00115
3938.45372,0.00079
3936.52500,0.00076
3934.59628,0.00110
3932.66755,0.00151
3930.73883,0.00132
3928.81011,0.00080
3926.88138,0.00087
3924.95266,0.00131
3923.02393,0.00130
3921.09521,0.00121
3919.16649,0.00141
3917.23776,0.00142
3915.30904,0.00099
3913.38032,0.00068
3911.45159,0.00071
3909.52287,0.00070
3907.59415,0.00101
3905.66542,0.00183
3903.73670,0.00212
3901.80797,0.00166
3899.87925,0.00124
3897.95053,0.00055
3896.02180,0.00012
3894.09308,0.00086
3892.16436,0.00173
3890.23563,0.00120
3888.30691,0.00078
3886.37819,0.00138
3884.44946,0.00102
3882.52074,0.00062
3880.59201,0.00089
3878.66329,0.00027
3876.73457,0.00016
3874.80584,0.00105
3872.87712,0.00156
3870.94840,0.00200
3869.01967,0.00147
3867.09095,0.00076
3865.16222,0.00153
3863.23350,0.00185
3861.30478,0.00102
3859.37605,0.00027
3857.44733,0.00081
3855.51861,0.00309
3853.58988,0.00458
3851.66116,0.00241
3849.73244,0.00021
3847.80371,0.00000
3845.87499,0.00079
3843.94626,0.00143
3842.01754,0.00151
3840.08882,0.00177
3838.16009,0.00180
3836.23137,0.00110
3834.30265,0.00083
3832.37392,0.00117
3830.44520,0.00117
3828.51648,0.00117
3826.58775,0.00117
3824.65903,0.00111
3822.73030,0.00207
3820.80158,0.00220
3818.87286,0.00100
3816.94413,0.00151
3815.01541,0.00182
3813.08669,0.00090
3811.15796,0.00078
3809.22924,0.00179
3807.30052,0.00255
3805.37179,0.00206
3803.44307,0.00266
3801.51434,0.00373
3799.58562,0.00292
3797.65690,0.00261
3795.72817,0.00283
3793.79945,0.00258
3791.87073,0.00267
3789.94200,0.00302
3788.01328,0.00336
3786.08455,0.00373
3784.15583,0.00377
3782.22711,0.00394
3780.29838,0.00469
3778.36966,0.00468
3776.44094,0.00407
3774.51221,0.00415
3772.58349,0.00513
3770.65477,0.00622
3768.72604,0.00630
3766.79732,0.00612
3764.86859,0.00609
3762.93987,0.00626
3761.01115,0.00748
3759.08242,0.00859
3757.15370,0.00854
3755.22498,0.00888
3753.29625,0.01086
3751.36753,0.01252
3749.43881,0.01161
3747.51008,0.01091
3745.58136,0.01304
3743.65263,0.01438
3741.72391,0.01367
3739.79519,0.01405
3737.86646,0.01599
3735.93774,0.01804
3734.00902,0.01903
3732.08029,0.01957
3730.15157,0.02047
3728.22284,0.02254
3726.29412,0.02526
3724.36540,0.02748
3722.43667,0.02955
3720.50795,0.03166
3718.57923,0.03362
3716.65050,0.03547
3714.72178,0.03816
3712.79306,0.04222
3710.86433,0.04596
3708.93561,0.04838
3707.00688,0.05062
3705.07816,0.05382
3703.14944,0.05808
3701.22071,0.06205
3699.29199,0.06510
3697.36327,0.06824
3695.43454,0.07139
3693.50582,0.07467
3691.57710,0.07907
3689.64837,0.08402
3687.71965,0.08755
3685.79092,0.09014
3683.86220,0.09360
3681.93348,0.09781
3680.00475,0.10222
3678.07603,0.10759
3676.14731,0.11393
3674.21858,0.11799
3672.28986,0.12138
3670.36113,0.12686
3668.43241,0.13140
3666.50369,0.13457
3664.57496,0.13826
3662.64624,0.14211
3660.71752,0.14548
3658.78879,0.14907
3656.86007,0.15303
3654.93135,0.15585
3653.00262,0.15860
3651.07390,0.16325
3649.14517,0.16800
3647.21645,0.17093
3645.28773,0.17284
3643.35900,0.17537
3641.43028,0.17851
3639.50156,0.18159
3637.57283,0.18447
3635.64411,0.18710
3633.71539,0.18920
3631.78666,0.19171
3629.85794,0.19572
3627.92921,0.19852
3626.00049,0.19923
3624.07177,0.20045
3622.14304,0.20294
3620.21432,0.20588
3618.28560,0.20758
3616.35687,0.20828
3614.42815,0.20969
3612.49942,0.21150
3610.57070,0.21340
3608.64198,0.21563
3606.71325,0.21725
3604.78453,0.21838
3602.85581,0.22010
3600.92708,0.22218
3598.99836,0.22394
3597.06964,0.22561
3595.14091,0.22726
3593.21219,0.22837
3591.28346,0.22946
3589.35474,0.23166
3587.42602,0.23400
3585.49729,0.23505
3583.56857,0.23599
3581.63985,0.23761
3579.71112,0.23934
3577.78240,0.24080
3575.85368,0.24213
3573.92495,0.24329
3571.99623,0.24432
3570.06750,0.24585
3568.13878,0.24783
3566.21006,0.24900
3564.28133,0.24943
3562.35261,0.25046
3560.42389,0.25199
3558.49516,0.25337
3556.56644,0.25463
3554.63771,0.25603
3552.70899,0.25731
3550.78027,0.25805
3548.85154,0.25880
3546.92282,0.26005
3544.99410,0.26131
3543.06537,0.26232
3541.13665,0.26323
3539.20793,0.26418
3537.27920,0.26525
3535.35048,0.26635
3533.42175,0.26733
3531.49303,0.26816
3529.56431,0.26887
3527.63558,0.26974
3525.70686,0.27091
3523.77814,0.27215
3521.84941,0.27312
3519.92069,0.27408
3517.99197,0.27522
3516.06324,0.27620
3514.13452,0.27693
3512.20579,0.27773
3510.27707,0.27865
3508.34835,0.27932
3506.41962,0.28007
3504.49090,0.28129
3502.56218,0.28221
3500.63345,0.28254
3498.70473,0.28319
3496.77600,0.28432
3494.84728,0.28527
3492.91856,0.28586
3490.98983,0.28653
3489.06111,0.28755
3487.13239,0.28858
3485.20366,0.28926
3483.27494,0.28976
3481.34622,0.29019
3479.41749,0.29069
3477.48877,0.29147
3475.56004,0.29227
3473.63132,0.29280
3471.70260,0.29326
3469.77387,0.29395
3467.84515,0.29478
3465.91643,0.29530
3463.98770,0.29550
3462.05898,0.29585
3460.13026,0.29649
3458.20153,0.29709
3456.27281,0.29739
3454.34408,0.29760
3452.41536,0.29790
3450.48664,0.29827
3448.55791,0.29880
3446.62919,0.29913
3444.70047,0.29915
3442.77174,0.29944
3440.84302,0.29995
3438.91429,0.30048
3436.98557,0.30094
3435.05685,0.30137
3433.12812,0.30182
3431.19940,0.30211
3429.27068,0.30219
3427.34195,0.30229
3425.41323,0.30252
3423.48451,0.30282
3421.55578,0.30312
3419.62706,0.30329
3417.69833,0.30346
3415.76961,0.30381
3413.84089,0.30414
3411.91216,0.30428
3409.98344,0.30429
3408.05472,0.30429
3406.12599,0.30434
3404.19727,0.30443
3402.26855,0.30445
3400.33982,0.30435
3398.41110,0.30441
3396.48237,0.30467
3394.55365,0.30495
3392.62493,0.30506
3390.69620,0.30477
3388.76748,0.30430
3386.83876,0.30404
3384.91003,0.30399
3382.98131,0.30391
3381.05259,0.30376
3379.12386,0.30366
3377.19514,0.30359
3375.26641,0.30349
3373.33769,0.30332
3371.40897,0.30318
3369.48024,0.30311
3367.55152,0.30287
3365.62280,0.30241
3363.69407,0.30210
3361.76535,0.30210
3359.83662,0.30218
3357.90790,0.30209
3355.97918,0.30168
3354.05045,0.30100
3352.12173,0.30041
3350.19301,0.30016
3348.26428,0.30007
3346.33556,0.29980
3344.40684,0.29921
3342.47811,0.29861
3340.54939,0.29835
3338.62066,0.29841
3336.69194,0.29838
3334.76322,0.29805
3332.83449,0.29774
3330.90577,0.29758
3328.97705,0.29732
3327.04832,0.29694
3325.11960,0.29658
3323.19088,0.29616
3321.26215,0.29570
3319.33343,0.29525
3317.40470,0.29471
3315.47598,0.29417
3313.54726,0.29383
3311.61853,0.29367
3309.68981,0.29353
3307.76109,0.29330
3305.83236,0.29297
3303.90364,0.29256
3301.97491,0.29207
3300.04619,0.29165
3298.11747,0.29145
3296.18874,0.29141
3294.26002,0.29126
3292.33130,0.29087
3290.40257,0.29037
3288.47385,0.28993
3286.54513,0.28964
3284.61640,0.28942
3282.68768,0.28915
3280.75895,0.28877
3278.83023,0.28827
3276.90151,0.28766
3274.97278,0.28714
3273.04406,0.28684
3271.11534,0.28661
3269.18661,0.28618
3267.25789,0.28553
3265.32917,0.28494
3263.40044,0.28460
3261.47172,0.28439
3259.54299,0.28404
3257.61427,0.28338
3255.68555,0.28260
3253.75682,0.28200
3251.82810,0.28156
3249.89938,0.28112
3247.97065,0.28059
3246.04193,0.28007
3244.11320,0.27964
3242.18448,0.27919
3240.25576,0.27865
3238.32703,0.27810
3236.39831,0.27765
3234.46959,0.27721
3232.54086,0.27662
3230.61214,0.27594
3228.68342,0.27542
3226.75469,0.27497
3224.82597,0.27438
3222.89724,0.27367
3220.96852,0.27286
3219.03980,0.27194
3217.11107,0.27107
3215.18235,0.27044
3213.25363,0.26993
3211.32490,0.26939
3209.39618,0.26872
3207.46746,0.26793
3205.53873,0.26725
3203.61001,0.26666
3201.68128,0.26602
3199.75256,0.26531
3197.82384,0.26452
3195.89511,0.26361
3193.96639,0.26270
3192.03767,0.26186
3190.10894,0.26112
3188.18022,0.26042
3186.25149,0.25959
3184.32277,0.25862
3182.39405,0.25768
3180.46532,0.25683
3178.53660,0.25595
3176.60788,0.25500
3174.67915,0.25412
3172.75043,0.25334
3170.82171,0.25260
3168.89298,0.25189
3166.96426,0.25113
3165.03553,0.25024
3163.10681,0.24917
3161.17809,0.24805
3159.24936,0.24709
3157.32064,0.24631
3155.39192,0.24554
3153.46319,0.24471
3151.53447,0.24386
3149.60575,0.24298
3147.67702,0.24204
3145.74830,0.24107
3143.81957,0.24009
3141.89085,0.23914
3139.96213,0.23826
3138.03340,0.23742
3136.10468,0.23655
3134.17596,0.23559
3132.24723,0.23447
3130.31851,0.23339
3128.38978,0.23246
3126.46106,0.23159
3124.53234,0.23079
3122.60361,0.23004
3120.67489,0.22918
3118.74617,0.22819
3116.81744,0.22714
3114.88872,0.22605
3112.96000,0.22503
3111.03127,0.22413
3109.10255,0.22324
3107.17382,0.22229
3105.24510,0.22120
3103.31638,0.21995
3101.38765,0.21865
3099.45893,0.21744
3097.53021,0.21638
3095.60148,0.21535
3093.67276,0.21429
3091.74404,0.21328
3089.81531,0.21218
3087.88659,0.21086
3085.95786,0.20959
3084.02914,0.20858
3082.10042,0.20760
3080.17169,0.20638
3078.24297,0.20508
3076.31425,0.20393
3074.38552,0.20291
3072.45680,0.20180
3070.52807,0.20064
3068.59935,0.19958
3066.67063,0.19858
3064.74190,0.19747
3062.81318,0.19623
3060.88446,0.19505
3058.95573,0.19398
3057.02701,0.19294
3055.09829,0.19194
3053.16956,0.19100
3051.24084,0.18994
3049.31211,0.18874
3047.38339,0.18757
3045.45467,0.18649
3043.52594,0.18543
3041.59722,0.18433
3039.66850,0.18324
3037.73977,0.18218
3035.81105,0.18114
3033.88233,0.18013
3031.95360,0.17918
3030.02488,0.17823
3028.09615,0.17727
3026.16743,0.17639
3024.23871,0.17559
3022.30998,0.17472
3020.38126,0.17378
3018.45254,0.17297
3016.52381,0.17230
3014.59509,0.17151
3012.66636,0.17058
3010.73764,0.16966
3008.80892,0.16877
3006.88019,0.16790
3004.95147,0.16714
3003.02275,0.16648
3001.09402,0.16586
2999.16530,0.16528
2997.23658,0.16471
2995.30785,0.16409
2993.37913,0.16347
2991.45040,0.16293
2989.52168,0.16247
2987.59296,0.16204
2985.66423,0.16168
2983.73551,0.16144
2981.80679,0.16127
2979.87806,0.16118
2977.94934,0.16119
2976.02062,0.16129
2974.09189,0.16134
2972.16317,0.16133
2970.23444,0.16140
2968.30572,0.16155
2966.37700,0.16175
2964.44827,0.16198
2962.51955,0.16213
2960.59083,0.16210
2958.66210,0.16195
2956.73338,0.16172
2954.80466,0.16137
2952.87593,0.16099
2950.94721,0.16071
2949.01848,0.16054
2947.08976,0.16051
2945.16104,0.16076
2943.23231,0.16126
2941.30359,0.16196
2939.37487,0.16285
2937.44614,0.16375
2935.51742,0.16461
2933.58869,0.16547
2931.65997,0.16626
2929.73125,0.16691
2927.80252,0.16727
2925.87380,0.16714
2923.94508,0.16642
2922.01635,0.16514
2920.08763,0.16330
2918.15891,0.16080
2916.23018,0.15774
2914.30146,0.15458
2912.37273,0.15168
2910.44401,0.14916
2908.51529,0.14698
2906.58656,0.14505
2904.65784,0.14330
2902.72912,0.14160
2900.80039,0.13983
2898.87167,0.13806
2896.94295,0.13652
2895.01422,0.13522
2893.08550,0.13382
2891.15677,0.13223
2889.22805,0.13070
2887.29933,0.12939
2885.37060,0.12824
2883.44188,0.12720
2881.51316,0.12631
2879.58443,0.12562
2877.65571,0.12507
2875.72698,0.12453
2873.79826,0.12395
2871.86954,0.12326
2869.94081,0.12249
2868.01209,0.12174
2866.08337,0.12115
2864.15464,0.12081
2862.22592,0.12088
2860.29720,0.12136
2858.36847,0.12207
2856.43975,0.12276
2854.51102,0.12314
2852.58230,0.12273
2850.65358,0.12107
2848.72485,0.11811
2846.79613,0.11438
2844.86741,0.11059
2842.93868,0.10725
2841.00996,0.10455
2839.08124,0.10237
2837.15251,0.10051
2835.22379,0.09891
2833.29506,0.09751
2831.36634,0.09616
2829.43762,0.09477
2827.50889,0.09341
2825.58017,0.09220
2823.65145,0.09114
2821.72272,0.09019
2819.79400,0.08931
2817.86527,0.08842
2815.93655,0.08743
2814.00783,0.08645
2812.07910,0.08561
2810.15038,0.08486
2808.22166,0.08403
2806.29293,0.08310
2804.36421,0.08221
2802.43549,0.08144
2800.50676,0.08074
2798.57804,0.08006
2796.64931,0.07941
2794.72059,0.07875
2792.79187,0.07798
2790.86314,0.07720
2788.93442,0.07646
2787.00570,0.07568
2785.07697,0.07486
2783.14825,0.07406
2781.21953,0.07332
2779.29080,0.07267
2777.36208,0.07204
2775.43335,0.07139
2773.50463,0.07064
2771.57591,0.06986
2769.64718,0.06918
2767.71846,0.06859
2765.78974,0.06803
2763.86101,0.06747
2761.93229,0.06686
2760.00356,0.06621
2758.07484,0.06558
2756.14612,0.06494
2754.21739,0.06422
2752.28867,0.06351
2750.35995,0.06293
2748.43122,0.06238
2746.50250,0.06179
2744.57378,0.06121
2742.64505,0.06065
2740.71633,0.06007
2738.78760,0.05948
2736.85888,0.05891
2734.93016,0.05838
2733.00143,0.05787
2731.07271,0.05726
2729.14399,0.05657
2727.21526,0.05591
2725.28654,0.05537
2723.35782,0.05497
2721.42909,0.05453
2719.50037,0.05393
2717.57164,0.05330
2715.64292,0.05270
2713.71420,0.05213
2711.78547,0.05156
2709.85675,0.05091
2707.92803,0.05023
2705.99930,0.04967
2704.07058,0.04917
2702.14185,0.04867
2700.21313,0.04820
2698.28441,0.04779
2696.35568,0.04738
2694.42696,0.04688
2692.49824,0.04631
2690.56951,0.04583
2688.64079,0.04542
2686.71207,0.04491
2684.78334,0.04431
2682.85462,0.04384
2680.92589,0.04352
2678.99717,0.04317
2677.06845,0.04268
2675.13972,0.04210
2673.21100,0.04155
2671.28228,0.04111
2669.35355,0.04073
2667.42483,0.04033
2665.49611,0.03984
2663.56738,0.03929
2661.63866,0.03882
2659.70993,0.03843
2657.78121,0.03801
2655.85249,0.03752
2653.92376,0.03710
2651.99504,0.03673
2650.06632,0.03626
2648.13759,0.03571
2646.20887,0.03522
2644.28014,0.03482
2642.35142,0.03442
2640.42270,0.03398
2638.49397,0.03354
2636.56525,0.03313
2634.63653,0.03278
2632.70780,0.03249
2630.77908,0.03219
2628.85036,0.03183
2626.92163,0.03141
2624.99291,0.03098
2623.06418,0.03053
2621.13546,0.03009
2619.20674,0.02971
2617.27801,0.02932
2615.34929,0.02886
2613.42057,0.02840
2611.49184,0.02799
2609.56312,0.02764
2607.63440,0.02737
2605.70567,0.02712
2603.77695,0.02680
2601.84822,0.02642
2599.91950,0.02606
2597.99078,0.02572
2596.06205,0.02539
2594.13333,0.02506
2592.20461,0.02476
2590.27588,0.02454
2588.34716,0.02431
2586.41843,0.02398
2584.48971,0.02358
2582.56099,0.02318
2580.63226,0.02281
2578.70354,0.02247
2576.77482,0.02216
2574.84609,0.02186
2572.91737,0.02159
2570.98865,0.02139
2569.05992,0.02124
2567.13120,0.02097
2565.20247,0.02066
2563.27375,0.02040
2561.34503,0.02012
2559.41630,0.01979
2557.48758,0.01951
2555.55886,0.01930
2553.63013,0.01908
2551.70141,0.01885
2549.77269,0.01862
2547.84396,0.01839
2545.91524,0.01813
2543.98651,0.01786
2542.05779,0.01761
2540.12907,0.01742
2538.20034,0.01721
2536.27162,0.01697
2534.34290,0.01673
2532.41417,0.01653
2530.48545,0.01634
2528.55673,0.01615
2526.62800,0.01591
2524.69928,0.01569
2522.77055,0.01552
2520.84183,0.01534
2518.91311,0.01513
2516.98438,0.01487
2515.05566,0.01453
2513.12694,0.01426
2511.19821,0.01409
2509.26949,0.01388
2507.34076,0.01366
2505.41204,0.01352
2503.48332,0.01341
2501.55459,0.01321
2499.62587,0.01297
2497.69715,0.01274
2495.76842,0.01254
2493.83970,0.01234
2491.91098,0.01216
2489.98225,0.01204
2488.05353,0.01191
2486.12480,0.01172
2484.19608,0.01150
2482.26736,0.01129
2480.33863,0.01107
2478.40991,0.01081
2476.48119,0.01052
2474.55246,0.01031
2472.62374,0.01016
2470.69502,0.01002
2468.76629,0.00992
2466.83757,0.00981
2464.90884,0.00970
2462.98012,0.00952
2461.05140,0.00928
2459.12267,0.00903
2457.19395,0.00883
2455.26523,0.00863
2453.33650,0.00843
2451.40778,0.00820
2449.47905,0.00797
2447.55033,0.00776
2445.62161,0.00759
2443.69288,0.00745
2441.76416,0.00737
2439.83544,0.00725
2437.90671,0.00705
2435.97799,0.00682
2434.04927,0.00665
2432.12054,0.00653
2430.19182,0.00641
2428.26309,0.00632
2426.33437,0.00621
2424.40565,0.00608
2422.47692,0.00588
2420.54820,0.00562
2418.61948,0.00540
2416.69075,0.00529
2414.76203,0.00522
2412.83331,0.00515
2410.90458,0.00507
2408.97586,0.00492
2407.04713,0.00470
2405.11841,0.00451
2403.18969,0.00441
2401.26096,0.00435
2399.33224,0.00422
2397.40352,0.00402
2395.47479,0.00385
2393.54607,0.00373
2391.61734,0.00361
2389.68862,0.00346
2387.75990,0.00336
2385.83117,0.00335
2383.90245,0.00337
2381.97373,0.00337
2380.04500,0.00336
2378.11628,0.00340
2376.18756,0.00351
2374.25883,0.00361
2372.33011,0.00364
2370.40138,0.00365
2368.47266,0.00367
2366.54394,0.00359
2364.61521,0.00338
2362.68649,0.00325
2360.75777,0.00332
2358.82904,0.00346
2356.90032,0.00349
2354.97160,0.00327
2353.04287,0.00290
2351.11415,0.00261
2349.18542,0.00254
2347.25670,0.00261
2345.32798,0.00268
2343.39925,0.00271
2341.47053,0.00272
2339.54181,0.00267
2337.61308,0.00252
2335.68436,0.00234
2333.75563,0.00225
2331.82691,0.00219
2329.89819,0.00206
2327.96946,0.00188
2326.04074,0.00177
2324.11202,0.00176
2322.18329,0.00177
2320.25457,0.00168
2318.32585,0.00148
2316.39712,0.00134
2314.46840,0.00130
2312.53967,0.00129
2310.61095,0.00124
2308.68223,0.00109
2306.75350,0.00089
2304.82478,0.00073
2302.89606,0.00067
2300.96733,0.00066
2299.03861,0.00063
2297.10989,0.00058
2295.18116,0.00055
2293.25244,0.00050
2291.32371,0.00047
2289.39499,0.00049
2287.46627,0.00054
2285.53754,0.00053
2283.60882,0.00048
2281.68010,0.00043
2279.75137,0.00040
2277.82265,0.00036
2275.89392,0.00029
2273.96520,0.00028
2272.03648,0.00036
2270.10775,0.00043
2268.17903,0.00036
2266.25031,0.00025
2264.32158,0.00019
2262.39286,0.00016
2260.46414,0.00010
2258.53541,0.00002
2256.60669,0.00001
2254.67796,0.00005
2252.74924,0.00008
2250.82052,0.00010
2248.89179,0.00013
2246.96307,0.00011
2245.03435,-0.00000
2243.10562,-0.00006
2241.17690,-0.00004
2239.24818,-0.00003
2237.31945,-0.00001
2235.39073,0.00002
2233.46200,0.00004
2231.53328,0.00003
2229.60456,-0.00001
2227.67583,-0.00005
2225.74711,-0.00005
2223.81839,-0.00003
2221.88966,-0.00001
2219.96094,-0.00000
2218.03221,-0.00002
2216.10349,-0.00004
2214.17477,-0.00006
2212.24604,-0.00004
2210.31732,-0.00000
2208.38860,0.00005
2206.45987,0.00010
2204.53115,0.00007
2202.60243,0.00000
2200.67370,-0.00002
2198.74498,-0.00003
2196.81625,-0.00006
2194.88753,-0.00006
2192.95881,0.00000
2191.03008,0.00006
2189.10136,0.00005
2187.17264,-0.00002
2185.24391,-0.00009
2183.31519,-0.00012
2181.38647,-0.00012
2179.45774,-0.00010
2177.52902,-0.00004
2175.60029,0.00002
2173.67157,0.00004
2171.74285,-0.00001
2169.81412,-0.00006
2167.88540,-0.00006
2165.95668,-0.00000
2164.02795,0.00009
2162.09923,0.00013
2160.17050,0.00014
2158.24178,0.00019
2156.31306,0.00027
2154.38433,0.00030
2152.45561,0.00028
2150.52689,0.00026
2148.59816,0.00028
2146.66944,0.00028
2144.74072,0.00024
2142.81199,0.00024
2140.88327,0.00033
2138.95454,0.00043
2137.02582,0.00043
2135.09710,0.00034
2133.16837,0.00024
2131.23965,0.00016
2129.31093,0.00014
2127.38220,0.00017
2125.45348,0.00021
2123.52476,0.00021
2121.59603,0.00021
2119.66731,0.00020
2117.73858,0.00023
2115.80986,0.00025
2113.88114,0.00023
2111.95241,0.00015
2110.02369,0.00006
2108.09497,0.00003
2106.16624,0.00005
2104.23752,0.00008
2102.30880,0.00009
2100.38007,0.00009
2098.45135,0.00010
2096.52262,0.00006
2094.59390,0.00000
2092.66518,-0.00006
2090.73645,-0.00009
2088.80773,-0.00013
2086.87901,-0.00013
2084.95028,-0.00010
2083.02156,-0.00010
2081.09283,-0.00015
2079.16411,-0.00023
2077.23539,-0.00027
2075.30666,-0.00025
2073.37794,-0.00021
2071.44922,-0.00018
2069.52049,-0.00018
2067.59177,-0.00013
2065.66305,-0.00002
2063.73432,-0.00003
2061.80560,-0.00009
2059.87687,-0.00002
2057.94815,0.00012
2056.01943,0.00026
2054.09070,0.00040
2052.16198,0.00052
2050.23326,0.00065
2048.30453,0.00077
2046.37581,0.00083
2044.44709,0.00090
2042.51836,0.00108
2040.58964,0.00123
2038.66091,0.00131
2036.73219,0.00151
2034.80347,0.00181
2032.87474,0.00207
2030.94602,0.00223
2029.01730,0.00234
2027.08857,0.00253
2025.15985,0.00280
2023.23112,0.00300
2021.30240,0.00308
2019.37368,0.00326
2017.44495,0.00354
2015.51623,0.00360
2013.58751,0.00356
2011.65878,0.00362
2009.73006,0.00370
2007.80134,0.00381
2005.87261,0.00388
2003.94389,0.00388
2002.01516,0.00394
2000.08644,0.00409
1998.15772,0.00419
1996.22899,0.00409
1994.30027,0.00406
1992.37155,0.00416
1990.44282,0.00401
1988.51410,0.00386
1986.58538,0.00379
1984.65665,0.00369
1982.72793,0.00368
1980.79920,0.00369
1978.87048,0.00366
1976.94176,0.00360
1975.01303,0.00353
1973.08431,0.00338
1971.15559,0.00311
1969.22686,0.00297
1967.29814,0.00291
1965.36941,0.00254
1963.44069,0.00223
1961.51197,0.00216
1959.58324,0.00198
1957.65452,0.00173
1955.72580,0.00159
1953.79707,0.00149
1951.86835,0.00132
1949.93963,0.00111
1948.01090,0.00094
1946.08218,0.00081
1944.15345,0.00096
1942.22473,0.00099
1940.29601,0.00053
1938.36728,0.00029
1936.43856,0.00031
1934.50984,0.00022
1932.58111,0.00012
1930.65239,0.00010
1928.72367,0.00008
1926.79494,0.00000
1924.86622,0.00018
1922.93749,0.00035
1921.00877,0.00023
1919.08005,0.00062
1917.15132,0.00096
1915.22260,0.00084
1913.29388,0.00105
1911.36515,0.00156
1909.43643,0.00202
1907.50770,0.00234
1905.57898,0.00275
1903.65026,0.00331
1901.72153,0.00378
1899.79281,0.00417
1897.86409,0.00468
1895.93536,0.00528
1894.00664,0.00558
1892.07792,0.00595
1890.14919,0.00670
1888.22047,0.00700
1886.29174,0.00700
1884.36302,0.00730
1882.43430,0.00762
1880.50557,0.00786
1878.57685,0.00804
1876.64813,0.00808
1874.71940,0.00796
1872.79068,0.00786
1870.86196,0.00824
1868.93323,0.00854
1867.00451,0.00792
1865.07578,0.00713
1863.14706,0.00687
1861.21834,0.00672
1859.28961,0.00637
1857.36089,0.00589
1855.43217,0.00540
1853.50344,0.00490
1851.57472,0.00441
1849.64599,0.00394
1847.71727,0.00352
1845.78855,0.00347
1843.85982,0.00321
1841.93110,0.00211
1840.00238,0.00143
1838.07365,0.00145
1836.14493,0.00121
1834.21621,0.00075
1832.28748,0.00080
1830.35876,0.00102
1828.43003,0.00041
1826.50131,0.00000
1824.57259,0.00012
1822.64386,-0.00011
1820.71514,-0.00022
1818.78642,0.00001
1816.85769,0.00010
1814.92897,0.00000
1813.00025,0.00004
1811.07152,0.00025
1809.14280,0.00005
1807.21407,-0.00031
1805.28535,-0.00041
1803.35663,-0.00004
1801.42790,0.00064
1799.49918,0.00094
1797.57046,0.00083
1795.64173,0.00109
1793.71301,0.00214
1791.78428,0.00291
1789.85556,0.00266
1787.92684,0.00286
1785.99811,0.00392
1784.06939,0.00481
1782.14067,0.00565
1780.21194,0.00653
1778.28322,0.00696
1776.35450,0.00749
1774.42577,0.00888
1772.49705,0.01049
1770.56832,0.01097
1768.63960,0.01125
1766.71088,0.01177
1764.78215,0.01266
1762.85343,0.01425
1760.92471,0.01524
1758.99598,0.01578
1757.06726,0.01672
1755.13854,0.01729
1753.20981,0.01828
1751.28109,0.02020
1749.35236,0.02162
1747.42364,0.02243
1745.49492,0.02354
1743.56619,0.02525
1741.63747,0.02732
1739.70875,0.02902
1737.78002,0.03002
1735.85130,0.03263
1733.92257,0.03606
1731.99385,0.03736
1730.06513,0.03839
1728.13640,0.03996
1726.20768,0.04173
1724.27896,0.04357
1722.35023,0.04487
1720.42151,0.04668
1718.49279,0.04984
1716.56406,0.05229
1714.63534,0.05352
1712.70661,0.05480
1710.77789,0.05664
1708.84917,0.05910
1706.92044,0.06198
1704.99172,0.06412
1703.06300,0.06618
1701.13427,0.07006
1699.20555,0.07351
1697.27683,0.07671
1695.34810,0.08056
1693.41938,0.08320
1691.49065,0.08613
1689.56193,0.08944
1687.63321,0.09255
1685.70448,0.09759
1683.77576,0.10312
1681.84704,0.10566
1679.91831,0.10764
1677.98959,0.11083
1676.06087,0.11500
1674.13214,0.11831
1672.20342,0.12129
1670.27469,0.12554
1668.34597,0.12861
1666.41725,0.13021
1664.48852,0.13307
1662.55980,0.13653
1660.63108,0.13836
1658.70235,0.13919
1656.77363,0.14090
1654.84490,0.14491
1652.91618,0.14774
1650.98746,0.14597
1649.05873,0.14636
1647.13001,0.14964
1645.20129,0.15086
1643.27256,0.15052
1641.34384,0.15076
1639.41512,0.15157
1637.48639,0.15317
1635.55767,0.15400
1633.62894,0.15233
1631.70022,0.15096
1629.77150,0.15096
1627.84277,0.15048
1625.91405,0.14921
1623.98533,0.14791
1622.05660,0.14540
1620.12788,0.14269
1618.19916,0.14151
1616.27043,0.13932
1614.34171,0.13527
1612.41298,0.13219
1610.48426,0.13012
1608.55554,0.12760
1606.62681,0.12456
1604.69809,0.12163
1602.76937,0.11887
1600.84064,0.11603
1598.91192,0.11334
1596.98319,0.11102
1595.05447,0.10877
1593.12575,0.10639
1591.19702,0.10412
1589.26830,0.10200
1587.33958,0.09992
1585.41085,0.09786
1583.48213,0.09572
1581.55341,0.09345
1579.62468,0.09170
1577.69596,0.09111
1575.76723,0.08956
1573.83851,0.08640
1571.90979,0.08516
1569.98106,0.08551
1568.05234,0.08435
1566.12362,0.08267
1564.19489,0.08130
1562.26617,0.08091
1560.33745,0.08280
1558.40872,0.08273
1556.48000,0.07891
1554.55127,0.07693
1552.62255,0.07650
1550.69383,0.07610
1548.76510,0.07495
1546.83638,0.07362
1544.90766,0.07289
1542.97893,0.07228
1541.05021,0.07162
1539.12148,0.06883
1537.19276,0.06501
1535.26404,0.06418
1533.33531,0.06407
1531.40659,0.06166
1529.47787,0.05939
1527.54914,0.05806
1525.62042,0.05613
1523.69170,0.05437
1521.76297,0.05290
1519.83425,0.05017
1517.90552,0.04796
1515.97680,0.04615
1514.04808,0.04361
1512.11935,0.04131
1510.19063,0.03993
1508.26191,0.03937
1506.33318,0.03634
1504.40446,0.03078
1502.47574,0.02759
1500.54701,0.02690
1498.61829,0.02625
1496.68956,0.02427
1494.76084,0.02121
1492.83212,0.01948
1490.90339,0.01963
1488.97467,0.01935
1487.04595,0.01810
1485.11722,0.01728
1483.18850,0.01754
1481.25977,0.01822
1479.33105,0.01874
1477.40233,0.01975
1475.47360,0.02188
1473.54488,0.02521
1471.61616,0.02792
1469.68743,0.02914
1467.75871,0.03104
1465.82999,0.03365
1463.90126,0.03462
1461.97254,0.03423
1460.04381,0.03542
1458.11509,0.03817
1456.18637,0.03898
1454.25764,0.03793
1452.32892,0.03780
1450.40020,0.03865
1448.47147,0.03951
1446.54275,0.03967
1444.61403,0.03954
1442.68530,0.03965
1440.75658,0.03984
1438.82785,0.04086
1436.89913,0.04224
1434.97041,0.04203
1433.04168,0.04174
1431.11296,0.04267
1429.18424,0.04354
1427.25551,0.04397
1425.32679,0.04475
1423.39806,0.04538
1421.46934,0.04628
1419.54062,0.04810
1417.61189,0.04916
1415.68317,0.04952
1413.75445,0.05062
1411.82572,0.05212
1409.89700,0.05330
1407.96828,0.05444
1406.03955,0.05595
1404.11083,0.05693
1402.18210,0.05701
1400.25338,0.05685
1398.32466,0.05584
1396.39593,0.05391
1394.46721,0.05141
1392.53849,0.04835
1390.60976,0.04597
1388.68104,0.04454
1386.75232,0.04274
1384.82359,0.04057
1382.89487,0.03916
1380.96614,0.03823
1379.03742,0.03714
1377.10870,0.03601
1375.17997,0.03511
1373.25125,0.03380
1371.32253,0.03213
1369.39380,0.03081
1367.46508,0.02944
1365.53635,0.02815
1363.60763,0.02720
1361.67891,0.02587
1359.75018,0.02435
1357.82146,0.02340
1355.89274,0.02272
1353.96401,0.02190
1352.03529,0.02113
1350.10657,0.02064
1348.17784,0.02022
1346.24912,0.01967
1344.32039,0.01907
1342.39167,0.01872
1340.46295,0.01867
1338.53422,0.01831
1336.60550,0.01761
1334.67678,0.01715
1332.74805,0.01704
1330.81933,0.01704
1328.89061,0.01704
1326.96188,0.01707
1325.03316,0.01707
1323.10443,0.01708
1321.17571,0.01722
1319.24699,0.01737
1317.31826,0.01733
1315.38954,0.01732
1313.46082,0.01753
1311.53209,0.01776
1309.60337,0.01803
1307.67464,0.01835
1305.74592,0.01867
1303.81720,0.01918
1301.88847,0.01995
1299.95975,0.02097
1298.03103,0.02222
1296.10230,0.02359
1294.17358,0.02497
1292.24486,0.02649
1290.31613,0.02831
1288.38741,0.03040
1286.45868,0.03254
1284.52996,0.03483
1282.60124,0.03745
1280.67251,0.04039
1278.74379,0.04359
1276.81507,0.04704
1274.88634,0.05083
1272.95762,0.05516
1271.02890,0.06014
1269.10017,0.06563
1267.17145,0.07167
1265.24272,0.07844
1263.31400,0.08595
1261.38528,0.09424
1259.45655,0.10344
1257.52783,0.11349
1255.59911,0.12418
1253.67038,0.13522
1251.74166,0.14635
1249.81294,0.15723
1247.88421,0.16768
1245.95549,0.17759
1244.02676,0.18677
1242.09804,0.19515
1240.16932,0.20275
1238.24059,0.20963
1236.31187,0.21591
1234.38315,0.22161
1232.45442,0.22665
1230.52570,0.23115
1228.59697,0.23533
1226.66825,0.23913
1224.73953,0.24246
1222.81080,0.24552
1220.88208,0.24859
1218.95336,0.25156
1217.02463,0.25434
1215.09591,0.25696
1213.16719,0.25933
1211.23846,0.26150
1209.30974,0.26365
1207.38101,0.26586
1205.45229,0.26804
1203.52357,0.27019
1201.59484,0.27242
1199.66612,0.27452
1197.73740,0.27637
1195.80867,0.27817
1193.87995,0.27994
1191.95123,0.28165
1190.02250,0.28340
1188.09378,0.28541
1186.16505,0.28763
1184.23633,0.28981
1182.30761,0.29174
1180.37888,0.29357
1178.45016,0.29559
1176.52144,0.29765
1174.59271,0.29962
1172.66399,0.30156
1170.73526,0.30353
1168.80654,0.30539
1166.87782,0.30713
1164.94909,0.30899
1163.02037,0.31098
1161.09165,0.31278
1159.16292,0.31438
1157.23420,0.31611
1155.30548,0.31793
1153.37675,0.31967
1151.44803,0.32146
1149.51930,0.32336
1147.59058,0.32543
1145.66186,0.32765
1143.73313,0.32995
1141.80441,0.33215
1139.87569,0.33411
1137.94696,0.33601
1136.01824,0.33828
1134.08952,0.34091
1132.16079,0.34372
1130.23207,0.34661
1128.30334,0.34958
1126.37462,0.35305
1124.44590,0.35709
1122.51717,0.36119
1120.58845,0.36562
1118.65973,0.37058
1116.73100,0.37589
1114.80228,0.38172
1112.87355,0.38791
1110.94483,0.39388
1109.01611,0.39984
1107.08738,0.40635
1105.15866,0.41302
1103.22994,0.41879
1101.30121,0.42290
1099.37249,0.42581
1097.44377,0.42856
1095.51504,0.43124
1093.58632,0.43297
1091.65759,0.43348
1089.72887,0.43374
1087.80015,0.43379
1085.87142,0.43291
1083.94270,0.43146
1082.01398,0.42999
1080.08525,0.42830
1078.15653,0.42579
1076.22781,0.42241
1074.29908,0.41889
1072.37036,0.41558
1070.44163,0.41196
1068.51291,0.40758
1066.58419,0.40291
1064.65546,0.39846
1062.72674,0.39402
1060.79802,0.38895
1058.86929,0.38340
1056.94057,0.37778
1055.01184,0.37185
1053.08312,0.36550
1051.15440,0.35884
1049.22567,0.35196
1047.29695,0.34499
1045.36823,0.33793
1043.43950,0.33068
1041.51078,0.32325
1039.58206,0.31582
1037.65333,0.30838
1035.72461,0.30118
1033.79588,0.29442
1031.86716,0.28768
1029.93844,0.28067
1028.00971,0.27379
1026.08099,0.26712
1024.15227,0.26038
1022.22354,0.25395
1020.29482,0.24821
1018.36610,0.24259
1016.43737,0.23671
1014.50865,0.23106
1012.57992,0.22587
1010.65120,0.22102
1008.72248,0.21647
1006.79375,0.21208
1004.86503,0.20784
1002.93631,0.20377
1001.00758,0.19971
999.07886,0.19584
997.15013,0.19235
995.22141,0.18894
993.29269,0.18532
991.36396,0.18163
989.43524,0.17816
987.50652,0.17492
985.57779,0.17203
983.64907,0.16970
981.72035,0.16784
979.79162,0.16616
977.86290,0.16454
975.93417,0.16311
974.00545,0.16213
972.07673,0.16149
970.14800,0.16081
968.21928,0.16009
966.29056,0.15952
964.36183,0.15898
962.43311,0.15839
960.50439,0.15793
958.57566,0.15743
956.64694,0.15666
954.71821,0.15580
952.78949,0.15471
950.86077,0.15337
948.93204,0.15221
947.00332,0.15108
945.07460,0.14946
943.14587,0.14752
941.21715,0.14566
939.28842,0.14362
937.35970,0.14120
935.43098,0.13872
933.50225,0.13624
931.57353,0.13376
929.64481,0.13131
927.71608,0.12865
925.78736,0.12547
923.85864,0.12188
921.92991,0.11843
920.00119,0.11534
918.07246,0.11208
916.14374,0.10838
914.21502,0.10474
912.28629,0.10142
910.35757,0.09801
908.42885,0.09445
906.50012,0.09103
904.57140,0.08750
902.64268,0.08358
900.71395,0.07953
898.78523,0.07570
896.85650,0.07226
894.92778,0.06920
892.99906,0.06624
891.07033,0.06318
889.14161,0.06007
887.21289,0.05698
885.28416,0.05400
883.35544,0.05131
881.42671,0.04896
879.49799,0.04664
877.56927,0.04420
875.64054,0.04185
873.71182,0.03964
871.78310,0.03763
869.85437,0.03603
867.92565,0.03449
865.99693,0.03263
864.06820,0.03089
862.13948,0.02963
860.21075,0.02851
858.28203,0.02712
856.35331,0.02572
854.42458,0.02485
852.49586,0.02443
850.56714,0.02413
848.63841,0.02404
846.70969,0.02444
844.78097,0.02539
842.85224,0.02689
840.92352,0.02897
838.99479,0.03152
837.06607,0.03435
835.13735,0.03736
833.20862,0.04039
831.27990,0.04360
829.35118,0.04735
827.42245,0.05117
825.49373,0.05443
823.56501,0.05728
821.63628,0.06024
819.70756,0.06355
817.77883,0.06701
815.85011,0.07017
813.92139,0.07269
811.99266,0.07510
810.06394,0.07790
808.13522,0.08069
806.20649,0.08300
804.27777,0.08479
802.34904,0.08638
800.42032,0.08767
798.49160,0.08813
796.56287,0.08776
794.63415,0.08700
792.70543,0.08589
790.77670,0.08442
788.84798,0.08262
786.91926,0.08047
784.99053,0.07790
783.06181,0.07468
781.13308,0.07095
779.20436,0.06718
777.27564,0.06335
775.34691,0.05938
773.41819,0.05561
771.48947,0.05234
769.56074,0.04972
767.63202,0.04780
765.70330,0.04646
763.77457,0.04563
761.84585,0.04514
759.91712,0.04451
757.98840,0.04370
756.05968,0.04310
754.13095,0.04279
752.20223,0.04275
750.27351,0.04293
748.34478,0.04289
746.41606,0.04228
744.48733,0.04158
742.55861,0.04127
740.62989,0.04103
738.70116,0.04078
736.77244,0.04093
734.84372,0.04149
732.91499,0.04206
730.98627,0.04253
729.05755,0.04284
727.12882,0.04299
725.20010,0.04314
723.27137,0.04332
721.34265,0.04356
719.41393,0.04406
717.48520,0.04476
715.55648,0.04530
713.62776,0.04559
711.69903,0.04584
709.77031,0.04630
707.84159,0.04686
705.91286,0.04744
703.98414,0.04837
702.05541,0.04954
700.12669,0.05037
698.19797,0.05096
696.26924,0.05167
694.34052,0.05224
692.41180,0.05229
690.48307,0.05211
688.55435,0.05234
686.62562,0.05284
684.69690,0.05286
682.76818,0.05237
680.83945,0.05218
678.91073,0.05264
676.98201,0.05351
675.05328,0.05443
673.12456,0.05481
671.19584,0.05438
669.26711,0.05416
667.33839,0.05534
665.40966,0.05718
663.48094,0.05831
661.55222,0.05856
659.62349,0.05842
657.69477,0.05843
655.76605,0.05890
653.83732,0.05997
651.90860,0.06156
649.97988,0.06312
648.05115,0.06423
646.12243,0.06519
644.19370,0.06657
642.26498,0.06834
640.33626,0.07005
638.40753,0.07138
636.47881,0.07217
634.55009,0.07247
632.62136,0.07284
630.69264,0.07377
628.76391,0.07526
626.83519,0.07687
624.90647,0.07755
622.97774,0.07744
621.04902,0.07776
619.12030,0.07890
617.19157,0.08073
615.26285,0.08284
613.33413,0.08454
611.40540,0.08576
609.47668,0.08698
607.54795,0.08813
605.61923,0.08909
603.69051,0.09033
601.76178,0.09205
599.83306,0.09382
597.90434,0.09508
595.97561,0.09571
594.04689,0.09661
592.11817,0.09850
590.18944,0.10038
588.26072,0.10148
586.33199,0.10207
584.40327,0.10216
582.47455,0.10226
580.54582,0.10351
578.61710,0.10573
576.68838,0.10727
574.75965,0.10753
572.83093,0.10777
570.90220,0.10832
568.97348,0.10856
567.04476,0.10842
565.11603,0.10819
563.18731,0.10835
561.25859,0.10901
559.32986,0.10979
557.40114,0.11045
555.47242,0.11089
553.54369,0.11140
551.61497,0.11253
549.68624,0.11385
547.75752,0.11458
545.82880,0.11489
543.90007,0.11504
541.97135,0.11454
540.04263,0.11336
538.11390,0.11283
536.18518,0.11326
534.25646,0.11343
532.32773,0.11295
530.39901,0.11226
528.47028,0.11158
526.54156,0.11125
524.61284,0.11124
522.68411,0.11110
520.75539,0.11126
518.82667,0.11232
516.89794,0.11377
514.96922,0.11563
513.04049,0.11887
511.11177,0.12299
509.18305,0.12659
507.25432,0.12911
505.32560,0.13165
503.39688,0.13686
501.46815,0.14472
499.53943,0.15241
497.61071,0.15893
495.68198,0.16524
493.75326,0.17237
491.82453,0.18016
489.89581,0.18786
487.96709,0.19542
486.03836,0.20225
484.10964,0.20800
482.18092,0.21458
480.25219,0.22313
478.32347,0.23162
476.39475,0.23869
474.46602,0.24575
472.53730,0.25232
470.60857,0.25567
468.67985,0.25607
466.75113,0.25580
464.82240,0.25614
462.89368,0.25723
460.96496,0.25787
459.03623,0.25603
457.10751,0.25086
455.17878,0.24405
453.25006,0.23785
451.32134,0.23323
449.39261,0.22966
447.46389,0.22521
445.53517,0.21872
443.60644,0.21066
441.67772,0.20191
439.74900,0.19397
437.82027,0.18744
435.89155,0.18130
433.96282,0.17558
432.03410,0.16961
430.10538,0.16140
428.17665,0.15348
426.24793,0.14941
424.31921,0.14628
422.39048,0.13938
420.46176,0.12954
418.53304,0.12068
416.60431,0.11665
414.67559,0.11639
412.74686,0.11341
410.81814,0.10466
408.88942,0.09527
406.96069,0.08979
405.03197,0.08447
403.10325,0.07856
401.17452,0.08004
399.24580,0.08862
397.31708,0.08854
395.38835,0.07528
393.45963,0.06370
391.53090,0.05544
389.60218,0.04761
387.67346,0.04631
385.74473,0.04520
383.81601,0.02858
381.88729,0.00632
379.95856,0.00000
378.02984,0.00919
376.10111,0.04739
374.17239,0.08640
372.24367,0.08343
370.31494,0.04478
368.38622,0.00000
