3996.31543,0.00017
3994.38671,0.00011
3992.45799,0.00000
3990.52926,0.00001
3988.60054,0.00012
3986.67182,0.00016
3984.74309,0.00013
3982.81437,0.00015
3980.88564,0.00024
3978.95692,0.00034
3977.02820,0.00047
3975.09947,0.00055
3973.17075,0.00051
3971.24203,0.00042
3969.31330,0.00033
3967.38458,0.00027
3965.45586,0.00031
3963.52713,0.00044
3961.59841,0.00055
3959.66968,0.00061
3957.74096,0.00063
3955.81224,0.00062
3953.88351,0.00066
3951.95479,0.00076
3950.02607,0.00078
3948.09734,0.00071
3946.16862,0.00068
3944.23990,0.00073
3942.31117,0.00076
3940.38245,0.00070
3938.45372,0.00056
3936.52500,0.00040
3934.59628,0.00030
3932.66755,0.00032
3930.73883,0.00041
3928.81011,0.00047
3926.88138,0.00055
3924.95266,0.00073
3923.02393,0.00090
3921.09521,0.00091
3919.16649,0.00078
3917.23776,0.00060
3915.30904,0.00047
3913.38032,0.00041
3911.45159,0.00044
3909.52287,0.00057
3907.59415,0.00079
3905.66542,0.00094
3903.73670,0.00086
3901.80797,0.00065
3899.87925,0.00053
3897.95053,0.00048
3896.02180,0.00044
3894.09308,0.00045
3892.16436,0.00047
3890.23563,0.00044
3888.30691,0.00045
3886.37819,0.00053
3884.44946,0.00056
3882.52074,0.00046
3880.59201,0.00034
3878.66329,0.00028
3876.73457,0.00034
3874.80584,0.00046
3872.87712,0.00054
3870.94840,0.00057
3869.01967,0.00050
3867.09095,0.00036
3865.16222,0.00034
3863.23350,0.00038
3861.30478,0.00033
3859.37605,0.00025
3857.44733,0.00038
3855.51861,0.00071
3853.58988,0.00088
3851.66116,0.00061
3849.73244,0.00021
3847.80371,0.00000
3845.87499,0.00001
3843.94626,0.00024
3842.01754,0.00055
3840.08882,0.00072
3838.16009,0.00058
3836.23137,0.00032
3834.30265,0.00023
3832.37392,0.00021
3830.44520,0.00016
3828.51648,0.00025
3826.58775,0.00046
3824.65903,0.00064
3822.73030,0.00086
3820.80158,0.00116
3818.87286,0.00138
3816.94413,0.00139
3815.01541,0.00114
3813.08669,0.00082
3811.15796,0.00071
3809.22924,0.00086
3807.30052,0.00116
3805.37179,0.00152
3803.44307,0.00187
3801.51434,0.00211
3799.58562,0.00214
3797.65690,0.00208
3795.72817,0.00209
3793.79945,0.00214
3791.87073,0.00221
3789.94200,0.00235
3788.01328,0.00264
3786.08455,0.00307
3784.15583,0.00342
3782.22711,0.00357
3780.29838,0.00370
3778.36966,0.00390
3776.44094,0.00415
3774.51221,0.00443
3772.58349,0.00476
3770.65477,0.00511
3768.72604,0.00546
3766.79732,0.00586
3764.86859,0.00626
3762.93987,0.00663
3761.01115,0.00708
3759.08242,0.00766
3757.15370,0.00821
3755.22498,0.00861
3753.29625,0.00906
3751.36753,0.00976
3749.43881,0.01068
3747.51008,0.01158
3745.58136,0.01256
3743.65263,0.01365
3741.72391,0.01454
3739.79519,0.01524
3737.86646,0.01615
3735.93774,0.01760
3734.00902,0.01947
3732.08029,0.02122
3730.15157,0.02260
3728.22284,0.02392
3726.29412,0.02562
3724.36540,0.02767
3722.43667,0.02986
3720.50795,0.03210
3718.57923,0.03440
3716.65050,0.03674
3714.72178,0.03927
3712.79306,0.04237
3710.86433,0.04608
3708.93561,0.04969
3707.00688,0.05282
3705.07816,0.05580
3703.14944,0.05917
3701.22071,0.06307
3699.29199,0.06694
3697.36327,0.07044
3695.43454,0.07369
3693.50582,0.07680
3691.57710,0.08024
3689.64837,0.08451
3687.71965,0.08909
3685.79092,0.09315
3683.86220,0.09691
3681.93348,0.10088
3680.00475,0.10501
3678.07603,0.10929
3676.14731,0.11422
3674.21858,0.11919
3672.28986,0.12328
3670.36113,0.12757
3668.43241,0.13246
3666.50369,0.13675
3664.57496,0.14041
3662.64624,0.14402
3660.71752,0.14764
3658.78879,0.15118
3656.86007,0.15483
3654.93135,0.15835
3653.00262,0.16141
3651.07390,0.16472
3649.14517,0.16893
3647.21645,0.17305
3645.28773,0.17614
3643.35900,0.17860
3641.43028,0.18103
3639.50156,0.18358
3637.57283,0.18618
3635.64411,0.18878
3633.71539,0.19122
3631.78666,0.19352
3629.85794,0.19628
3627.92921,0.19958
3626.00049,0.20213
3624.07177,0.20366
3622.14304,0.20496
3620.21432,0.20675
3618.28560,0.20909
3616.35687,0.21127
3614.42815,0.21300
3612.49942,0.21449
3610.57070,0.21601
3608.64198,0.21779
3606.71325,0.21967
3604.78453,0.22125
3602.85581,0.22258
3600.92708,0.22402
3598.99836,0.22552
3597.06964,0.22693
3595.14091,0.22834
3593.21219,0.22975
3591.28346,0.23107
3589.35474,0.23251
3587.42602,0.23431
3585.49729,0.23607
3583.56857,0.23742
3581.63985,0.23865
3579.71112,0.24003
3577.78240,0.24143
3575.85368,0.24267
3573.92495,0.24380
3571.99623,0.24487
3570.06750,0.24587
3568.13878,0.24703
3566.21006,0.24850
3564.28133,0.24996
3562.35261,0.25130
3560.42389,0.25265
3558.49516,0.25395
3556.56644,0.25507
3554.63771,0.25604
3552.70899,0.25707
3550.78027,0.25824
3548.85154,0.25950
3546.92282,0.26086
3544.99410,0.26225
3543.06537,0.26350
3541.13665,0.26457
3539.20793,0.26549
3537.27920,0.26638
3535.35048,0.26732
3533.42175,0.26830
3531.49303,0.26928
3529.56431,0.27019
3527.63558,0.27095
3525.70686,0.27179
3523.77814,0.27281
3521.84941,0.27382
3519.92069,0.27477
3517.99197,0.27580
3516.06324,0.27682
3514.13452,0.27765
3512.20579,0.27830
3510.27707,0.27896
3508.34835,0.27969
3506.41962,0.28044
3504.49090,0.28134
3502.56218,0.28243
3500.63345,0.28334
3498.70473,0.28392
3496.77600,0.28453
3494.84728,0.28544
3492.91856,0.28639
3490.98983,0.28714
3489.06111,0.28775
3487.13239,0.28828
3485.20366,0.28871
3483.27494,0.28922
3481.34622,0.28997
3479.41749,0.29074
3477.48877,0.29140
3475.56004,0.29210
3473.63132,0.29286
3471.70260,0.29353
3469.77387,0.29403
3467.84515,0.29450
3465.91643,0.29505
3463.98770,0.29561
3462.05898,0.29621
3460.13026,0.29683
3458.20153,0.29730
3456.27281,0.29772
3454.34408,0.29828
3452.41536,0.29880
3450.48664,0.29910
3448.55791,0.29934
3446.62919,0.29969
3444.70047,0.30013
3442.77174,0.30060
3440.84302,0.30101
3438.91429,0.30131
3436.98557,0.30154
3435.05685,0.30169
3433.12812,0.30185
3431.19940,0.30218
3429.27068,0.30257
3427.34195,0.30284
3425.41323,0.30309
3423.48451,0.30341
3421.55578,0.30362
3419.62706,0.30365
3417.69833,0.30370
3415.76961,0.30397
3413.84089,0.30433
3411.91216,0.30450
3409.98344,0.30448
3408.05472,0.30444
3406.12599,0.30453
3404.19727,0.30466
3402.26855,0.30471
3400.33982,0.30472
3398.41110,0.30475
3396.48237,0.30474
3394.55365,0.30469
3392.62493,0.30470
3390.69620,0.30475
3388.76748,0.30473
3386.83876,0.30466
3384.91003,0.30452
3382.98131,0.30430
3381.05259,0.30410
3379.12386,0.30386
3377.19514,0.30357
3375.26641,0.30334
3373.33769,0.30319
3371.40897,0.30309
3369.48024,0.30315
3367.55152,0.30317
3365.62280,0.30289
3363.69407,0.30256
3361.76535,0.30241
3359.83662,0.30222
3357.90790,0.30189
3355.97918,0.30158
3354.05045,0.30129
3352.12173,0.30095
3350.19301,0.30071
3348.26428,0.30061
3346.33556,0.30033
3344.40684,0.29979
3342.47811,0.29929
3340.54939,0.29915
3338.62066,0.29927
3336.69194,0.29919
3334.76322,0.29875
3332.83449,0.29819
3330.90577,0.29767
3328.97705,0.29729
3327.04832,0.29701
3325.11960,0.29666
3323.19088,0.29624
3321.26215,0.29583
3319.33343,0.29550
3317.40470,0.29534
3315.47598,0.29522
3313.54726,0.29494
3311.61853,0.29461
3309.68981,0.29431
3307.76109,0.29393
3305.83236,0.29352
3303.90364,0.29322
3301.97491,0.29300
3300.04619,0.29269
3298.11747,0.29225
3296.18874,0.29183
3294.26002,0.29162
3292.33130,0.29152
3290.40257,0.29129
3288.47385,0.29089
3286.54513,0.29044
3284.61640,0.29008
3282.68768,0.28982
3280.75895,0.28958
3278.83023,0.28917
3276.90151,0.28859
3274.97278,0.28799
3273.04406,0.28749
3271.11534,0.28706
3269.18661,0.28655
3267.25789,0.28597
3265.32917,0.28543
3263.40044,0.28489
3261.47172,0.28433
3259.54299,0.28388
3257.61427,0.28357
3255.68555,0.28316
3253.75682,0.28260
3251.82810,0.28212
3249.89938,0.28187
3247.97065,0.28159
3246.04193,0.28105
3244.11320,0.28041
3242.18448,0.27981
3240.25576,0.27917
3238.32703,0.27851
3236.39831,0.27793
3234.46959,0.27752
3232.54086,0.27717
3230.61214,0.27673
3228.68342,0.27608
3226.75469,0.27525
3224.82597,0.27448
3222.89724,0.27394
3220.96852,0.27354
3219.03980,0.27305
3217.11107,0.27228
3215.18235,0.27141
3213.25363,0.27071
3211.32490,0.27012
3209.39618,0.26946
3207.46746,0.26874
3205.53873,0.26796
3203.61001,0.26715
3201.68128,0.26643
3199.75256,0.26584
3197.82384,0.26530
3195.89511,0.26465
3193.96639,0.26384
3192.03767,0.26294
3190.10894,0.26205
3188.18022,0.26114
3186.25149,0.26021
3184.32277,0.25931
3182.39405,0.25845
3180.46532,0.25766
3178.53660,0.25690
3176.60788,0.25603
3174.67915,0.25512
3172.75043,0.25432
3170.82171,0.25359
3168.89298,0.25280
3166.96426,0.25189
3165.03553,0.25092
3163.10681,0.25002
3161.17809,0.24912
3159.24936,0.24811
3157.32064,0.24707
3155.39192,0.24611
3153.46319,0.24525
3151.53447,0.24444
3149.60575,0.24361
3147.67702,0.24273
3145.74830,0.24179
3143.81957,0.24081
3141.89085,0.23986
3139.96213,0.23898
3138.03340,0.23809
3136.10468,0.23710
3134.17596,0.23616
3132.24723,0.23538
3130.31851,0.23471
3128.38978,0.23397
3126.46106,0.23309
3124.53234,0.23213
3122.60361,0.23114
3120.67489,0.23011
3118.74617,0.22912
3116.81744,0.22823
3114.88872,0.22728
3112.96000,0.22619
3111.03127,0.22518
3109.10255,0.22423
3107.17382,0.22306
3105.24510,0.22171
3103.31638,0.22054
3101.38765,0.21958
3099.45893,0.21866
3097.53021,0.21764
3095.60148,0.21653
3093.67276,0.21539
3091.74404,0.21424
3089.81531,0.21310
3087.88659,0.21206
3085.95786,0.21109
3084.02914,0.21006
3082.10042,0.20898
3080.17169,0.20786
3078.24297,0.20670
3076.31425,0.20549
3074.38552,0.20432
3072.45680,0.20321
3070.52807,0.20212
3068.59935,0.20104
3066.67063,0.19991
3064.74190,0.19869
3062.81318,0.19749
3060.88446,0.19633
3058.95573,0.19518
3057.02701,0.19401
3055.09829,0.19287
3053.16956,0.19173
3051.24084,0.19060
3049.31211,0.18942
3047.38339,0.18819
3045.45467,0.18692
3043.52594,0.18562
3041.59722,0.18426
3039.66850,0.18292
3037.73977,0.18170
3035.81105,0.18049
3033.88233,0.17923
3031.95360,0.17792
3030.02488,0.17656
3028.09615,0.17539
3026.16743,0.17458
3024.23871,0.17397
3022.30998,0.17326
3020.38126,0.17178
3018.45254,0.16841
3016.52381,0.16409
3014.59509,0.16264
3012.66636,0.16477
3010.73764,0.16674
3008.80892,0.16665
3006.88019,0.16560
3004.95147,0.16452
3003.02275,0.16343
3001.09402,0.16228
2999.16530,0.16114
2997.23658,0.16012
2995.30785,0.15945
2993.37913,0.15924
2991.45040,0.15927
2989.52168,0.15937
2987.59296,0.15959
2985.66423,0.15991
2983.73551,0.16020
2981.80679,0.16028
2979.87806,0.15922
2977.94934,0.15523
2976.02062,0.15009
2974.09189,0.14981
2972.16317,0.15478
2970.23444,0.15913
2968.30572,0.16058
2966.37700,0.16060
2964.44827,0.16035
2962.51955,0.16019
2960.59083,0.16005
2958.66210,0.15981
2956.73338,0.15960
2954.80466,0.15955
2952.87593,0.15951
2950.94721,0.15941
2949.01848,0.15947
2947.08976,0.15978
2945.16104,0.16032
2943.23231,0.16104
2941.30359,0.16203
2939.37487,0.16319
2937.44614,0.16438
2935.51742,0.16558
2933.58869,0.16685
2931.65997,0.16804
2929.73125,0.16878
2927.80252,0.16897
2925.87380,0.16871
2923.94508,0.16799
2922.01635,0.16669
2920.08763,0.16480
2918.15891,0.16233
2916.23018,0.15938
2914.30146,0.15625
2912.37273,0.15333
2910.44401,0.15072
2908.51529,0.14834
2906.58656,0.14621
2904.65784,0.14438
2902.72912,0.14277
2900.80039,0.14124
2898.87167,0.13974
2896.94295,0.13831
2895.01422,0.13679
2893.08550,0.13523
2891.15677,0.13379
2889.22805,0.13248
2887.29933,0.13130
2885.37060,0.13021
2883.44188,0.12915
2881.51316,0.12822
2879.58443,0.12746
2877.65571,0.12673
2875.72698,0.12602
2873.79826,0.12534
2871.86954,0.12457
2869.94081,0.12377
2868.01209,0.12315
2866.08337,0.12279
2864.15464,0.12270
2862.22592,0.12291
2860.29720,0.12337
2858.36847,0.12400
2856.43975,0.12465
2854.51102,0.12499
2852.58230,0.12449
2850.65358,0.12273
2848.72485,0.11969
2846.79613,0.11596
2844.86741,0.11225
2842.93868,0.10894
2841.00996,0.10615
2839.08124,0.10385
2837.15251,0.10186
2835.22379,0.10008
2833.29506,0.09852
2831.36634,0.09713
2829.43762,0.09584
2827.50889,0.09474
2825.58017,0.09376
2823.65145,0.09270
2821.72272,0.09158
2819.79400,0.09052
2817.86527,0.08956
2815.93655,0.08869
2814.00783,0.08788
2812.07910,0.08699
2810.15038,0.08595
2808.22166,0.08497
2806.29293,0.08417
2804.36421,0.08345
2802.43549,0.08272
2800.50676,0.08200
2798.57804,0.08132
2796.64931,0.08062
2794.72059,0.07980
2792.79187,0.07894
2790.86314,0.07818
2788.93442,0.07749
2787.00570,0.07674
2785.07697,0.07595
2783.14825,0.07520
2781.21953,0.07448
2779.29080,0.07376
2777.36208,0.07310
2775.43335,0.07252
2773.50463,0.07191
2771.57591,0.07115
2769.64718,0.07028
2767.71846,0.06948
2765.78974,0.06888
2763.86101,0.06840
2761.93229,0.06783
2760.00356,0.06712
2758.07484,0.06637
2756.14612,0.06566
2754.21739,0.06497
2752.28867,0.06437
2750.35995,0.06387
2748.43122,0.06336
2746.50250,0.06284
2744.57378,0.06232
2742.64505,0.06179
2740.71633,0.06117
2738.78760,0.06048
2736.85888,0.05981
2734.93016,0.05923
2733.00143,0.05873
2731.07271,0.05822
2729.14399,0.05763
2727.21526,0.05701
2725.28654,0.05640
2723.35782,0.05577
2721.42909,0.05510
2719.50037,0.05444
2717.57164,0.05382
2715.64292,0.05319
2713.71420,0.05261
2711.78547,0.05208
2709.85675,0.05153
2707.92803,0.05095
2705.99930,0.05041
2704.07058,0.04990
2702.14185,0.04939
2700.21313,0.04895
2698.28441,0.04855
2696.35568,0.04803
2694.42696,0.04735
2692.49824,0.04672
2690.56951,0.04624
2688.64079,0.04581
2686.71207,0.04533
2684.78334,0.04483
2682.85462,0.04437
2680.92589,0.04395
2678.99717,0.04356
2677.06845,0.04317
2675.13972,0.04270
2673.21100,0.04213
2671.28228,0.04156
2669.35355,0.04103
2667.42483,0.04050
2665.49611,0.03998
2663.56738,0.03954
2661.63866,0.03914
2659.70993,0.03877
2657.78121,0.03841
2655.85249,0.03800
2653.92376,0.03750
2651.99504,0.03692
2650.06632,0.03635
2648.13759,0.03590
2646.20887,0.03553
2644.28014,0.03511
2642.35142,0.03459
2640.42270,0.03412
2638.49397,0.03376
2636.56525,0.03346
2634.63653,0.03307
2632.70780,0.03260
2630.77908,0.03214
2628.85036,0.03173
2626.92163,0.03133
2624.99291,0.03090
2623.06418,0.03050
2621.13546,0.03015
2619.20674,0.02979
2617.27801,0.02942
2615.34929,0.02905
2613.42057,0.02865
2611.49184,0.02825
2609.56312,0.02784
2607.63440,0.02745
2605.70567,0.02708
2603.77695,0.02672
2601.84822,0.02636
2599.91950,0.02604
2597.99078,0.02568
2596.06205,0.02530
2594.13333,0.02497
2592.20461,0.02466
2590.27588,0.02435
2588.34716,0.02407
2586.41843,0.02371
2584.48971,0.02331
2582.56099,0.02299
2580.63226,0.02270
2578.70354,0.02240
2576.77482,0.02208
2574.84609,0.02178
2572.91737,0.02148
2570.98865,0.02121
2569.05992,0.02098
2567.13120,0.02074
2565.20247,0.02044
2563.27375,0.02011
2561.34503,0.01983
2559.41630,0.01962
2557.48758,0.01942
2555.55886,0.01913
2553.63013,0.01877
2551.70141,0.01842
2549.77269,0.01821
2547.84396,0.01809
2545.91524,0.01793
2543.98651,0.01772
2542.05779,0.01751
2540.12907,0.01728
2538.20034,0.01708
2536.27162,0.01693
2534.34290,0.01674
2532.41417,0.01650
2530.48545,0.01622
2528.55673,0.01594
2526.62800,0.01570
2524.69928,0.01552
2522.77055,0.01535
2520.84183,0.01516
2518.91311,0.01495
2516.98438,0.01473
2515.05566,0.01451
2513.12694,0.01425
2511.19821,0.01393
2509.26949,0.01363
2507.34076,0.01344
2505.41204,0.01331
2503.48332,0.01313
2501.55459,0.01285
2499.62587,0.01253
2497.69715,0.01226
2495.76842,0.01209
2493.83970,0.01194
2491.91098,0.01179
2489.98225,0.01166
2488.05353,0.01149
2486.12480,0.01122
2484.19608,0.01097
2482.26736,0.01080
2480.33863,0.01068
2478.40991,0.01058
2476.48119,0.01044
2474.55246,0.01024
2472.62374,0.01000
2470.69502,0.00975
2468.76629,0.00953
2466.83757,0.00934
2464.90884,0.00915
2462.98012,0.00899
2461.05140,0.00886
2459.12267,0.00873
2457.19395,0.00858
2455.26523,0.00843
2453.33650,0.00826
2451.40778,0.00801
2449.47905,0.00776
2447.55033,0.00758
2445.62161,0.00744
2443.69288,0.00727
2441.76416,0.00711
2439.83544,0.00701
2437.90671,0.00692
2435.97799,0.00677
2434.04927,0.00659
2432.12054,0.00641
2430.19182,0.00619
2428.26309,0.00600
2426.33437,0.00591
2424.40565,0.00577
2422.47692,0.00553
2420.54820,0.00532
2418.61948,0.00519
2416.69075,0.00507
2414.76203,0.00494
2412.83331,0.00481
2410.90458,0.00466
2408.97586,0.00452
2407.04713,0.00441
2405.11841,0.00432
2403.18969,0.00420
2401.26096,0.00405
2399.33224,0.00387
2397.40352,0.00373
2395.47479,0.00365
2393.54607,0.00358
2391.61734,0.00350
2389.68862,0.00340
2387.75990,0.00333
2385.83117,0.00327
2383.90245,0.00325
2381.97373,0.00326
2380.04500,0.00328
2378.11628,0.00327
2376.18756,0.00319
2374.25883,0.00305
2372.33011,0.00293
2370.40138,0.00289
2368.47266,0.00299
2366.54394,0.00317
2364.61521,0.00325
2362.68649,0.00317
2360.75777,0.00308
2358.82904,0.00293
2356.90032,0.00270
2354.97160,0.00254
2353.04287,0.00270
2351.11415,0.00313
2349.18542,0.00329
2347.25670,0.00284
2345.32798,0.00232
2343.39925,0.00227
2341.47053,0.00248
2339.54181,0.00264
2337.61308,0.00259
2335.68436,0.00235
2333.75563,0.00220
2331.82691,0.00219
2329.89819,0.00218
2327.96946,0.00213
2326.04074,0.00205
2324.11202,0.00191
2322.18329,0.00179
2320.25457,0.00171
2318.32585,0.00169
2316.39712,0.00168
2314.46840,0.00162
2312.53967,0.00149
2310.61095,0.00131
2308.68223,0.00112
2306.75350,0.00099
2304.82478,0.00093
2302.89606,0.00091
2300.96733,0.00089
2299.03861,0.00088
2297.10989,0.00083
2295.18116,0.00074
2293.25244,0.00068
2291.32371,0.00069
2289.39499,0.00067
2287.46627,0.00059
2285.53754,0.00050
2283.60882,0.00046
2281.68010,0.00040
2279.75137,0.00035
2277.82265,0.00036
2275.89392,0.00042
2273.96520,0.00044
2272.03648,0.00039
2270.10775,0.00030
2268.17903,0.00020
2266.25031,0.00008
2264.32158,-0.00002
2262.39286,0.00000
2260.46414,0.00009
2258.53541,0.00016
2256.60669,0.00018
2254.67796,0.00015
2252.74924,0.00012
2250.82052,0.00013
2248.89179,0.00019
2246.96307,0.00021
2245.03435,0.00018
2243.10562,0.00011
2241.17690,0.00008
2239.24818,0.00012
2237.31945,0.00014
2235.39073,0.00008
2233.46200,-0.00002
2231.53328,-0.00003
2229.60456,-0.00000
2227.67583,-0.00003
2225.74711,-0.00009
2223.81839,-0.00007
2221.88966,-0.00004
2219.96094,-0.00007
2218.03221,-0.00009
2216.10349,-0.00006
2214.17477,-0.00005
2212.24604,-0.00008
2210.31732,-0.00012
2208.38860,-0.00009
2206.45987,0.00000
2204.53115,0.00003
2202.60243,-0.00003
2200.67370,-0.00009
2198.74498,-0.00008
2196.81625,-0.00001
2194.88753,0.00013
2192.95881,0.00024
2191.03008,0.00026
2189.10136,0.00020
2187.17264,0.00014
2185.24391,0.00010
2183.31519,0.00004
2181.38647,-0.00002
2179.45774,0.00001
2177.52902,0.00006
2175.60029,0.00007
2173.67157,0.00006
2171.74285,0.00008
2169.81412,0.00010
2167.88540,0.00010
2165.95668,0.00014
2164.02795,0.00020
2162.09923,0.00027
2160.17050,0.00029
2158.24178,0.00031
2156.31306,0.00038
2154.38433,0.00045
2152.45561,0.00049
2150.52689,0.00057
2148.59816,0.00065
2146.66944,0.00061
2144.74072,0.00050
2142.81199,0.00047
2140.88327,0.00050
2138.95454,0.00053
2137.02582,0.00055
2135.09710,0.00055
2133.16837,0.00054
2131.23965,0.00054
2129.31093,0.00053
2127.38220,0.00054
2125.45348,0.00056
2123.52476,0.00052
2121.59603,0.00042
2119.66731,0.00039
2117.73858,0.00043
2115.80986,0.00046
2113.88114,0.00048
2111.95241,0.00043
2110.02369,0.00033
2108.09497,0.00031
2106.16624,0.00035
2104.23752,0.00031
2102.30880,0.00017
2100.38007,0.00005
2098.45135,0.00003
2096.52262,0.00002
2094.59390,0.00000
2092.66518,-0.00002
2090.73645,0.00004
2088.80773,0.00004
2086.87901,-0.00006
2084.95028,-0.00019
2083.02156,-0.00029
2081.09283,-0.00035
2079.16411,-0.00033
2077.23539,-0.00027
2075.30666,-0.00025
2073.37794,-0.00030
2071.44922,-0.00038
2069.52049,-0.00041
2067.59177,-0.00033
2065.66305,-0.00020
2063.73432,-0.00011
2061.80560,-0.00008
2059.87687,-0.00005
2057.94815,0.00004
2056.01943,0.00017
2054.09070,0.00030
2052.16198,0.00042
2050.23326,0.00052
2048.30453,0.00066
2046.37581,0.00090
2044.44709,0.00117
2042.51836,0.00138
2040.58964,0.00158
2038.66091,0.00177
2036.73219,0.00194
2034.80347,0.00214
2032.87474,0.00240
2030.94602,0.00262
2029.01730,0.00275
2027.08857,0.00290
2025.15985,0.00310
2023.23112,0.00331
2021.30240,0.00349
2019.37368,0.00367
2017.44495,0.00382
2015.51623,0.00393
2013.58751,0.00406
2011.65878,0.00417
2009.73006,0.00418
2007.80134,0.00411
2005.87261,0.00410
2003.94389,0.00415
2002.01516,0.00419
2000.08644,0.00422
1998.15772,0.00425
1996.22899,0.00430
1994.30027,0.00432
1992.37155,0.00431
1990.44282,0.00432
1988.51410,0.00438
1986.58538,0.00438
1984.65665,0.00427
1982.72793,0.00416
1980.79920,0.00412
1978.87048,0.00407
1976.94176,0.00392
1975.01303,0.00369
1973.08431,0.00350
1971.15559,0.00340
1969.22686,0.00330
1967.29814,0.00313
1965.36941,0.00291
1963.44069,0.00270
1961.51197,0.00249
1959.58324,0.00226
1957.65452,0.00203
1955.72580,0.00187
1953.79707,0.00176
1951.86835,0.00161
1949.93963,0.00141
1948.01090,0.00124
1946.08218,0.00110
1944.15345,0.00098
1942.22473,0.00085
1940.29601,0.00066
1938.36728,0.00043
1936.43856,0.00023
1934.50984,0.00012
1932.58111,0.00009
1930.65239,0.00007
1928.72367,0.00006
1926.79494,0.00010
1924.86622,0.00017
1922.93749,0.00030
1921.00877,0.00047
1919.08005,0.00067
1917.15132,0.00091
1915.22260,0.00119
1913.29388,0.00151
1911.36515,0.00190
1909.43643,0.00237
1907.50770,0.00289
1905.57898,0.00341
1903.65026,0.00392
1901.72153,0.00442
1899.79281,0.00490
1897.86409,0.00540
1895.93536,0.00596
1894.00664,0.00651
1892.07792,0.00700
1890.14919,0.00743
1888.22047,0.00781
1886.29174,0.00812
1884.36302,0.00841
1882.43430,0.00867
1880.50557,0.00888
1878.57685,0.00903
1876.64813,0.00914
1874.71940,0.00921
1872.79068,0.00924
1870.86196,0.00924
1868.93323,0.00920
1867.00451,0.00899
1865.07578,0.00862
1863.14706,0.00821
1861.21834,0.00780
1859.28961,0.00734
1857.36089,0.00678
1855.43217,0.00618
1853.50344,0.00560
1851.57472,0.00506
1849.64599,0.00451
1847.71727,0.00393
1845.78855,0.00336
1843.85982,0.00283
1841.93110,0.00237
1840.00238,0.00198
1838.07365,0.00167
1836.14493,0.00137
1834.21621,0.00103
1832.28748,0.00068
1830.35876,0.00039
1828.43003,0.00018
1826.50131,0.00003
1824.57259,-0.00007
1822.64386,-0.00011
1820.71514,-0.00009
1818.78642,-0.00005
1816.85769,-0.00003
1814.92897,0.00000
1813.00025,-0.00009
1811.07152,-0.00009
1809.14280,-0.00007
1807.21407,-0.00008
1805.28535,-0.00008
1803.35663,0.00001
1801.42790,0.00025
1799.49918,0.00060
1797.57046,0.00094
1795.64173,0.00125
1793.71301,0.00166
1791.78428,0.00225
1789.85556,0.00286
1787.92684,0.00340
1785.99811,0.00401
1784.06939,0.00473
1782.14067,0.00551
1780.21194,0.00633
1778.28322,0.00710
1776.35450,0.00775
1774.42577,0.00842
1772.49705,0.00931
1770.56832,0.01034
1768.63960,0.01127
1766.71088,0.01200
1764.78215,0.01263
1762.85343,0.01337
1760.92471,0.01434
1758.99598,0.01542
1757.06726,0.01654
1755.13854,0.01761
1753.20981,0.01860
1751.28109,0.01981
1749.35236,0.02135
1747.42364,0.02292
1745.49492,0.02437
1743.56619,0.02585
1741.63747,0.02750
1739.70875,0.02924
1737.78002,0.03077
1735.85130,0.03236
1733.92257,0.03468
1731.99385,0.03726
1730.06513,0.03929
1728.13640,0.04093
1726.20768,0.04247
1724.27896,0.04410
1722.35023,0.04569
1720.42151,0.04720
1718.49279,0.04913
1716.56406,0.05171
1714.63534,0.05414
1712.70661,0.05603
1710.77789,0.05774
1708.84917,0.05961
1706.92044,0.06184
1704.99172,0.06431
1703.06300,0.06678
1701.13427,0.06976
1699.20555,0.07350
1697.27683,0.07743
1695.34810,0.08131
1693.41938,0.08461
1691.49065,0.08743
1689.56193,0.09041
1687.63321,0.09352
1685.70448,0.09717
1683.77576,0.10198
1681.84704,0.10642
1679.91831,0.10955
1677.98959,0.11227
1676.06087,0.11538
1674.13214,0.11880
1672.20342,0.12200
1670.27469,0.12529
1668.34597,0.12866
1666.41725,0.13132
1664.48852,0.13358
1662.55980,0.13619
1660.63108,0.13875
1658.70235,0.14062
1656.77363,0.14189
1654.84490,0.14336
1652.91618,0.14554
1650.98746,0.14727
1649.05873,0.14810
1647.13001,0.14904
1645.20129,0.15020
1643.27256,0.15094
1641.34384,0.15128
1639.41512,0.15147
1637.48639,0.15162
1635.55767,0.15178
1633.62894,0.15179
1631.70022,0.15145
1629.77150,0.15081
1627.84277,0.14985
1625.91405,0.14851
1623.98533,0.14675
1622.05660,0.14477
1620.12788,0.14276
1618.19916,0.14039
1616.27043,0.13745
1614.34171,0.13459
1612.41298,0.13210
1610.48426,0.12961
1608.55554,0.12687
1606.62681,0.12401
1604.69809,0.12115
1602.76937,0.11832
1600.84064,0.11560
1598.91192,0.11305
1596.98319,0.11060
1595.05447,0.10813
1593.12575,0.10567
1591.19702,0.10336
1589.26830,0.10123
1587.33958,0.09913
1585.41085,0.09702
1583.48213,0.09495
1581.55341,0.09304
1579.62468,0.09131
1577.69596,0.08963
1575.76723,0.08798
1573.83851,0.08655
1571.90979,0.08536
1569.98106,0.08427
1568.05234,0.08340
1566.12362,0.08273
1564.19489,0.08202
1562.26617,0.08117
1560.33745,0.08024
1558.40872,0.07929
1556.48000,0.07848
1554.55127,0.07780
1552.62255,0.07710
1550.69383,0.07626
1548.76510,0.07522
1546.83638,0.07402
1544.90766,0.07267
1542.97893,0.07115
1541.05021,0.06942
1539.12148,0.06771
1537.19276,0.06636
1535.26404,0.06506
1533.33531,0.06343
1531.40659,0.06171
1529.47787,0.06005
1527.54914,0.05828
1525.62042,0.05637
1523.69170,0.05436
1521.76297,0.05207
1519.83425,0.04979
1517.90552,0.04792
1515.97680,0.04618
1514.04808,0.04427
1512.11935,0.04222
1510.19063,0.03999
1508.26191,0.03712
1506.33318,0.03365
1504.40446,0.03099
1502.47574,0.02919
1500.54701,0.02740
1498.61829,0.02531
1496.68956,0.02328
1494.76084,0.02175
1492.83212,0.02070
1490.90339,0.01977
1488.97467,0.01888
1487.04595,0.01827
1485.11722,0.01805
1483.18850,0.01818
1481.25977,0.01860
1479.33105,0.01924
1477.40233,0.02013
1475.47360,0.02155
1473.54488,0.02398
1471.61616,0.02721
1469.68743,0.02997
1467.75871,0.03189
1465.82999,0.03344
1463.90126,0.03466
1461.97254,0.03527
1460.04381,0.03541
1458.11509,0.03581
1456.18637,0.03695
1454.25764,0.03804
1452.32892,0.03845
1450.40020,0.03840
1448.47147,0.03828
1446.54275,0.03827
1444.61403,0.03826
1442.68530,0.03811
1440.75658,0.03779
1438.82785,0.03731
1436.89913,0.03660
1434.97041,0.03572
1433.04168,0.03486
1431.11296,0.03414
1429.18424,0.03360
1427.25551,0.03333
1425.32679,0.03343
1423.39806,0.03398
1421.46934,0.03492
1419.54062,0.03630
1417.61189,0.03746
1415.68317,0.03715
1413.75445,0.03607
1411.82572,0.03667
1409.89700,0.03953
1407.96828,0.04240
1406.03955,0.04387
1404.11083,0.04428
1402.18210,0.04411
1400.25338,0.04364
1398.32466,0.04303
1396.39593,0.04235
1394.46721,0.04164
1392.53849,0.04092
1390.60976,0.04017
1388.68104,0.03929
1386.75232,0.03829
1384.82359,0.03731
1382.89487,0.03643
1380.96614,0.03548
1379.03742,0.03428
1377.10870,0.03274
1375.17997,0.03083
1373.25125,0.02874
1371.32253,0.02693
1369.39380,0.02562
1367.46508,0.02472
1365.53635,0.02393
1363.60763,0.02303
1361.67891,0.02204
1359.75018,0.02116
1357.82146,0.02042
1355.89274,0.01982
1353.96401,0.01940
1352.03529,0.01916
1350.10657,0.01899
1348.17784,0.01877
1346.24912,0.01849
1344.32039,0.01822
1342.39167,0.01800
1340.46295,0.01783
1338.53422,0.01771
1336.60550,0.01764
1334.67678,0.01754
1332.74805,0.01744
1330.81933,0.01741
1328.89061,0.01753
1326.96188,0.01773
1325.03316,0.01790
1323.10443,0.01803
1321.17571,0.01819
1319.24699,0.01837
1317.31826,0.01855
1315.38954,0.01879
1313.46082,0.01911
1311.53209,0.01947
1309.60337,0.01985
1307.67464,0.02027
1305.74592,0.02080
1303.81720,0.02152
1301.88847,0.02238
1299.95975,0.02331
1298.03103,0.02436
1296.10230,0.02565
1294.17358,0.02711
1292.24486,0.02866
1290.31613,0.03037
1288.38741,0.03239
1286.45868,0.03470
1284.52996,0.03722
1282.60124,0.03995
1280.67251,0.04290
1278.74379,0.04613
1276.81507,0.04958
1274.88634,0.05332
1272.95762,0.05756
1271.02890,0.06246
1269.10017,0.06796
1267.17145,0.07405
1265.24272,0.08084
1263.31400,0.08841
1261.38528,0.09684
1259.45655,0.10618
1257.52783,0.11627
1255.59911,0.12693
1253.67038,0.13798
1251.74166,0.14915
1249.81294,0.16014
1247.88421,0.17066
1245.95549,0.18045
1244.02676,0.18947
1242.09804,0.19779
1240.16932,0.20537
1238.24059,0.21210
1236.31187,0.21803
1234.38315,0.22341
1232.45442,0.22841
1230.52570,0.23300
1228.59697,0.23712
1226.66825,0.24092
1224.73953,0.24443
1222.81080,0.24755
1220.88208,0.25037
1218.95336,0.25308
1217.02463,0.25566
1215.09591,0.25808
1213.16719,0.26041
1211.23846,0.26278
1209.30974,0.26512
1207.38101,0.26738
1205.45229,0.26954
1203.52357,0.27150
1201.59484,0.27332
1199.66612,0.27524
1197.73740,0.27729
1195.80867,0.27918
1193.87995,0.28078
1191.95123,0.28228
1190.02250,0.28387
1188.09378,0.28542
1186.16505,0.28680
1184.23633,0.28832
1182.30761,0.29024
1180.37888,0.29233
1178.45016,0.29431
1176.52144,0.29600
1174.59271,0.29709
1172.66399,0.29753
1170.73526,0.29847
1168.80654,0.30052
1166.87782,0.30216
1164.94909,0.30303
1163.02037,0.30459
1161.09165,0.30670
1159.16292,0.30798
1157.23420,0.30816
1155.30548,0.30781
1153.37675,0.30700
1151.44803,0.30478
1149.51930,0.29919
1147.59058,0.28818
1145.66186,0.27173
1143.73313,0.25234
1141.80441,0.23334
1139.87569,0.22119
1137.94696,0.22182
1136.01824,0.23130
1134.08952,0.24327
1132.16079,0.25593
1130.23207,0.26861
1128.30334,0.28110
1126.37462,0.29426
1124.44590,0.30805
1122.51717,0.32145
1120.58845,0.33390
1118.65973,0.34511
1116.73100,0.35483
1114.80228,0.36346
1112.87355,0.37167
1110.94483,0.37980
1109.01611,0.38774
1107.08738,0.39518
1105.15866,0.40202
1103.22994,0.40826
1101.30121,0.41354
1099.37249,0.41773
1097.44377,0.42092
1095.51504,0.42333
1093.58632,0.42516
1091.65759,0.42613
1089.72887,0.42623
1087.80015,0.42579
1085.87142,0.42526
1083.94270,0.42474
1082.01398,0.42375
1080.08525,0.42200
1078.15653,0.41953
1076.22781,0.41674
1074.29908,0.41391
1072.37036,0.41085
1070.44163,0.40735
1068.51291,0.40344
1066.58419,0.39914
1064.65546,0.39469
1062.72674,0.39036
1060.79802,0.38556
1058.86929,0.37991
1056.94057,0.37404
1055.01184,0.36823
1053.08312,0.36236
1051.15440,0.35629
1049.22567,0.34988
1047.29695,0.34333
1045.36823,0.33681
1043.43950,0.33014
1041.51078,0.32344
1039.58206,0.31686
1037.65333,0.30999
1035.72461,0.30268
1033.79588,0.29521
1031.86716,0.28775
1029.93844,0.28050
1028.00971,0.27370
1026.08099,0.26720
1024.15227,0.26070
1022.22354,0.25436
1020.29482,0.24846
1018.36610,0.24288
1016.43737,0.23744
1014.50865,0.23218
1012.57992,0.22705
1010.65120,0.22211
1008.72248,0.21742
1006.79375,0.21292
1004.86503,0.20849
1002.93631,0.20411
1001.00758,0.19990
999.07886,0.19609
997.15013,0.19253
995.22141,0.18883
993.29269,0.18499
991.36396,0.18139
989.43524,0.17801
987.50652,0.17469
985.57779,0.17160
983.64907,0.16893
981.72035,0.16672
979.79162,0.16477
977.86290,0.16289
975.93417,0.16114
974.00545,0.15964
972.07673,0.15835
970.14800,0.15700
968.21928,0.15540
966.29056,0.15366
964.36183,0.15191
962.43311,0.15006
960.50439,0.14797
958.57566,0.14587
956.64694,0.14411
954.71821,0.14269
952.78949,0.14147
950.86077,0.14044
948.93204,0.13942
947.00332,0.13776
945.07460,0.13548
943.14587,0.13360
941.21715,0.13198
939.28842,0.12984
937.35970,0.12781
935.43098,0.12626
933.50225,0.12459
931.57353,0.12253
929.64481,0.12029
927.71608,0.11813
925.78736,0.11610
923.85864,0.11384
921.92991,0.11135
920.00119,0.10919
918.07246,0.10731
916.14374,0.10490
914.21502,0.10182
912.28629,0.09855
910.35757,0.09540
908.42885,0.09229
906.50012,0.08901
904.57140,0.08555
902.64268,0.08203
900.71395,0.07855
898.78523,0.07508
896.85650,0.07151
894.92778,0.06792
892.99906,0.06453
891.07033,0.06139
889.14161,0.05834
887.21289,0.05529
885.28416,0.05233
883.35544,0.04964
881.42671,0.04734
879.49799,0.04524
877.56927,0.04303
875.64054,0.04071
873.71182,0.03848
871.78310,0.03621
869.85437,0.03371
867.92565,0.03133
865.99693,0.02968
864.06820,0.02860
862.13948,0.02743
860.21075,0.02596
858.28203,0.02454
856.35331,0.02348
854.42458,0.02281
852.49586,0.02248
850.56714,0.02229
848.63841,0.02241
846.70969,0.02313
844.78097,0.02445
842.85224,0.02625
840.92352,0.02838
838.99479,0.03074
837.06607,0.03337
835.13735,0.03638
833.20862,0.03968
831.27990,0.04300
829.35118,0.04632
827.42245,0.04992
825.49373,0.05366
823.56501,0.05707
821.63628,0.06021
819.70756,0.06338
817.77883,0.06666
815.85011,0.06989
813.92139,0.07288
811.99266,0.07562
810.06394,0.07817
808.13522,0.08055
806.20649,0.08290
804.27777,0.08510
802.34904,0.08686
800.42032,0.08796
798.49160,0.08823
796.56287,0.08795
794.63415,0.08745
792.70543,0.08669
790.77670,0.08544
788.84798,0.08356
786.91926,0.08110
784.99053,0.07831
783.06181,0.07545
781.13308,0.07247
779.20436,0.06904
777.27564,0.06525
775.34691,0.06141
773.41819,0.05754
771.48947,0.05373
769.56074,0.05047
767.63202,0.04819
765.70330,0.04689
763.77457,0.04614
761.84585,0.04544
759.91712,0.04465
757.98840,0.04425
756.05968,0.04456
754.13095,0.04487
752.20223,0.04440
750.27351,0.04350
748.34478,0.04281
746.41606,0.04248
744.48733,0.04254
742.55861,0.04271
740.62989,0.04248
738.70116,0.04191
736.77244,0.04156
734.84372,0.04164
732.91499,0.04194
730.98627,0.04226
729.05755,0.04254
727.12882,0.04275
725.20010,0.04320
723.27137,0.04392
721.34265,0.04422
719.41393,0.04424
717.48520,0.04462
715.55648,0.04537
713.62776,0.04584
711.69903,0.04579
709.77031,0.04589
707.84159,0.04671
705.91286,0.04794
703.98414,0.04889
702.05541,0.04950
700.12669,0.05027
698.19797,0.05136
696.26924,0.05231
694.34052,0.05272
692.41180,0.05270
690.48307,0.05265
688.55435,0.05279
686.62562,0.05309
684.69690,0.05356
682.76818,0.05401
680.83945,0.05412
678.91073,0.05395
676.98201,0.05396
675.05328,0.05433
673.12456,0.05481
671.19584,0.05489
669.26711,0.05462
667.33839,0.05514
665.40966,0.05587
663.48094,0.05582
661.55222,0.05618
659.62349,0.05757
657.69477,0.05905
655.76605,0.06001
653.83732,0.06060
651.90860,0.06146
649.97988,0.06306
648.05115,0.06497
646.12243,0.06665
644.19370,0.06809
642.26498,0.06937
640.33626,0.07039
638.40753,0.07106
636.47881,0.07154
634.55009,0.07218
632.62136,0.07300
630.69264,0.07374
628.76391,0.07452
626.83519,0.07556
624.90647,0.07655
622.97774,0.07745
621.04902,0.07838
619.12030,0.07928
617.19157,0.08024
615.26285,0.08133
613.33413,0.08262
611.40540,0.08400
609.47668,0.08505
607.54795,0.08584
605.61923,0.08724
603.69051,0.08939
601.76178,0.09136
599.83306,0.09242
597.90434,0.09289
595.97561,0.09379
594.04689,0.09526
592.11817,0.09648
590.18944,0.09731
588.26072,0.09838
586.33199,0.09993
584.40327,0.10133
582.47455,0.10192
580.54582,0.10214
578.61710,0.10274
576.68838,0.10345
574.75965,0.10370
572.83093,0.10335
570.90220,0.10254
568.97348,0.10205
567.04476,0.10272
565.11603,0.10396
563.18731,0.10470
561.25859,0.10476
559.32986,0.10457
557.40114,0.10482
555.47242,0.10609
553.54369,0.10801
551.61497,0.10951
549.68624,0.11036
547.75752,0.11090
545.82880,0.11113
543.90007,0.11152
541.97135,0.11215
540.04263,0.11224
538.11390,0.11189
536.18518,0.11161
534.25646,0.11127
532.32773,0.11076
530.39901,0.10998
528.47028,0.10905
526.54156,0.10890
524.61284,0.10994
522.68411,0.11073
520.75539,0.11041
518.82667,0.11042
516.89794,0.11174
514.96922,0.11377
513.04049,0.11609
511.11177,0.11823
509.18305,0.11976
507.25432,0.12152
505.32560,0.12477
503.39688,0.12979
501.46815,0.13566
499.53943,0.14106
497.61071,0.14620
495.68198,0.15236
493.75326,0.15977
491.82453,0.16704
489.89581,0.17303
487.96709,0.17860
486.03836,0.18520
484.10964,0.19291
482.18092,0.20079
480.25219,0.20854
478.32347,0.21662
476.39475,0.22395
474.46602,0.22807
472.53730,0.22898
470.60857,0.22996
468.67985,0.23296
466.75113,0.23618
464.82240,0.23689
462.89368,0.23524
460.96496,0.23328
459.03623,0.23112
457.10751,0.22782
455.17878,0.22406
453.25006,0.22086
451.32134,0.21809
449.39261,0.21473
447.46389,0.21032
445.53517,0.20587
443.60644,0.20114
441.67772,0.19443
439.74900,0.18664
437.82027,0.18018
435.89155,0.17444
433.96282,0.16686
432.03410,0.15758
430.10538,0.15043
428.17665,0.14727
426.24793,0.14441
424.31921,0.13927
422.39048,0.13289
420.46176,0.12352
418.53304,0.11110
416.60431,0.10322
414.67559,0.10082
412.74686,0.09886
410.81814,0.09695
408.88942,0.09579
406.96069,0.09309
405.03197,0.08861
403.10325,0.08399
401.17452,0.07809
399.24580,0.06949
397.31708,0.05976
395.38835,0.05324
393.45963,0.05240
391.53090,0.05192
389.60218,0.04456
387.67346,0.03365
385.74473,0.02899
383.81601,0.03461
381.88729,0.04385
379.95856,0.04517
378.02984,0.03136
376.10111,0.00893
374.17239,0.00000
372.24367,-0.00452
370.31494,0.00064
368.38622,0.00000
