3996.31543,0.00034
3994.38671,0.00027
3992.45799,0.00033
3990.52926,0.00050
3988.60054,0.00050
3986.67182,0.00022
3984.74309,0.00000
3982.81437,0.00018
3980.88564,0.00066
3978.95692,0.00101
3977.02820,0.00098
3975.09947,0.00078
3973.17075,0.00071
3971.24203,0.00077
3969.31330,0.00085
3967.38458,0.00089
3965.45586,0.00094
3963.52713,0.00096
3961.59841,0.00095
3959.66968,0.00102
3957.74096,0.00122
3955.81224,0.00140
3953.88351,0.00138
3951.95479,0.00122
3950.02607,0.00112
3948.09734,0.00113
3946.16862,0.00121
3944.23990,0.00129
3942.31117,0.00124
3940.38245,0.00113
3938.45372,0.00108
3936.52500,0.00111
3934.59628,0.00123
3932.66755,0.00136
3930.73883,0.00138
3928.81011,0.00128
3926.88138,0.00117
3924.95266,0.00115
3923.02393,0.00120
3921.09521,0.00127
3919.16649,0.00126
3917.23776,0.00107
3915.30904,0.00083
3913.38032,0.00074
3911.45159,0.00084
3909.52287,0.00108
3907.59415,0.00135
3905.66542,0.00157
3903.73670,0.00164
3901.80797,0.00157
3899.87925,0.00126
3897.95053,0.00082
3896.02180,0.00062
3894.09308,0.00071
3892.16436,0.00072
3890.23563,0.00058
3888.30691,0.00053
3886.37819,0.00051
3884.44946,0.00050
3882.52074,0.00049
3880.59201,0.00043
3878.66329,0.00048
3876.73457,0.00087
3874.80584,0.00131
3872.87712,0.00135
3870.94840,0.00086
3869.01967,0.00022
3867.09095,0.00000
3865.16222,0.00015
3863.23350,0.00031
3861.30478,0.00036
3859.37605,0.00050
3857.44733,0.00071
3855.51861,0.00075
3853.58988,0.00051
3851.66116,0.00019
3849.73244,-0.00002
3847.80371,-0.00015
3845.87499,-0.00009
3843.94626,0.00021
3842.01754,0.00055
3840.08882,0.00058
3838.16009,0.00019
3836.23137,-0.00012
3834.30265,0.00003
3832.37392,0.00031
3830.44520,0.00046
3828.51648,0.00054
3826.58775,0.00057
3824.65903,0.00066
3822.73030,0.00090
3820.80158,0.00116
3818.87286,0.00130
3816.94413,0.00126
3815.01541,0.00096
3813.08669,0.00068
3811.15796,0.00064
3809.22924,0.00084
3807.30052,0.00116
3805.37179,0.00160
3803.44307,0.00208
3801.51434,0.00226
3799.58562,0.00216
3797.65690,0.00211
3795.72817,0.00218
3793.79945,0.00224
3791.87073,0.00231
3789.94200,0.00252
3788.01328,0.00290
3786.08455,0.00334
3784.15583,0.00371
3782.22711,0.00407
3780.29838,0.00435
3778.36966,0.00438
3776.44094,0.00437
3774.51221,0.00462
3772.58349,0.00512
3770.65477,0.00561
3768.72604,0.00594
3766.79732,0.00624
3764.86859,0.00661
3762.93987,0.00708
3761.01115,0.00761
3759.08242,0.00817
3757.15370,0.00871
3755.22498,0.00940
3753.29625,0.01025
3751.36753,0.01098
3749.43881,0.01152
3747.51008,0.01221
3745.58136,0.01322
3743.65263,0.01448
3741.72391,0.01575
3739.79519,0.01694
3737.86646,0.01820
3735.93774,0.01956
3734.00902,0.02101
3732.08029,0.02267
3730.15157,0.02443
3728.22284,0.02633
3726.29412,0.02859
3724.36540,0.03110
3722.43667,0.03357
3720.50795,0.03603
3718.57923,0.03860
3716.65050,0.04126
3714.72178,0.04431
3712.79306,0.04826
3710.86433,0.05273
3708.93561,0.05652
3707.00688,0.05964
3705.07816,0.06295
3703.14944,0.06693
3701.22071,0.07141
3699.29199,0.07581
3697.36327,0.07988
3695.43454,0.08375
3693.50582,0.08756
3691.57710,0.09173
3689.64837,0.09673
3687.71965,0.10201
3685.79092,0.10668
3683.86220,0.11098
3681.93348,0.11558
3680.00475,0.12062
3678.07603,0.12602
3676.14731,0.13208
3674.21858,0.13818
3672.28986,0.14354
3670.36113,0.14899
3668.43241,0.15451
3666.50369,0.15910
3664.57496,0.16320
3662.64624,0.16734
3660.71752,0.17143
3658.78879,0.17547
3656.86007,0.17977
3654.93135,0.18412
3653.00262,0.18809
3651.07390,0.19221
3649.14517,0.19692
3647.21645,0.20126
3645.28773,0.20460
3643.35900,0.20760
3641.43028,0.21092
3639.50156,0.21441
3637.57283,0.21760
3635.64411,0.22049
3633.71539,0.22327
3631.78666,0.22598
3629.85794,0.22892
3627.92921,0.23220
3626.00049,0.23518
3624.07177,0.23761
3622.14304,0.23990
3620.21432,0.24234
3618.28560,0.24458
3616.35687,0.24621
3614.42815,0.24772
3612.49942,0.24966
3610.57070,0.25191
3608.64198,0.25424
3606.71325,0.25645
3604.78453,0.25841
3602.85581,0.26037
3600.92708,0.26251
3598.99836,0.26459
3597.06964,0.26650
3595.14091,0.26842
3593.21219,0.27038
3591.28346,0.27213
3589.35474,0.27374
3587.42602,0.27545
3585.49729,0.27729
3583.56857,0.27924
3581.63985,0.28113
3579.71112,0.28288
3577.78240,0.28457
3575.85368,0.28622
3573.92495,0.28769
3571.99623,0.28898
3570.06750,0.29020
3568.13878,0.29149
3566.21006,0.29307
3564.28133,0.29483
3562.35261,0.29660
3560.42389,0.29828
3558.49516,0.29967
3556.56644,0.30086
3554.63771,0.30212
3552.70899,0.30347
3550.78027,0.30470
3548.85154,0.30578
3546.92282,0.30698
3544.99410,0.30842
3543.06537,0.30990
3541.13665,0.31123
3539.20793,0.31248
3537.27920,0.31373
3535.35048,0.31502
3533.42175,0.31631
3531.49303,0.31754
3529.56431,0.31870
3527.63558,0.31984
3525.70686,0.32093
3523.77814,0.32198
3521.84941,0.32296
3519.92069,0.32399
3517.99197,0.32514
3516.06324,0.32636
3514.13452,0.32758
3512.20579,0.32872
3510.27707,0.32977
3508.34835,0.33085
3506.41962,0.33207
3504.49090,0.33321
3502.56218,0.33404
3500.63345,0.33469
3498.70473,0.33550
3496.77600,0.33646
3494.84728,0.33739
3492.91856,0.33834
3490.98983,0.33930
3489.06111,0.34019
3487.13239,0.34111
3485.20366,0.34213
3483.27494,0.34299
3481.34622,0.34349
3479.41749,0.34391
3477.48877,0.34454
3475.56004,0.34529
3473.63132,0.34612
3471.70260,0.34711
3469.77387,0.34800
3467.84515,0.34850
3465.91643,0.34883
3463.98770,0.34949
3462.05898,0.35040
3460.13026,0.35107
3458.20153,0.35154
3456.27281,0.35222
3454.34408,0.35310
3452.41536,0.35386
3450.48664,0.35443
3448.55791,0.35471
3446.62919,0.35471
3444.70047,0.35486
3442.77174,0.35549
3440.84302,0.35638
3438.91429,0.35705
3436.98557,0.35740
3435.05685,0.35757
3433.12812,0.35772
3431.19940,0.35791
3429.27068,0.35820
3427.34195,0.35865
3425.41323,0.35912
3423.48451,0.35940
3421.55578,0.35958
3419.62706,0.35986
3417.69833,0.36015
3415.76961,0.36026
3413.84089,0.36014
3411.91216,0.36000
3409.98344,0.36020
3408.05472,0.36076
3406.12599,0.36118
3404.19727,0.36108
3402.26855,0.36087
3400.33982,0.36079
3398.41110,0.36064
3396.48237,0.36062
3394.55365,0.36066
3392.62493,0.36063
3390.69620,0.36046
3388.76748,0.36007
3386.83876,0.35961
3384.91003,0.35941
3382.98131,0.35948
3381.05259,0.35952
3379.12386,0.35950
3377.19514,0.35952
3375.26641,0.35948
3373.33769,0.35922
3371.40897,0.35867
3369.48024,0.35804
3367.55152,0.35774
3365.62280,0.35779
3363.69407,0.35770
3361.76535,0.35722
3359.83662,0.35660
3357.90790,0.35623
3355.97918,0.35603
3354.05045,0.35565
3352.12173,0.35516
3350.19301,0.35486
3348.26428,0.35472
3346.33556,0.35447
3344.40684,0.35404
3342.47811,0.35361
3340.54939,0.35323
3338.62066,0.35280
3336.69194,0.35236
3334.76322,0.35196
3332.83449,0.35143
3330.90577,0.35076
3328.97705,0.35023
3327.04832,0.34998
3325.11960,0.34988
3323.19088,0.34969
3321.26215,0.34924
3319.33343,0.34862
3317.40470,0.34802
3315.47598,0.34760
3313.54726,0.34732
3311.61853,0.34695
3309.68981,0.34644
3307.76109,0.34598
3305.83236,0.34567
3303.90364,0.34541
3301.97491,0.34507
3300.04619,0.34466
3298.11747,0.34416
3296.18874,0.34361
3294.26002,0.34314
3292.33130,0.34277
3290.40257,0.34235
3288.47385,0.34193
3286.54513,0.34170
3284.61640,0.34163
3282.68768,0.34135
3280.75895,0.34070
3278.83023,0.33993
3276.90151,0.33937
3274.97278,0.33891
3273.04406,0.33836
3271.11534,0.33769
3269.18661,0.33706
3267.25789,0.33661
3265.32917,0.33628
3263.40044,0.33581
3261.47172,0.33508
3259.54299,0.33421
3257.61427,0.33346
3255.68555,0.33297
3253.75682,0.33253
3251.82810,0.33199
3249.89938,0.33143
3247.97065,0.33080
3246.04193,0.33005
3244.11320,0.32931
3242.18448,0.32860
3240.25576,0.32791
3238.32703,0.32721
3236.39831,0.32650
3234.46959,0.32588
3232.54086,0.32537
3230.61214,0.32483
3228.68342,0.32418
3226.75469,0.32352
3224.82597,0.32277
3222.89724,0.32198
3220.96852,0.32125
3219.03980,0.32028
3217.11107,0.31913
3215.18235,0.31832
3213.25363,0.31781
3211.32490,0.31713
3209.39618,0.31629
3207.46746,0.31552
3205.53873,0.31489
3203.61001,0.31411
3201.68128,0.31301
3199.75256,0.31178
3197.82384,0.31070
3195.89511,0.30984
3193.96639,0.30901
3192.03767,0.30799
3190.10894,0.30691
3188.18022,0.30599
3186.25149,0.30504
3184.32277,0.30392
3182.39405,0.30288
3180.46532,0.30196
3178.53660,0.30092
3176.60788,0.29975
3174.67915,0.29857
3172.75043,0.29741
3170.82171,0.29624
3168.89298,0.29503
3166.96426,0.29387
3165.03553,0.29286
3163.10681,0.29194
3161.17809,0.29107
3159.24936,0.29011
3157.32064,0.28903
3155.39192,0.28791
3153.46319,0.28679
3151.53447,0.28572
3149.60575,0.28465
3147.67702,0.28345
3145.74830,0.28220
3143.81957,0.28116
3141.89085,0.28032
3139.96213,0.27949
3138.03340,0.27847
3136.10468,0.27718
3134.17596,0.27586
3132.24723,0.27479
3130.31851,0.27388
3128.38978,0.27283
3126.46106,0.27162
3124.53234,0.27043
3122.60361,0.26937
3120.67489,0.26842
3118.74617,0.26735
3116.81744,0.26598
3114.88872,0.26456
3112.96000,0.26340
3111.03127,0.26251
3109.10255,0.26155
3107.17382,0.26027
3105.24510,0.25887
3103.31638,0.25765
3101.38765,0.25655
3099.45893,0.25536
3097.53021,0.25410
3095.60148,0.25282
3093.67276,0.25150
3091.74404,0.25017
3089.81531,0.24888
3087.88659,0.24763
3085.95786,0.24638
3084.02914,0.24510
3082.10042,0.24373
3080.17169,0.24229
3078.24297,0.24091
3076.31425,0.23965
3074.38552,0.23837
3072.45680,0.23700
3070.52807,0.23565
3068.59935,0.23429
3066.67063,0.23284
3064.74190,0.23146
3062.81318,0.23032
3060.88446,0.22927
3058.95573,0.22808
3057.02701,0.22672
3055.09829,0.22539
3053.16956,0.22418
3051.24084,0.22291
3049.31211,0.22147
3047.38339,0.22002
3045.45467,0.21880
3043.52594,0.21776
3041.59722,0.21667
3039.66850,0.21544
3037.73977,0.21422
3035.81105,0.21306
3033.88233,0.21191
3031.95360,0.21078
3030.02488,0.20971
3028.09615,0.20866
3026.16743,0.20759
3024.23871,0.20648
3022.30998,0.20534
3020.38126,0.20424
3018.45254,0.20315
3016.52381,0.20204
3014.59509,0.20098
3012.66636,0.20000
3010.73764,0.19908
3008.80892,0.19822
3006.88019,0.19744
3004.95147,0.19669
3003.02275,0.19594
3001.09402,0.19522
2999.16530,0.19451
2997.23658,0.19372
2995.30785,0.19288
2993.37913,0.19207
2991.45040,0.19140
2989.52168,0.19080
2987.59296,0.19023
2985.66423,0.18974
2983.73551,0.18939
2981.80679,0.18928
2979.87806,0.18937
2977.94934,0.18945
2976.02062,0.18950
2974.09189,0.18956
2972.16317,0.18959
2970.23444,0.18967
2968.30572,0.18991
2966.37700,0.19026
2964.44827,0.19061
2962.51955,0.19083
2960.59083,0.19077
2958.66210,0.19051
2956.73338,0.19030
2954.80466,0.19005
2952.87593,0.18954
2950.94721,0.18889
2949.01848,0.18841
2947.08976,0.18832
2945.16104,0.18867
2943.23231,0.18933
2941.30359,0.19021
2939.37487,0.19139
2937.44614,0.19271
2935.51742,0.19393
2933.58869,0.19501
2931.65997,0.19608
2929.73125,0.19702
2927.80252,0.19753
2925.87380,0.19741
2923.94508,0.19650
2922.01635,0.19482
2920.08763,0.19253
2918.15891,0.18965
2916.23018,0.18628
2914.30146,0.18267
2912.37273,0.17910
2910.44401,0.17587
2908.51529,0.17300
2906.58656,0.17044
2904.65784,0.16822
2902.72912,0.16633
2900.80039,0.16460
2898.87167,0.16288
2896.94295,0.16111
2895.01422,0.15937
2893.08550,0.15765
2891.15677,0.15594
2889.22805,0.15437
2887.29933,0.15296
2885.37060,0.15155
2883.44188,0.15018
2881.51316,0.14899
2879.58443,0.14803
2877.65571,0.14731
2875.72698,0.14670
2873.79826,0.14599
2871.86954,0.14513
2869.94081,0.14430
2868.01209,0.14368
2866.08337,0.14321
2864.15464,0.14281
2862.22592,0.14277
2860.29720,0.14337
2858.36847,0.14434
2856.43975,0.14526
2854.51102,0.14569
2852.58230,0.14506
2850.65358,0.14294
2848.72485,0.13944
2846.79613,0.13509
2844.86741,0.13062
2842.93868,0.12658
2841.00996,0.12334
2839.08124,0.12081
2837.15251,0.11854
2835.22379,0.11639
2833.29506,0.11454
2831.36634,0.11295
2829.43762,0.11142
2827.50889,0.10997
2825.58017,0.10870
2823.65145,0.10758
2821.72272,0.10643
2819.79400,0.10524
2817.86527,0.10408
2815.93655,0.10295
2814.00783,0.10188
2812.07910,0.10085
2810.15038,0.09985
2808.22166,0.09896
2806.29293,0.09812
2804.36421,0.09714
2802.43549,0.09604
2800.50676,0.09501
2798.57804,0.09410
2796.64931,0.09321
2794.72059,0.09234
2792.79187,0.09152
2790.86314,0.09069
2788.93442,0.08970
2787.00570,0.08865
2785.07697,0.08778
2783.14825,0.08699
2781.21953,0.08615
2779.29080,0.08532
2777.36208,0.08464
2775.43335,0.08399
2773.50463,0.08321
2771.57591,0.08230
2769.64718,0.08140
2767.71846,0.08061
2765.78974,0.07992
2763.86101,0.07920
2761.93229,0.07841
2760.00356,0.07766
2758.07484,0.07705
2756.14612,0.07646
2754.21739,0.07574
2752.28867,0.07497
2750.35995,0.07424
2748.43122,0.07349
2746.50250,0.07275
2744.57378,0.07212
2742.64505,0.07153
2740.71633,0.07083
2738.78760,0.07007
2736.85888,0.06931
2734.93016,0.06852
2733.00143,0.06778
2731.07271,0.06709
2729.14399,0.06642
2727.21526,0.06578
2725.28654,0.06520
2723.35782,0.06456
2721.42909,0.06377
2719.50037,0.06295
2717.57164,0.06229
2715.64292,0.06171
2713.71420,0.06105
2711.78547,0.06033
2709.85675,0.05965
2707.92803,0.05897
2705.99930,0.05827
2704.07058,0.05769
2702.14185,0.05718
2700.21313,0.05661
2698.28441,0.05601
2696.35568,0.05540
2694.42696,0.05479
2692.49824,0.05423
2690.56951,0.05367
2688.64079,0.05305
2686.71207,0.05245
2684.78334,0.05191
2682.85462,0.05143
2680.92589,0.05095
2678.99717,0.05037
2677.06845,0.04972
2675.13972,0.04910
2673.21100,0.04850
2671.28228,0.04790
2669.35355,0.04736
2667.42483,0.04685
2665.49611,0.04625
2663.56738,0.04564
2661.63866,0.04512
2659.70993,0.04468
2657.78121,0.04419
2655.85249,0.04361
2653.92376,0.04308
2651.99504,0.04262
2650.06632,0.04216
2648.13759,0.04165
2646.20887,0.04110
2644.28014,0.04058
2642.35142,0.04015
2640.42270,0.03974
2638.49397,0.03926
2636.56525,0.03873
2634.63653,0.03820
2632.70780,0.03771
2630.77908,0.03726
2628.85036,0.03680
2626.92163,0.03640
2624.99291,0.03599
2623.06418,0.03547
2621.13546,0.03491
2619.20674,0.03437
2617.27801,0.03395
2615.34929,0.03364
2613.42057,0.03330
2611.49184,0.03286
2609.56312,0.03238
2607.63440,0.03192
2605.70567,0.03152
2603.77695,0.03118
2601.84822,0.03078
2599.91950,0.03028
2597.99078,0.02976
2596.06205,0.02931
2594.13333,0.02893
2592.20461,0.02860
2590.27588,0.02822
2588.34716,0.02777
2586.41843,0.02735
2584.48971,0.02704
2582.56099,0.02679
2580.63226,0.02651
2578.70354,0.02617
2576.77482,0.02578
2574.84609,0.02539
2572.91737,0.02505
2570.98865,0.02476
2569.05992,0.02446
2567.13120,0.02412
2565.20247,0.02374
2563.27375,0.02338
2561.34503,0.02308
2559.41630,0.02289
2557.48758,0.02269
2555.55886,0.02238
2553.63013,0.02199
2551.70141,0.02166
2549.77269,0.02142
2547.84396,0.02128
2545.91524,0.02114
2543.98651,0.02090
2542.05779,0.02060
2540.12907,0.02030
2538.20034,0.01997
2536.27162,0.01970
2534.34290,0.01951
2532.41417,0.01924
2530.48545,0.01887
2528.55673,0.01856
2526.62800,0.01837
2524.69928,0.01814
2522.77055,0.01781
2520.84183,0.01752
2518.91311,0.01732
2516.98438,0.01712
2515.05566,0.01686
2513.12694,0.01654
2511.19821,0.01627
2509.26949,0.01610
2507.34076,0.01592
2505.41204,0.01569
2503.48332,0.01546
2501.55459,0.01523
2499.62587,0.01497
2497.69715,0.01473
2495.76842,0.01452
2493.83970,0.01429
2491.91098,0.01405
2489.98225,0.01384
2488.05353,0.01370
2486.12480,0.01352
2484.19608,0.01326
2482.26736,0.01298
2480.33863,0.01265
2478.40991,0.01231
2476.48119,0.01208
2474.55246,0.01200
2472.62374,0.01190
2470.69502,0.01172
2468.76629,0.01152
2466.83757,0.01129
2464.90884,0.01101
2462.98012,0.01077
2461.05140,0.01053
2459.12267,0.01024
2457.19395,0.01000
2455.26523,0.00986
2453.33650,0.00973
2451.40778,0.00950
2449.47905,0.00921
2447.55033,0.00894
2445.62161,0.00876
2443.69288,0.00863
2441.76416,0.00856
2439.83544,0.00848
2437.90671,0.00827
2435.97799,0.00795
2434.04927,0.00771
2432.12054,0.00763
2430.19182,0.00763
2428.26309,0.00752
2426.33437,0.00726
2424.40565,0.00696
2422.47692,0.00668
2420.54820,0.00643
2418.61948,0.00630
2416.69075,0.00618
2414.76203,0.00597
2412.83331,0.00575
2410.90458,0.00559
2408.97586,0.00548
2407.04713,0.00537
2405.11841,0.00523
2403.18969,0.00503
2401.26096,0.00479
2399.33224,0.00464
2397.40352,0.00456
2395.47479,0.00445
2393.54607,0.00429
2391.61734,0.00416
2389.68862,0.00410
2387.75990,0.00404
2385.83117,0.00392
2383.90245,0.00379
2381.97373,0.00371
2380.04500,0.00373
2378.11628,0.00383
2376.18756,0.00391
2374.25883,0.00392
2372.33011,0.00394
2370.40138,0.00398
2368.47266,0.00397
2366.54394,0.00391
2364.61521,0.00395
2362.68649,0.00414
2360.75777,0.00426
2358.82904,0.00405
2356.90032,0.00358
2354.97160,0.00311
2353.04287,0.00305
2351.11415,0.00351
2349.18542,0.00380
2347.25670,0.00339
2345.32798,0.00278
2343.39925,0.00264
2341.47053,0.00284
2339.54181,0.00302
2337.61308,0.00297
2335.68436,0.00270
2333.75563,0.00247
2331.82691,0.00245
2329.89819,0.00253
2327.96946,0.00255
2326.04074,0.00240
2324.11202,0.00212
2322.18329,0.00185
2320.25457,0.00169
2318.32585,0.00166
2316.39712,0.00165
2314.46840,0.00156
2312.53967,0.00140
2310.61095,0.00124
2308.68223,0.00112
2306.75350,0.00103
2304.82478,0.00095
2302.89606,0.00088
2300.96733,0.00081
2299.03861,0.00076
2297.10989,0.00074
2295.18116,0.00075
2293.25244,0.00078
2291.32371,0.00076
2289.39499,0.00067
2287.46627,0.00055
2285.53754,0.00047
2283.60882,0.00044
2281.68010,0.00040
2279.75137,0.00032
2277.82265,0.00027
2275.89392,0.00028
2273.96520,0.00025
2272.03648,0.00016
2270.10775,0.00014
2268.17903,0.00018
2266.25031,0.00017
2264.32158,0.00011
2262.39286,0.00010
2260.46414,0.00012
2258.53541,0.00013
2256.60669,0.00012
2254.67796,0.00009
2252.74924,0.00010
2250.82052,0.00014
2248.89179,0.00017
2246.96307,0.00015
2245.03435,0.00017
2243.10562,0.00016
2241.17690,0.00009
2239.24818,0.00004
2237.31945,0.00005
2235.39073,0.00005
2233.46200,0.00006
2231.53328,0.00006
2229.60456,0.00002
2227.67583,-0.00006
2225.74711,-0.00010
2223.81839,-0.00010
2221.88966,-0.00010
2219.96094,-0.00006
2218.03221,-0.00003
2216.10349,-0.00004
2214.17477,-0.00002
2212.24604,0.00005
2210.31732,0.00011
2208.38860,0.00008
2206.45987,0.00000
2204.53115,-0.00001
2202.60243,0.00006
2200.67370,0.00010
2198.74498,0.00007
2196.81625,0.00006
2194.88753,0.00004
2192.95881,-0.00001
2191.03008,-0.00003
2189.10136,-0.00001
2187.17264,-0.00001
2185.24391,-0.00003
2183.31519,-0.00002
2181.38647,0.00005
2179.45774,0.00013
2177.52902,0.00012
2175.60029,0.00005
2173.67157,0.00010
2171.74285,0.00024
2169.81412,0.00032
2167.88540,0.00026
2165.95668,0.00015
2164.02795,0.00011
2162.09923,0.00013
2160.17050,0.00021
2158.24178,0.00031
2156.31306,0.00037
2154.38433,0.00040
2152.45561,0.00040
2150.52689,0.00035
2148.59816,0.00033
2146.66944,0.00038
2144.74072,0.00042
2142.81199,0.00043
2140.88327,0.00049
2138.95454,0.00057
2137.02582,0.00060
2135.09710,0.00060
2133.16837,0.00059
2131.23965,0.00057
2129.31093,0.00051
2127.38220,0.00044
2125.45348,0.00037
2123.52476,0.00032
2121.59603,0.00034
2119.66731,0.00035
2117.73858,0.00030
2115.80986,0.00029
2113.88114,0.00035
2111.95241,0.00035
2110.02369,0.00029
2108.09497,0.00021
2106.16624,0.00014
2104.23752,0.00010
2102.30880,0.00012
2100.38007,0.00016
2098.45135,0.00013
2096.52262,0.00005
2094.59390,0.00000
2092.66518,-0.00006
2090.73645,-0.00015
2088.80773,-0.00026
2086.87901,-0.00032
2084.95028,-0.00030
2083.02156,-0.00025
2081.09283,-0.00027
2079.16411,-0.00037
2077.23539,-0.00043
2075.30666,-0.00038
2073.37794,-0.00023
2071.44922,-0.00011
2069.52049,-0.00008
2067.59177,-0.00012
2065.66305,-0.00016
2063.73432,-0.00008
2061.80560,0.00009
2059.87687,0.00020
2057.94815,0.00021
2056.01943,0.00025
2054.09070,0.00043
2052.16198,0.00070
2050.23326,0.00092
2048.30453,0.00106
2046.37581,0.00116
2044.44709,0.00132
2042.51836,0.00155
2040.58964,0.00176
2038.66091,0.00196
2036.73219,0.00214
2034.80347,0.00229
2032.87474,0.00247
2030.94602,0.00277
2029.01730,0.00312
2027.08857,0.00341
2025.15985,0.00354
2023.23112,0.00360
2021.30240,0.00375
2019.37368,0.00401
2017.44495,0.00427
2015.51623,0.00445
2013.58751,0.00454
2011.65878,0.00455
2009.73006,0.00449
2007.80134,0.00448
2005.87261,0.00458
2003.94389,0.00472
2002.01516,0.00477
2000.08644,0.00482
1998.15772,0.00489
1996.22899,0.00489
1994.30027,0.00484
1992.37155,0.00482
1990.44282,0.00483
1988.51410,0.00481
1986.58538,0.00470
1984.65665,0.00454
1982.72793,0.00444
1980.79920,0.00441
1978.87048,0.00436
1976.94176,0.00422
1975.01303,0.00405
1973.08431,0.00392
1971.15559,0.00375
1969.22686,0.00349
1967.29814,0.00325
1965.36941,0.00309
1963.44069,0.00293
1961.51197,0.00267
1959.58324,0.00236
1957.65452,0.00215
1955.72580,0.00204
1953.79707,0.00190
1951.86835,0.00165
1949.93963,0.00139
1948.01090,0.00121
1946.08218,0.00107
1944.15345,0.00086
1942.22473,0.00061
1940.29601,0.00038
1938.36728,0.00023
1936.43856,0.00014
1934.50984,0.00008
1932.58111,0.00003
1930.65239,0.00001
1928.72367,-0.00000
1926.79494,0.00000
1924.86622,-0.00001
1922.93749,-0.00002
1921.00877,0.00008
1919.08005,0.00036
1917.15132,0.00070
1915.22260,0.00100
1913.29388,0.00133
1911.36515,0.00177
1909.43643,0.00225
1907.50770,0.00271
1905.57898,0.00319
1903.65026,0.00372
1901.72153,0.00428
1899.79281,0.00483
1897.86409,0.00540
1895.93536,0.00598
1894.00664,0.00658
1892.07792,0.00717
1890.14919,0.00773
1888.22047,0.00821
1886.29174,0.00862
1884.36302,0.00898
1882.43430,0.00927
1880.50557,0.00946
1878.57685,0.00960
1876.64813,0.00972
1874.71940,0.00982
1872.79068,0.00991
1870.86196,0.00997
1868.93323,0.00990
1867.00451,0.00961
1865.07578,0.00915
1863.14706,0.00863
1861.21834,0.00812
1859.28961,0.00759
1857.36089,0.00704
1855.43217,0.00647
1853.50344,0.00590
1851.57472,0.00534
1849.64599,0.00484
1847.71727,0.00437
1845.78855,0.00383
1843.85982,0.00318
1841.93110,0.00258
1840.00238,0.00218
1838.07365,0.00186
1836.14493,0.00145
1834.21621,0.00103
1832.28748,0.00081
1830.35876,0.00072
1828.43003,0.00060
1826.50131,0.00042
1824.57259,0.00023
1822.64386,0.00010
1820.71514,-0.00000
1818.78642,-0.00009
1816.85769,-0.00012
1814.92897,0.00000
1813.00025,0.00005
1811.07152,0.00010
1809.14280,0.00004
1807.21407,0.00000
1805.28535,0.00007
1803.35663,0.00027
1801.42790,0.00058
1799.49918,0.00100
1797.57046,0.00144
1795.64173,0.00188
1793.71301,0.00237
1791.78428,0.00298
1789.85556,0.00360
1787.92684,0.00419
1785.99811,0.00492
1784.06939,0.00588
1782.14067,0.00703
1780.21194,0.00815
1778.28322,0.00910
1776.35450,0.00996
1774.42577,0.01098
1772.49705,0.01226
1770.56832,0.01351
1768.63960,0.01445
1766.71088,0.01518
1764.78215,0.01595
1762.85343,0.01699
1760.92471,0.01830
1758.99598,0.01966
1757.06726,0.02100
1755.13854,0.02224
1753.20981,0.02348
1751.28109,0.02504
1749.35236,0.02688
1747.42364,0.02866
1745.49492,0.03038
1743.56619,0.03223
1741.63747,0.03427
1739.70875,0.03637
1737.78002,0.03835
1735.85130,0.04046
1733.92257,0.04318
1731.99385,0.04594
1730.06513,0.04813
1728.13640,0.05007
1726.20768,0.05213
1724.27896,0.05435
1722.35023,0.05652
1720.42151,0.05863
1718.49279,0.06114
1716.56406,0.06400
1714.63534,0.06642
1712.70661,0.06836
1710.77789,0.07040
1708.84917,0.07285
1706.92044,0.07570
1704.99172,0.07861
1703.06300,0.08130
1701.13427,0.08447
1699.20555,0.08857
1697.27683,0.09290
1695.34810,0.09710
1693.41938,0.10076
1691.49065,0.10403
1689.56193,0.10753
1687.63321,0.11127
1685.70448,0.11569
1683.77576,0.12123
1681.84704,0.12617
1679.91831,0.12975
1677.98959,0.13302
1676.06087,0.13685
1674.13214,0.14102
1672.20342,0.14486
1670.27469,0.14874
1668.34597,0.15267
1666.41725,0.15579
1664.48852,0.15852
1662.55980,0.16157
1660.63108,0.16439
1658.70235,0.16648
1656.77363,0.16832
1654.84490,0.17069
1652.91618,0.17343
1650.98746,0.17513
1649.05873,0.17603
1647.13001,0.17720
1645.20129,0.17845
1643.27256,0.17928
1641.34384,0.17996
1639.41512,0.18070
1637.48639,0.18132
1635.55767,0.18153
1633.62894,0.18126
1631.70022,0.18074
1629.77150,0.18001
1627.84277,0.17891
1625.91405,0.17733
1623.98533,0.17525
1622.05660,0.17282
1620.12788,0.17050
1618.19916,0.16791
1616.27043,0.16434
1614.34171,0.16050
1612.41298,0.15717
1610.48426,0.15393
1608.55554,0.15044
1606.62681,0.14687
1604.69809,0.14346
1602.76937,0.14020
1600.84064,0.13708
1598.91192,0.13417
1596.98319,0.13140
1595.05447,0.12860
1593.12575,0.12575
1591.19702,0.12299
1589.26830,0.12043
1587.33958,0.11808
1585.41085,0.11582
1583.48213,0.11361
1581.55341,0.11159
1579.62468,0.10979
1577.69596,0.10790
1575.76723,0.10572
1573.83851,0.10385
1571.90979,0.10251
1569.98106,0.10126
1568.05234,0.09999
1566.12362,0.09891
1564.19489,0.09804
1562.26617,0.09733
1560.33745,0.09647
1558.40872,0.09515
1556.48000,0.09394
1554.55127,0.09305
1552.62255,0.09219
1550.69383,0.09121
1548.76510,0.09011
1546.83638,0.08902
1544.90766,0.08802
1542.97893,0.08686
1541.05021,0.08501
1539.12148,0.08246
1537.19276,0.08028
1535.26404,0.07852
1533.33531,0.07645
1531.40659,0.07418
1529.47787,0.07213
1527.54914,0.07001
1525.62042,0.06767
1523.69170,0.06538
1521.76297,0.06299
1519.83425,0.06052
1517.90552,0.05818
1515.97680,0.05568
1514.04808,0.05305
1512.11935,0.05079
1510.19063,0.04890
1508.26191,0.04634
1506.33318,0.04233
1504.40446,0.03871
1502.47574,0.03640
1500.54701,0.03452
1498.61829,0.03239
1496.68956,0.03008
1494.76084,0.02821
1492.83212,0.02704
1490.90339,0.02627
1488.97467,0.02561
1487.04595,0.02513
1485.11722,0.02497
1483.18850,0.02521
1481.25977,0.02589
1479.33105,0.02694
1477.40233,0.02839
1475.47360,0.03055
1473.54488,0.03381
1471.61616,0.03772
1469.68743,0.04086
1467.75871,0.04304
1465.82999,0.04480
1463.90126,0.04622
1461.97254,0.04727
1460.04381,0.04827
1458.11509,0.04945
1456.18637,0.05042
1454.25764,0.05080
1452.32892,0.05091
1450.40020,0.05113
1448.47147,0.05151
1446.54275,0.05189
1444.61403,0.05218
1442.68530,0.05241
1440.75658,0.05269
1438.82785,0.05310
1436.89913,0.05372
1434.97041,0.05443
1433.04168,0.05500
1431.11296,0.05552
1429.18424,0.05613
1427.25551,0.05691
1425.32679,0.05781
1423.39806,0.05865
1421.46934,0.05936
1419.54062,0.06020
1417.61189,0.06134
1415.68317,0.06252
1413.75445,0.06371
1411.82572,0.06504
1409.89700,0.06643
1407.96828,0.06778
1406.03955,0.06912
1404.11083,0.07026
1402.18210,0.07071
1400.25338,0.07014
1398.32466,0.06856
1396.39593,0.06626
1394.46721,0.06365
1392.53849,0.06121
1390.60976,0.05917
1388.68104,0.05741
1386.75232,0.05593
1384.82359,0.05469
1382.89487,0.05341
1380.96614,0.05190
1379.03742,0.05030
1377.10870,0.04880
1375.17997,0.04726
1373.25125,0.04559
1371.32253,0.04397
1369.39380,0.04252
1367.46508,0.04116
1365.53635,0.03977
1363.60763,0.03829
1361.67891,0.03686
1359.75018,0.03564
1357.82146,0.03461
1355.89274,0.03368
1353.96401,0.03287
1352.03529,0.03216
1350.10657,0.03151
1348.17784,0.03091
1346.24912,0.03045
1344.32039,0.03012
1342.39167,0.02975
1340.46295,0.02931
1338.53422,0.02890
1336.60550,0.02856
1334.67678,0.02829
1332.74805,0.02811
1330.81933,0.02802
1328.89061,0.02800
1326.96188,0.02799
1325.03316,0.02801
1323.10443,0.02803
1321.17571,0.02808
1319.24699,0.02822
1317.31826,0.02847
1315.38954,0.02878
1313.46082,0.02902
1311.53209,0.02913
1309.60337,0.02924
1307.67464,0.02951
1305.74592,0.02991
1303.81720,0.03034
1301.88847,0.03089
1299.95975,0.03183
1298.03103,0.03316
1296.10230,0.03469
1294.17358,0.03633
1292.24486,0.03824
1290.31613,0.04049
1288.38741,0.04310
1286.45868,0.04603
1284.52996,0.04916
1282.60124,0.05249
1280.67251,0.05621
1278.74379,0.06039
1276.81507,0.06492
1274.88634,0.06975
1272.95762,0.07507
1271.02890,0.08108
1269.10017,0.08772
1267.17145,0.09502
1265.24272,0.10323
1263.31400,0.11251
1261.38528,0.12297
1259.45655,0.13461
1257.52783,0.14719
1255.59911,0.16046
1253.67038,0.17411
1251.74166,0.18775
1249.81294,0.20113
1247.88421,0.21407
1245.95549,0.22621
1244.02676,0.23740
1242.09804,0.24777
1240.16932,0.25729
1238.24059,0.26565
1236.31187,0.27286
1234.38315,0.27938
1232.45442,0.28549
1230.52570,0.29119
1228.59697,0.29641
1226.66825,0.30105
1224.73953,0.30532
1222.81080,0.30943
1220.88208,0.31330
1218.95336,0.31683
1217.02463,0.32013
1215.09591,0.32309
1213.16719,0.32555
1211.23846,0.32787
1209.30974,0.33046
1207.38101,0.33336
1205.45229,0.33629
1203.52357,0.33911
1201.59484,0.34184
1199.66612,0.34441
1197.73740,0.34664
1195.80867,0.34842
1193.87995,0.34989
1191.95123,0.35170
1190.02250,0.35399
1188.09378,0.35630
1186.16505,0.35856
1184.23633,0.36113
1182.30761,0.36388
1180.37888,0.36645
1178.45016,0.36905
1176.52144,0.37195
1174.59271,0.37463
1172.66399,0.37680
1170.73526,0.37933
1168.80654,0.38253
1166.87782,0.38547
1164.94909,0.38777
1163.02037,0.38975
1161.09165,0.39187
1159.16292,0.39420
1157.23420,0.39647
1155.30548,0.39867
1153.37675,0.40090
1151.44803,0.40298
1149.51930,0.40495
1147.59058,0.40701
1145.66186,0.40901
1143.73313,0.41120
1141.80441,0.41377
1139.87569,0.41643
1137.94696,0.41943
1136.01824,0.42276
1134.08952,0.42538
1132.16079,0.42731
1130.23207,0.42999
1128.30334,0.43418
1126.37462,0.43941
1124.44590,0.44467
1122.51717,0.44922
1120.58845,0.45342
1118.65973,0.45842
1116.73100,0.46474
1114.80228,0.47145
1112.87355,0.47818
1110.94483,0.48573
1109.01611,0.49361
1107.08738,0.50088
1105.15866,0.50818
1103.22994,0.51563
1101.30121,0.52144
1099.37249,0.52544
1097.44377,0.52939
1095.51504,0.53315
1093.58632,0.53564
1091.65759,0.53713
1089.72887,0.53801
1087.80015,0.53818
1085.87142,0.53807
1083.94270,0.53749
1082.01398,0.53529
1080.08525,0.53148
1078.15653,0.52726
1076.22781,0.52352
1074.29908,0.52004
1072.37036,0.51638
1070.44163,0.51243
1068.51291,0.50810
1066.58419,0.50317
1064.65546,0.49703
1062.72674,0.48986
1060.79802,0.48258
1058.86929,0.47551
1056.94057,0.46871
1055.01184,0.46214
1053.08312,0.45521
1051.15440,0.44733
1049.22567,0.43848
1047.29695,0.42923
1045.36823,0.42020
1043.43950,0.41096
1041.51078,0.40117
1039.58206,0.39167
1037.65333,0.38298
1035.72461,0.37483
1033.79588,0.36652
1031.86716,0.35729
1029.93844,0.34734
1028.00971,0.33787
1026.08099,0.32945
1024.15227,0.32146
1022.22354,0.31371
1020.29482,0.30628
1018.36610,0.29877
1016.43737,0.29121
1014.50865,0.28421
1012.57992,0.27808
1010.65120,0.27271
1008.72248,0.26760
1006.79375,0.26211
1004.86503,0.25641
1002.93631,0.25102
1001.00758,0.24604
999.07886,0.24119
997.15013,0.23632
995.22141,0.23179
993.29269,0.22776
991.36396,0.22389
989.43524,0.22006
987.50652,0.21623
985.57779,0.21237
983.64907,0.20905
981.72035,0.20685
979.79162,0.20523
977.86290,0.20346
975.93417,0.20157
974.00545,0.19988
972.07673,0.19882
970.14800,0.19857
968.21928,0.19849
966.29056,0.19803
964.36183,0.19732
962.43311,0.19676
960.50439,0.19638
958.57566,0.19586
956.64694,0.19507
954.71821,0.19398
952.78949,0.19249
950.86077,0.19083
948.93204,0.18933
947.00332,0.18787
945.07460,0.18612
943.14587,0.18397
941.21715,0.18151
939.28842,0.17900
937.35970,0.17647
935.43098,0.17377
933.50225,0.17086
931.57353,0.16748
929.64481,0.16363
927.71608,0.15994
925.78736,0.15647
923.85864,0.15277
921.92991,0.14890
920.00119,0.14476
918.07246,0.14003
916.14374,0.13548
914.21502,0.13179
912.28629,0.12813
910.35757,0.12389
908.42885,0.11954
906.50012,0.11510
904.57140,0.11036
902.64268,0.10564
900.71395,0.10132
898.78523,0.09721
896.85650,0.09317
894.92778,0.08952
892.99906,0.08627
891.07033,0.08297
889.14161,0.07952
887.21289,0.07602
885.28416,0.07257
883.35544,0.06915
881.42671,0.06579
879.49799,0.06287
877.56927,0.06049
875.64054,0.05818
873.71182,0.05557
871.78310,0.05275
869.85437,0.05022
867.92565,0.04811
865.99693,0.04614
864.06820,0.04416
862.13948,0.04209
860.21075,0.04029
858.28203,0.03918
856.35331,0.03855
854.42458,0.03788
852.49586,0.03686
850.56714,0.03608
848.63841,0.03628
846.70969,0.03718
844.78097,0.03851
842.85224,0.04054
840.92352,0.04320
838.99479,0.04624
837.06607,0.04955
835.13735,0.05327
833.20862,0.05767
831.27990,0.06224
829.35118,0.06627
827.42245,0.06997
825.49373,0.07387
823.56501,0.07806
821.63628,0.08221
819.70756,0.08595
817.77883,0.08939
815.85011,0.09321
813.92139,0.09723
811.99266,0.10049
810.06394,0.10327
808.13522,0.10640
806.20649,0.10983
804.27777,0.11283
802.34904,0.11465
800.42032,0.11551
798.49160,0.11598
796.56287,0.11565
794.63415,0.11436
792.70543,0.11295
790.77670,0.11147
788.84798,0.10914
786.91926,0.10596
784.99053,0.10241
783.06181,0.09865
781.13308,0.09497
779.20436,0.09125
777.27564,0.08654
775.34691,0.08088
773.41819,0.07574
771.48947,0.07185
769.56074,0.06861
767.63202,0.06591
765.70330,0.06434
763.77457,0.06349
761.84585,0.06261
759.91712,0.06186
757.98840,0.06136
756.05968,0.06078
754.13095,0.06024
752.20223,0.06023
750.27351,0.06054
748.34478,0.06035
746.41606,0.05962
744.48733,0.05911
742.55861,0.05895
740.62989,0.05855
738.70116,0.05810
736.77244,0.05815
734.84372,0.05836
732.91499,0.05843
730.98627,0.05867
729.05755,0.05935
727.12882,0.06011
725.20010,0.06039
723.27137,0.06022
721.34265,0.06004
719.41393,0.06032
717.48520,0.06082
715.55648,0.06125
713.62776,0.06180
711.69903,0.06236
709.77031,0.06260
707.84159,0.06286
705.91286,0.06374
703.98414,0.06519
702.05541,0.06676
700.12669,0.06817
698.19797,0.06932
696.26924,0.07003
694.34052,0.07029
692.41180,0.07029
690.48307,0.07017
688.55435,0.07013
686.62562,0.07041
684.69690,0.07101
682.76818,0.07188
680.83945,0.07258
678.91073,0.07262
676.98201,0.07223
675.05328,0.07207
673.12456,0.07230
671.19584,0.07217
669.26711,0.07159
667.33839,0.07222
665.40966,0.07366
663.48094,0.07386
661.55222,0.07325
659.62349,0.07340
657.69477,0.07472
655.76605,0.07660
653.83732,0.07845
651.90860,0.08035
649.97988,0.08231
648.05115,0.08385
646.12243,0.08490
644.19370,0.08596
642.26498,0.08718
640.33626,0.08838
638.40753,0.08932
636.47881,0.08983
634.55009,0.09037
632.62136,0.09150
630.69264,0.09293
628.76391,0.09382
626.83519,0.09419
624.90647,0.09516
622.97774,0.09702
621.04902,0.09921
619.12030,0.10123
617.19157,0.10233
615.26285,0.10269
613.33413,0.10366
611.40540,0.10564
609.47668,0.10740
607.54795,0.10828
605.61923,0.10981
603.69051,0.11258
601.76178,0.11492
599.83306,0.11607
597.90434,0.11698
595.97561,0.11826
594.04689,0.11947
592.11817,0.12009
590.18944,0.12006
588.26072,0.12034
586.33199,0.12238
584.40327,0.12547
582.47455,0.12791
580.54582,0.12957
578.61710,0.13064
576.68838,0.13072
574.75965,0.12966
572.83093,0.12825
570.90220,0.12780
568.97348,0.12886
567.04476,0.13016
565.11603,0.13027
563.18731,0.13027
561.25859,0.13133
559.32986,0.13248
557.40114,0.13263
555.47242,0.13179
553.54369,0.13127
551.61497,0.13225
549.68624,0.13407
547.75752,0.13560
545.82880,0.13601
543.90007,0.13513
541.97135,0.13392
540.04263,0.13352
538.11390,0.13462
536.18518,0.13639
534.25646,0.13747
532.32773,0.13766
530.39901,0.13673
528.47028,0.13486
526.54156,0.13362
524.61284,0.13426
522.68411,0.13640
520.75539,0.13844
518.82667,0.13943
516.89794,0.14022
514.96922,0.14206
513.04049,0.14477
511.11177,0.14714
509.18305,0.14897
507.25432,0.15190
505.32560,0.15746
503.39688,0.16551
501.46815,0.17448
499.53943,0.18252
497.61071,0.18971
495.68198,0.19728
493.75326,0.20517
491.82453,0.21347
489.89581,0.22387
487.96709,0.23601
486.03836,0.24677
484.10964,0.25564
482.18092,0.26439
480.25219,0.27189
478.32347,0.27660
476.39475,0.28071
474.46602,0.28666
472.53730,0.29375
470.60857,0.30035
468.67985,0.30640
466.75113,0.31073
464.82240,0.31076
462.89368,0.30765
460.96496,0.30391
459.03623,0.29865
457.10751,0.29316
455.17878,0.29033
453.25006,0.28616
451.32134,0.27843
449.39261,0.27182
447.46389,0.26656
445.53517,0.25721
443.60644,0.24305
441.67772,0.22979
439.74900,0.22207
437.82027,0.21878
435.89155,0.21758
433.96282,0.21797
432.03410,0.21709
430.10538,0.21133
428.17665,0.20273
426.24793,0.19464
424.31921,0.18580
422.39048,0.17439
420.46176,0.16150
418.53304,0.15009
416.60431,0.14207
414.67559,0.13464
412.74686,0.12695
410.81814,0.12118
408.88942,0.11557
406.96069,0.10646
405.03197,0.09627
403.10325,0.09041
401.17452,0.08830
399.24580,0.08713
397.31708,0.08615
395.38835,0.07804
393.45963,0.06609
391.53090,0.05782
389.60218,0.04864
387.67346,0.03330
385.74473,0.01543
383.81601,0.00237
381.88729,0.00000
379.95856,-0.00574
378.02984,-0.00548
376.10111,-0.00447
374.17239,-0.00185
372.24367,0.00568
370.31494,0.01044
368.38622,0.00000
