3996.31543,0.00000
3994.38671,0.00001
3992.45799,0.00015
3990.52926,0.00035
3988.60054,0.00054
3986.67182,0.00070
3984.74309,0.00081
3982.81437,0.00088
3980.88564,0.00086
3978.95692,0.00077
3977.02820,0.00073
3975.09947,0.00073
3973.17075,0.00082
3971.24203,0.00103
3969.31330,0.00116
3967.38458,0.00113
3965.45586,0.00106
3963.52713,0.00101
3961.59841,0.00101
3959.66968,0.00102
3957.74096,0.00099
3955.81224,0.00088
3953.88351,0.00082
3951.95479,0.00087
3950.02607,0.00098
3948.09734,0.00107
3946.16862,0.00118
3944.23990,0.00132
3942.31117,0.00138
3940.38245,0.00143
3938.45372,0.00158
3936.52500,0.00177
3934.59628,0.00186
3932.66755,0.00160
3930.73883,0.00116
3928.81011,0.00111
3926.88138,0.00144
3924.95266,0.00159
3923.02393,0.00144
3921.09521,0.00130
3919.16649,0.00123
3917.23776,0.00111
3915.30904,0.00109
3913.38032,0.00125
3911.45159,0.00140
3909.52287,0.00150
3907.59415,0.00174
3905.66542,0.00200
3903.73670,0.00192
3901.80797,0.00148
3899.87925,0.00101
3897.95053,0.00095
3896.02180,0.00139
3894.09308,0.00180
3892.16436,0.00163
3890.23563,0.00128
3888.30691,0.00137
3886.37819,0.00148
3884.44946,0.00134
3882.52074,0.00138
3880.59201,0.00145
3878.66329,0.00147
3876.73457,0.00187
3874.80584,0.00233
3872.87712,0.00235
3870.94840,0.00184
3869.01967,0.00129
3867.09095,0.00138
3865.16222,0.00161
3863.23350,0.00129
3861.30478,0.00102
3859.37605,0.00149
3857.44733,0.00250
3855.51861,0.00305
3853.58988,0.00192
3851.66116,0.00019
3849.73244,0.00000
3847.80371,0.00097
3845.87499,0.00192
3843.94626,0.00235
3842.01754,0.00231
3840.08882,0.00184
3838.16009,0.00111
3836.23137,0.00075
3834.30265,0.00096
3832.37392,0.00124
3830.44520,0.00150
3828.51648,0.00181
3826.58775,0.00213
3824.65903,0.00258
3822.73030,0.00291
3820.80158,0.00258
3818.87286,0.00217
3816.94413,0.00196
3815.01541,0.00168
3813.08669,0.00186
3811.15796,0.00265
3809.22924,0.00336
3807.30052,0.00352
3805.37179,0.00364
3803.44307,0.00392
3801.51434,0.00361
3799.58562,0.00295
3797.65690,0.00276
3795.72817,0.00289
3793.79945,0.00328
3791.87073,0.00393
3789.94200,0.00451
3788.01328,0.00488
3786.08455,0.00511
3784.15583,0.00536
3782.22711,0.00566
3780.29838,0.00570
3778.36966,0.00554
3776.44094,0.00583
3774.51221,0.00667
3772.58349,0.00753
3770.65477,0.00787
3768.72604,0.00771
3766.79732,0.00766
3764.86859,0.00808
3762.93987,0.00883
3761.01115,0.00943
3759.08242,0.00961
3757.15370,0.01003
3755.22498,0.01131
3753.29625,0.01276
3751.36753,0.01322
3749.43881,0.01310
3747.51008,0.01356
3745.58136,0.01419
3743.65263,0.01447
3741.72391,0.01530
3739.79519,0.01690
3737.86646,0.01841
3735.93774,0.01928
3734.00902,0.01998
3732.08029,0.02143
3730.15157,0.02372
3728.22284,0.02624
3726.29412,0.02862
3724.36540,0.03100
3722.43667,0.03386
3720.50795,0.03752
3718.57923,0.04195
3716.65050,0.04685
3714.72178,0.05210
3712.79306,0.05778
3710.86433,0.06359
3708.93561,0.06912
3707.00688,0.07442
3705.07816,0.07956
3703.14944,0.08439
3701.22071,0.08879
3699.29199,0.09265
3697.36327,0.09589
3695.43454,0.09863
3693.50582,0.10108
3691.57710,0.10331
3689.64837,0.10529
3687.71965,0.10730
3685.79092,0.10985
3683.86220,0.11293
3681.93348,0.11633
3680.00475,0.11996
3678.07603,0.12378
3676.14731,0.12795
3674.21858,0.13233
3672.28986,0.13647
3670.36113,0.14059
3668.43241,0.14507
3666.50369,0.14957
3664.57496,0.15371
3662.64624,0.15749
3660.71752,0.16112
3658.78879,0.16481
3656.86007,0.16870
3654.93135,0.17273
3653.00262,0.17648
3651.07390,0.17975
3649.14517,0.18324
3647.21645,0.18757
3645.28773,0.19210
3643.35900,0.19613
3641.43028,0.19965
3639.50156,0.20289
3637.57283,0.20617
3635.64411,0.20961
3633.71539,0.21309
3631.78666,0.21628
3629.85794,0.21873
3627.92921,0.22039
3626.00049,0.22210
3624.07177,0.22420
3622.14304,0.22597
3620.21432,0.22656
3618.28560,0.22596
3616.35687,0.22511
3614.42815,0.22452
3612.49942,0.22420
3610.57070,0.22423
3608.64198,0.22440
3606.71325,0.22468
3604.78453,0.22529
3602.85581,0.22592
3600.92708,0.22607
3598.99836,0.22600
3597.06964,0.22622
3595.14091,0.22685
3593.21219,0.22769
3591.28346,0.22851
3589.35474,0.22903
3587.42602,0.22924
3585.49729,0.22970
3583.56857,0.23067
3581.63985,0.23174
3579.71112,0.23262
3577.78240,0.23350
3575.85368,0.23452
3573.92495,0.23559
3571.99623,0.23664
3570.06750,0.23755
3568.13878,0.23819
3566.21006,0.23874
3564.28133,0.23958
3562.35261,0.24076
3560.42389,0.24213
3558.49516,0.24353
3556.56644,0.24478
3554.63771,0.24578
3552.70899,0.24663
3550.78027,0.24748
3548.85154,0.24833
3546.92282,0.24923
3544.99410,0.25028
3543.06537,0.25149
3541.13665,0.25262
3539.20793,0.25358
3537.27920,0.25456
3535.35048,0.25570
3533.42175,0.25701
3531.49303,0.25831
3529.56431,0.25944
3527.63558,0.26044
3525.70686,0.26146
3523.77814,0.26241
3521.84941,0.26319
3519.92069,0.26395
3517.99197,0.26486
3516.06324,0.26592
3514.13452,0.26696
3512.20579,0.26791
3510.27707,0.26886
3508.34835,0.26992
3506.41962,0.27110
3504.49090,0.27229
3502.56218,0.27334
3500.63345,0.27421
3498.70473,0.27495
3496.77600,0.27579
3494.84728,0.27680
3492.91856,0.27780
3490.98983,0.27868
3489.06111,0.27954
3487.13239,0.28056
3485.20366,0.28173
3483.27494,0.28274
3481.34622,0.28345
3479.41749,0.28410
3477.48877,0.28498
3475.56004,0.28598
3473.63132,0.28685
3471.70260,0.28768
3469.77387,0.28853
3467.84515,0.28918
3465.91643,0.28963
3463.98770,0.29028
3462.05898,0.29119
3460.13026,0.29201
3458.20153,0.29262
3456.27281,0.29324
3454.34408,0.29399
3452.41536,0.29467
3450.48664,0.29510
3448.55791,0.29549
3446.62919,0.29591
3444.70047,0.29603
3442.77174,0.29599
3440.84302,0.29633
3438.91429,0.29696
3436.98557,0.29755
3435.05685,0.29807
3433.12812,0.29850
3431.19940,0.29888
3429.27068,0.29942
3427.34195,0.29996
3425.41323,0.30013
3423.48451,0.30010
3421.55578,0.30021
3419.62706,0.30046
3417.69833,0.30086
3415.76961,0.30127
3413.84089,0.30141
3411.91216,0.30138
3409.98344,0.30160
3408.05472,0.30197
3406.12599,0.30214
3404.19727,0.30220
3402.26855,0.30244
3400.33982,0.30282
3398.41110,0.30298
3396.48237,0.30286
3394.55365,0.30270
3392.62493,0.30253
3390.69620,0.30232
3388.76748,0.30222
3386.83876,0.30230
3384.91003,0.30238
3382.98131,0.30237
3381.05259,0.30219
3379.12386,0.30195
3377.19514,0.30189
3375.26641,0.30196
3373.33769,0.30185
3371.40897,0.30150
3369.48024,0.30111
3367.55152,0.30081
3365.62280,0.30055
3363.69407,0.30037
3361.76535,0.30024
3359.83662,0.29997
3357.90790,0.29958
3355.97918,0.29920
3354.05045,0.29883
3352.12173,0.29843
3350.19301,0.29804
3348.26428,0.29765
3346.33556,0.29720
3344.40684,0.29678
3342.47811,0.29656
3340.54939,0.29642
3338.62066,0.29606
3336.69194,0.29544
3334.76322,0.29491
3332.83449,0.29465
3330.90577,0.29445
3328.97705,0.29404
3327.04832,0.29339
3325.11960,0.29278
3323.19088,0.29238
3321.26215,0.29206
3319.33343,0.29163
3317.40470,0.29111
3315.47598,0.29064
3313.54726,0.29025
3311.61853,0.28989
3309.68981,0.28949
3307.76109,0.28897
3305.83236,0.28832
3303.90364,0.28770
3301.97491,0.28728
3300.04619,0.28702
3298.11747,0.28669
3296.18874,0.28618
3294.26002,0.28559
3292.33130,0.28498
3290.40257,0.28437
3288.47385,0.28381
3286.54513,0.28338
3284.61640,0.28304
3282.68768,0.28262
3280.75895,0.28204
3278.83023,0.28133
3276.90151,0.28054
3274.97278,0.27993
3273.04406,0.27961
3271.11534,0.27929
3269.18661,0.27886
3267.25789,0.27850
3265.32917,0.27819
3263.40044,0.27782
3261.47172,0.27729
3259.54299,0.27657
3257.61427,0.27588
3255.68555,0.27536
3253.75682,0.27472
3251.82810,0.27396
3249.89938,0.27343
3247.97065,0.27307
3246.04193,0.27263
3244.11320,0.27210
3242.18448,0.27157
3240.25576,0.27092
3238.32703,0.27023
3236.39831,0.26960
3234.46959,0.26895
3232.54086,0.26822
3230.61214,0.26745
3228.68342,0.26669
3226.75469,0.26596
3224.82597,0.26526
3222.89724,0.26455
3220.96852,0.26392
3219.03980,0.26335
3217.11107,0.26268
3215.18235,0.26192
3213.25363,0.26115
3211.32490,0.26032
3209.39618,0.25941
3207.46746,0.25851
3205.53873,0.25769
3203.61001,0.25692
3201.68128,0.25611
3199.75256,0.25531
3197.82384,0.25453
3195.89511,0.25367
3193.96639,0.25272
3192.03767,0.25183
3190.10894,0.25091
3188.18022,0.24984
3186.25149,0.24873
3184.32277,0.24778
3182.39405,0.24692
3180.46532,0.24597
3178.53660,0.24493
3176.60788,0.24391
3174.67915,0.24292
3172.75043,0.24190
3170.82171,0.24083
3168.89298,0.23982
3166.96426,0.23895
3165.03553,0.23808
3163.10681,0.23704
3161.17809,0.23598
3159.24936,0.23506
3157.32064,0.23417
3155.39192,0.23323
3153.46319,0.23234
3151.53447,0.23147
3149.60575,0.23051
3147.67702,0.22945
3145.74830,0.22836
3143.81957,0.22735
3141.89085,0.22648
3139.96213,0.22562
3138.03340,0.22460
3136.10468,0.22349
3134.17596,0.22243
3132.24723,0.22141
3130.31851,0.22043
3128.38978,0.21947
3126.46106,0.21847
3124.53234,0.21744
3122.60361,0.21644
3120.67489,0.21551
3118.74617,0.21465
3116.81744,0.21379
3114.88872,0.21287
3112.96000,0.21189
3111.03127,0.21091
3109.10255,0.20987
3107.17382,0.20877
3105.24510,0.20774
3103.31638,0.20681
3101.38765,0.20587
3099.45893,0.20489
3097.53021,0.20387
3095.60148,0.20289
3093.67276,0.20198
3091.74404,0.20104
3089.81531,0.19996
3087.88659,0.19883
3085.95786,0.19775
3084.02914,0.19669
3082.10042,0.19561
3080.17169,0.19454
3078.24297,0.19351
3076.31425,0.19249
3074.38552,0.19144
3072.45680,0.19042
3070.52807,0.18956
3068.59935,0.18882
3066.67063,0.18791
3064.74190,0.18664
3062.81318,0.18528
3060.88446,0.18417
3058.95573,0.18329
3057.02701,0.18245
3055.09829,0.18156
3053.16956,0.18056
3051.24084,0.17953
3049.31211,0.17859
3047.38339,0.17769
3045.45467,0.17673
3043.52594,0.17577
3041.59722,0.17486
3039.66850,0.17394
3037.73977,0.17295
3035.81105,0.17199
3033.88233,0.17106
3031.95360,0.17009
3030.02488,0.16909
3028.09615,0.16806
3026.16743,0.16702
3024.23871,0.16607
3022.30998,0.16519
3020.38126,0.16429
3018.45254,0.16339
3016.52381,0.16252
3014.59509,0.16160
3012.66636,0.16067
3010.73764,0.15987
3008.80892,0.15911
3006.88019,0.15821
3004.95147,0.15722
3003.02275,0.15638
3001.09402,0.15572
2999.16530,0.15505
2997.23658,0.15423
2995.30785,0.15337
2993.37913,0.15269
2991.45040,0.15218
2989.52168,0.15169
2987.59296,0.15120
2985.66423,0.15074
2983.73551,0.15033
2981.80679,0.14998
2979.87806,0.14972
2977.94934,0.14954
2976.02062,0.14950
2974.09189,0.14961
2972.16317,0.14971
2970.23444,0.14969
2968.30572,0.14960
2966.37700,0.14953
2964.44827,0.14954
2962.51955,0.14960
2960.59083,0.14940
2958.66210,0.14871
2956.73338,0.14771
2954.80466,0.14657
2952.87593,0.14538
2950.94721,0.14425
2949.01848,0.14333
2947.08976,0.14278
2945.16104,0.14259
2943.23231,0.14261
2941.30359,0.14280
2939.37487,0.14317
2937.44614,0.14358
2935.51742,0.14395
2933.58869,0.14441
2931.65997,0.14489
2929.73125,0.14503
2927.80252,0.14465
2925.87380,0.14386
2923.94508,0.14265
2922.01635,0.14073
2920.08763,0.13814
2918.15891,0.13555
2916.23018,0.13351
2914.30146,0.13182
2912.37273,0.13002
2910.44401,0.12819
2908.51529,0.12650
2906.58656,0.12489
2904.65784,0.12334
2902.72912,0.12186
2900.80039,0.12041
2898.87167,0.11898
2896.94295,0.11757
2895.01422,0.11619
2893.08550,0.11490
2891.15677,0.11369
2889.22805,0.11264
2887.29933,0.11179
2885.37060,0.11094
2883.44188,0.11006
2881.51316,0.10928
2879.58443,0.10866
2877.65571,0.10814
2875.72698,0.10767
2873.79826,0.10718
2871.86954,0.10654
2869.94081,0.10573
2868.01209,0.10500
2866.08337,0.10447
2864.15464,0.10404
2862.22592,0.10374
2860.29720,0.10361
2858.36847,0.10358
2856.43975,0.10355
2854.51102,0.10332
2852.58230,0.10247
2850.65358,0.10076
2848.72485,0.09845
2846.79613,0.09590
2844.86741,0.09338
2842.93868,0.09106
2841.00996,0.08905
2839.08124,0.08740
2837.15251,0.08602
2835.22379,0.08469
2833.29506,0.08333
2831.36634,0.08210
2829.43762,0.08103
2827.50889,0.08007
2825.58017,0.07916
2823.65145,0.07825
2821.72272,0.07734
2819.79400,0.07643
2817.86527,0.07560
2815.93655,0.07486
2814.00783,0.07413
2812.07910,0.07348
2810.15038,0.07288
2808.22166,0.07212
2806.29293,0.07124
2804.36421,0.07035
2802.43549,0.06952
2800.50676,0.06883
2798.57804,0.06827
2796.64931,0.06765
2794.72059,0.06695
2792.79187,0.06625
2790.86314,0.06559
2788.93442,0.06495
2787.00570,0.06428
2785.07697,0.06354
2783.14825,0.06276
2781.21953,0.06204
2779.29080,0.06147
2777.36208,0.06101
2775.43335,0.06052
2773.50463,0.05988
2771.57591,0.05912
2769.64718,0.05834
2767.71846,0.05756
2765.78974,0.05692
2763.86101,0.05644
2761.93229,0.05591
2760.00356,0.05528
2758.07484,0.05466
2756.14612,0.05411
2754.21739,0.05350
2752.28867,0.05284
2750.35995,0.05227
2748.43122,0.05169
2746.50250,0.05101
2744.57378,0.05038
2742.64505,0.04984
2740.71633,0.04934
2738.78760,0.04885
2736.85888,0.04837
2734.93016,0.04782
2733.00143,0.04716
2731.07271,0.04646
2729.14399,0.04587
2727.21526,0.04541
2725.28654,0.04502
2723.35782,0.04462
2721.42909,0.04407
2719.50037,0.04337
2717.57164,0.04268
2715.64292,0.04206
2713.71420,0.04154
2711.78547,0.04108
2709.85675,0.04058
2707.92803,0.04006
2705.99930,0.03954
2704.07058,0.03896
2702.14185,0.03840
2700.21313,0.03793
2698.28441,0.03754
2696.35568,0.03712
2694.42696,0.03662
2692.49824,0.03607
2690.56951,0.03562
2688.64079,0.03525
2686.71207,0.03480
2684.78334,0.03431
2682.85462,0.03385
2680.92589,0.03343
2678.99717,0.03302
2677.06845,0.03260
2675.13972,0.03215
2673.21100,0.03165
2671.28228,0.03112
2669.35355,0.03065
2667.42483,0.03027
2665.49611,0.02991
2663.56738,0.02957
2661.63866,0.02924
2659.70993,0.02885
2657.78121,0.02840
2655.85249,0.02790
2653.92376,0.02742
2651.99504,0.02706
2650.06632,0.02672
2648.13759,0.02628
2646.20887,0.02589
2644.28014,0.02558
2642.35142,0.02522
2640.42270,0.02483
2638.49397,0.02451
2636.56525,0.02420
2634.63653,0.02383
2632.70780,0.02345
2630.77908,0.02313
2628.85036,0.02287
2626.92163,0.02257
2624.99291,0.02220
2623.06418,0.02181
2621.13546,0.02145
2619.20674,0.02114
2617.27801,0.02088
2615.34929,0.02063
2613.42057,0.02035
2611.49184,0.02004
2609.56312,0.01976
2607.63440,0.01951
2605.70567,0.01924
2603.77695,0.01889
2601.84822,0.01855
2599.91950,0.01832
2597.99078,0.01817
2596.06205,0.01800
2594.13333,0.01776
2592.20461,0.01744
2590.27588,0.01710
2588.34716,0.01682
2586.41843,0.01660
2584.48971,0.01640
2582.56099,0.01622
2580.63226,0.01605
2578.70354,0.01584
2576.77482,0.01560
2574.84609,0.01535
2572.91737,0.01513
2570.98865,0.01496
2569.05992,0.01478
2567.13120,0.01453
2565.20247,0.01434
2563.27375,0.01419
2561.34503,0.01398
2559.41630,0.01377
2557.48758,0.01364
2555.55886,0.01354
2553.63013,0.01340
2551.70141,0.01319
2549.77269,0.01302
2547.84396,0.01291
2545.91524,0.01276
2543.98651,0.01259
2542.05779,0.01243
2540.12907,0.01225
2538.20034,0.01209
2536.27162,0.01197
2534.34290,0.01182
2532.41417,0.01166
2530.48545,0.01150
2528.55673,0.01133
2526.62800,0.01115
2524.69928,0.01098
2522.77055,0.01080
2520.84183,0.01063
2518.91311,0.01053
2516.98438,0.01048
2515.05566,0.01039
2513.12694,0.01023
2511.19821,0.01007
2509.26949,0.00994
2507.34076,0.00983
2505.41204,0.00969
2503.48332,0.00953
2501.55459,0.00936
2499.62587,0.00924
2497.69715,0.00919
2495.76842,0.00916
2493.83970,0.00905
2491.91098,0.00884
2489.98225,0.00864
2488.05353,0.00847
2486.12480,0.00834
2484.19608,0.00827
2482.26736,0.00819
2480.33863,0.00807
2478.40991,0.00798
2476.48119,0.00792
2474.55246,0.00786
2472.62374,0.00777
2470.69502,0.00762
2468.76629,0.00747
2466.83757,0.00739
2464.90884,0.00724
2462.98012,0.00702
2461.05140,0.00680
2459.12267,0.00662
2457.19395,0.00654
2455.26523,0.00653
2453.33650,0.00647
2451.40778,0.00639
2449.47905,0.00631
2447.55033,0.00616
2445.62161,0.00598
2443.69288,0.00587
2441.76416,0.00574
2439.83544,0.00563
2437.90671,0.00560
2435.97799,0.00556
2434.04927,0.00547
2432.12054,0.00534
2430.19182,0.00524
2428.26309,0.00521
2426.33437,0.00511
2424.40565,0.00490
2422.47692,0.00470
2420.54820,0.00459
2418.61948,0.00453
2416.69075,0.00447
2414.76203,0.00433
2412.83331,0.00416
2410.90458,0.00408
2408.97586,0.00404
2407.04713,0.00396
2405.11841,0.00388
2403.18969,0.00382
2401.26096,0.00373
2399.33224,0.00361
2397.40352,0.00346
2395.47479,0.00337
2393.54607,0.00335
2391.61734,0.00334
2389.68862,0.00328
2387.75990,0.00322
2385.83117,0.00319
2383.90245,0.00319
2381.97373,0.00327
2380.04500,0.00342
2378.11628,0.00353
2376.18756,0.00349
2374.25883,0.00340
2372.33011,0.00345
2370.40138,0.00357
2368.47266,0.00361
2366.54394,0.00353
2364.61521,0.00329
2362.68649,0.00300
2360.75777,0.00279
2358.82904,0.00254
2356.90032,0.00221
2354.97160,0.00197
2353.04287,0.00212
2351.11415,0.00271
2349.18542,0.00321
2347.25670,0.00306
2345.32798,0.00251
2343.39925,0.00218
2341.47053,0.00223
2339.54181,0.00242
2337.61308,0.00255
2335.68436,0.00249
2333.75563,0.00226
2331.82691,0.00192
2329.89819,0.00154
2327.96946,0.00130
2326.04074,0.00132
2324.11202,0.00143
2322.18329,0.00139
2320.25457,0.00120
2318.32585,0.00103
2316.39712,0.00094
2314.46840,0.00096
2312.53967,0.00108
2310.61095,0.00118
2308.68223,0.00115
2306.75350,0.00103
2304.82478,0.00092
2302.89606,0.00086
2300.96733,0.00083
2299.03861,0.00081
2297.10989,0.00073
2295.18116,0.00061
2293.25244,0.00051
2291.32371,0.00049
2289.39499,0.00050
2287.46627,0.00044
2285.53754,0.00039
2283.60882,0.00044
2281.68010,0.00054
2279.75137,0.00057
2277.82265,0.00047
2275.89392,0.00032
2273.96520,0.00029
2272.03648,0.00034
2270.10775,0.00031
2268.17903,0.00020
2266.25031,0.00013
2264.32158,0.00014
2262.39286,0.00014
2260.46414,0.00012
2258.53541,0.00015
2256.60669,0.00019
2254.67796,0.00012
2252.74924,0.00003
2250.82052,0.00002
2248.89179,0.00008
2246.96307,0.00007
2245.03435,-0.00005
2243.10562,-0.00011
2241.17690,-0.00008
2239.24818,-0.00003
2237.31945,-0.00003
2235.39073,-0.00007
2233.46200,-0.00009
2231.53328,-0.00008
2229.60456,-0.00005
2227.67583,-0.00002
2225.74711,-0.00003
2223.81839,-0.00008
2221.88966,-0.00008
2219.96094,-0.00008
2218.03221,-0.00014
2216.10349,-0.00017
2214.17477,-0.00007
2212.24604,0.00003
2210.31732,0.00004
2208.38860,0.00000
2206.45987,0.00000
2204.53115,-0.00003
2202.60243,-0.00007
2200.67370,-0.00008
2198.74498,-0.00009
2196.81625,-0.00010
2194.88753,-0.00012
2192.95881,-0.00015
2191.03008,-0.00020
2189.10136,-0.00026
2187.17264,-0.00031
2185.24391,-0.00035
2183.31519,-0.00034
2181.38647,-0.00029
2179.45774,-0.00024
2177.52902,-0.00026
2175.60029,-0.00027
2173.67157,-0.00019
2171.74285,-0.00015
2169.81412,-0.00022
2167.88540,-0.00026
2165.95668,-0.00019
2164.02795,-0.00011
2162.09923,-0.00006
2160.17050,0.00001
2158.24178,0.00012
2156.31306,0.00015
2154.38433,0.00008
2152.45561,-0.00000
2150.52689,0.00000
2148.59816,0.00008
2146.66944,0.00015
2144.74072,0.00016
2142.81199,0.00013
2140.88327,0.00010
2138.95454,0.00011
2137.02582,0.00017
2135.09710,0.00020
2133.16837,0.00018
2131.23965,0.00013
2129.31093,0.00012
2127.38220,0.00014
2125.45348,0.00014
2123.52476,0.00016
2121.59603,0.00020
2119.66731,0.00020
2117.73858,0.00016
2115.80986,0.00013
2113.88114,0.00015
2111.95241,0.00022
2110.02369,0.00026
2108.09497,0.00026
2106.16624,0.00024
2104.23752,0.00018
2102.30880,0.00008
2100.38007,0.00007
2098.45135,0.00015
2096.52262,0.00014
2094.59390,0.00000
2092.66518,-0.00014
2090.73645,-0.00013
2088.80773,-0.00005
2086.87901,0.00001
2084.95028,0.00002
2083.02156,-0.00003
2081.09283,-0.00008
2079.16411,-0.00013
2077.23539,-0.00018
2075.30666,-0.00020
2073.37794,-0.00018
2071.44922,-0.00021
2069.52049,-0.00028
2067.59177,-0.00030
2065.66305,-0.00030
2063.73432,-0.00031
2061.80560,-0.00029
2059.87687,-0.00023
2057.94815,-0.00015
2056.01943,-0.00005
2054.09070,0.00008
2052.16198,0.00019
2050.23326,0.00029
2048.30453,0.00042
2046.37581,0.00059
2044.44709,0.00076
2042.51836,0.00092
2040.58964,0.00108
2038.66091,0.00122
2036.73219,0.00135
2034.80347,0.00154
2032.87474,0.00184
2030.94602,0.00211
2029.01730,0.00226
2027.08857,0.00236
2025.15985,0.00250
2023.23112,0.00270
2021.30240,0.00289
2019.37368,0.00305
2017.44495,0.00319
2015.51623,0.00330
2013.58751,0.00342
2011.65878,0.00353
2009.73006,0.00360
2007.80134,0.00365
2005.87261,0.00375
2003.94389,0.00389
2002.01516,0.00404
2000.08644,0.00411
1998.15772,0.00408
1996.22899,0.00400
1994.30027,0.00393
1992.37155,0.00387
1990.44282,0.00380
1988.51410,0.00370
1986.58538,0.00363
1984.65665,0.00362
1982.72793,0.00358
1980.79920,0.00347
1978.87048,0.00336
1976.94176,0.00330
1975.01303,0.00323
1973.08431,0.00315
1971.15559,0.00308
1969.22686,0.00296
1967.29814,0.00267
1965.36941,0.00235
1963.44069,0.00220
1961.51197,0.00214
1959.58324,0.00204
1957.65452,0.00192
1955.72580,0.00179
1953.79707,0.00169
1951.86835,0.00163
1949.93963,0.00154
1948.01090,0.00139
1946.08218,0.00121
1944.15345,0.00104
1942.22473,0.00084
1940.29601,0.00067
1938.36728,0.00060
1936.43856,0.00060
1934.50984,0.00058
1932.58111,0.00051
1930.65239,0.00049
1928.72367,0.00053
1926.79494,0.00058
1924.86622,0.00062
1922.93749,0.00065
1921.00877,0.00076
1919.08005,0.00088
1917.15132,0.00098
1915.22260,0.00119
1913.29388,0.00153
1911.36515,0.00189
1909.43643,0.00224
1907.50770,0.00267
1905.57898,0.00321
1903.65026,0.00379
1901.72153,0.00433
1899.79281,0.00480
1897.86409,0.00527
1895.93536,0.00576
1894.00664,0.00626
1892.07792,0.00670
1890.14919,0.00704
1888.22047,0.00728
1886.29174,0.00756
1884.36302,0.00792
1882.43430,0.00829
1880.50557,0.00860
1878.57685,0.00884
1876.64813,0.00901
1874.71940,0.00912
1872.79068,0.00919
1870.86196,0.00910
1868.93323,0.00871
1867.00451,0.00824
1865.07578,0.00796
1863.14706,0.00774
1861.21834,0.00738
1859.28961,0.00692
1857.36089,0.00645
1855.43217,0.00598
1853.50344,0.00552
1851.57472,0.00509
1849.64599,0.00471
1847.71727,0.00425
1845.78855,0.00361
1843.85982,0.00288
1841.93110,0.00243
1840.00238,0.00227
1838.07365,0.00206
1836.14493,0.00176
1834.21621,0.00158
1832.28748,0.00141
1830.35876,0.00103
1828.43003,0.00059
1826.50131,0.00039
1824.57259,0.00031
1822.64386,0.00027
1820.71514,0.00025
1818.78642,0.00016
1816.85769,0.00006
1814.92897,0.00000
1813.00025,-0.00014
1811.07152,-0.00033
1809.14280,-0.00047
1807.21407,-0.00052
1805.28535,-0.00054
1803.35663,-0.00061
1801.42790,-0.00075
1799.49918,-0.00084
1797.57046,-0.00073
1795.64173,-0.00054
1793.71301,-0.00055
1791.78428,-0.00071
1789.85556,-0.00060
1787.92684,-0.00015
1785.99811,0.00029
1784.06939,0.00054
1782.14067,0.00071
1780.21194,0.00091
1778.28322,0.00122
1776.35450,0.00164
1774.42577,0.00192
1772.49705,0.00196
1770.56832,0.00200
1768.63960,0.00229
1766.71088,0.00274
1764.78215,0.00321
1762.85343,0.00356
1760.92471,0.00380
1758.99598,0.00411
1757.06726,0.00452
1755.13854,0.00504
1753.20981,0.00559
1751.28109,0.00591
1749.35236,0.00604
1747.42364,0.00641
1745.49492,0.00719
1743.56619,0.00816
1741.63747,0.00918
1739.70875,0.01029
1737.78002,0.01148
1735.85130,0.01267
1733.92257,0.01378
1731.99385,0.01497
1730.06513,0.01634
1728.13640,0.01780
1726.20768,0.01925
1724.27896,0.02067
1722.35023,0.02204
1720.42151,0.02334
1718.49279,0.02453
1716.56406,0.02568
1714.63534,0.02706
1712.70661,0.02881
1710.77789,0.03078
1708.84917,0.03275
1706.92044,0.03471
1704.99172,0.03672
1703.06300,0.03879
1701.13427,0.04099
1699.20555,0.04343
1697.27683,0.04621
1695.34810,0.04936
1693.41938,0.05250
1691.49065,0.05540
1689.56193,0.05825
1687.63321,0.06104
1685.70448,0.06389
1683.77576,0.06714
1681.84704,0.07053
1679.91831,0.07370
1677.98959,0.07677
1676.06087,0.07993
1674.13214,0.08304
1672.20342,0.08584
1670.27469,0.08863
1668.34597,0.09172
1666.41725,0.09470
1664.48852,0.09745
1662.55980,0.10024
1660.63108,0.10306
1658.70235,0.10558
1656.77363,0.10764
1654.84490,0.10937
1652.91618,0.11117
1650.98746,0.11313
1649.05873,0.11489
1647.13001,0.11650
1645.20129,0.11819
1643.27256,0.11986
1641.34384,0.12125
1639.41512,0.12227
1637.48639,0.12279
1635.55767,0.12286
1633.62894,0.12293
1631.70022,0.12310
1629.77150,0.12283
1627.84277,0.12187
1625.91405,0.12036
1623.98533,0.11830
1622.05660,0.11587
1620.12788,0.11345
1618.19916,0.11038
1616.27043,0.10617
1614.34171,0.10217
1612.41298,0.09894
1610.48426,0.09544
1608.55554,0.09127
1606.62681,0.08687
1604.69809,0.08260
1602.76937,0.07853
1600.84064,0.07477
1598.91192,0.07136
1596.98319,0.06817
1595.05447,0.06508
1593.12575,0.06218
1591.19702,0.05956
1589.26830,0.05721
1587.33958,0.05509
1585.41085,0.05313
1583.48213,0.05129
1581.55341,0.04964
1579.62468,0.04819
1577.69596,0.04654
1575.76723,0.04469
1573.83851,0.04350
1571.90979,0.04296
1569.98106,0.04221
1568.05234,0.04116
1566.12362,0.04036
1564.19489,0.04004
1562.26617,0.03997
1560.33745,0.03934
1558.40872,0.03768
1556.48000,0.03655
1554.55127,0.03648
1552.62255,0.03651
1550.69383,0.03623
1548.76510,0.03583
1546.83638,0.03547
1544.90766,0.03497
1542.97893,0.03399
1541.05021,0.03233
1539.12148,0.03069
1537.19276,0.03013
1535.26404,0.02995
1533.33531,0.02924
1531.40659,0.02829
1529.47787,0.02747
1527.54914,0.02642
1525.62042,0.02509
1523.69170,0.02374
1521.76297,0.02231
1519.83425,0.02105
1517.90552,0.02023
1515.97680,0.01954
1514.04808,0.01881
1512.11935,0.01799
1510.19063,0.01682
1508.26191,0.01455
1506.33318,0.01129
1504.40446,0.00905
1502.47574,0.00809
1500.54701,0.00710
1498.61829,0.00554
1496.68956,0.00388
1494.76084,0.00280
1492.83212,0.00226
1490.90339,0.00160
1488.97467,0.00065
1487.04595,0.00000
1485.11722,-0.00011
1483.18850,0.00007
1481.25977,0.00032
1479.33105,0.00071
1477.40233,0.00126
1475.47360,0.00196
1473.54488,0.00302
1471.61616,0.00467
1469.68743,0.00648
1467.75871,0.00786
1465.82999,0.00860
1463.90126,0.00900
1461.97254,0.00946
1460.04381,0.00982
1458.11509,0.00956
1456.18637,0.00895
1454.25764,0.00882
1452.32892,0.00912
1450.40020,0.00937
1448.47147,0.00940
1446.54275,0.00934
1444.61403,0.00942
1442.68530,0.00962
1440.75658,0.00978
1438.82785,0.00975
1436.89913,0.00943
1434.97041,0.00911
1433.04168,0.00909
1431.11296,0.00921
1429.18424,0.00929
1427.25551,0.00942
1425.32679,0.00960
1423.39806,0.00972
1421.46934,0.00971
1419.54062,0.00955
1417.61189,0.00952
1415.68317,0.00990
1413.75445,0.01043
1411.82572,0.01088
1409.89700,0.01130
1407.96828,0.01178
1406.03955,0.01226
1404.11083,0.01264
1402.18210,0.01284
1400.25338,0.01271
1398.32466,0.01215
1396.39593,0.01118
1394.46721,0.01000
1392.53849,0.00902
1390.60976,0.00835
1388.68104,0.00768
1386.75232,0.00691
1384.82359,0.00641
1382.89487,0.00631
1380.96614,0.00631
1379.03742,0.00618
1377.10870,0.00585
1375.17997,0.00523
1373.25125,0.00442
1371.32253,0.00372
1369.39380,0.00320
1367.46508,0.00272
1365.53635,0.00215
1363.60763,0.00134
1361.67891,0.00049
1359.75018,0.00000
1357.82146,-0.00026
1355.89274,-0.00039
1353.96401,-0.00051
1352.03529,-0.00069
1350.10657,-0.00091
1348.17784,-0.00108
1346.24912,-0.00118
1344.32039,-0.00126
1342.39167,-0.00142
1340.46295,-0.00167
1338.53422,-0.00190
1336.60550,-0.00196
1334.67678,-0.00185
1332.74805,-0.00161
1330.81933,-0.00137
1328.89061,-0.00121
1326.96188,-0.00098
1325.03316,-0.00065
1323.10443,-0.00036
1321.17571,-0.00016
1319.24699,0.00009
1317.31826,0.00050
1315.38954,0.00098
1313.46082,0.00145
1311.53209,0.00197
1309.60337,0.00256
1307.67464,0.00325
1305.74592,0.00411
1303.81720,0.00514
1301.88847,0.00623
1299.95975,0.00736
1298.03103,0.00866
1296.10230,0.01009
1294.17358,0.01160
1292.24486,0.01318
1290.31613,0.01478
1288.38741,0.01643
1286.45868,0.01839
1284.52996,0.02078
1282.60124,0.02345
1280.67251,0.02631
1278.74379,0.02944
1276.81507,0.03296
1274.88634,0.03688
1272.95762,0.04119
1271.02890,0.04594
1269.10017,0.05122
1267.17145,0.05716
1265.24272,0.06388
1263.31400,0.07143
1261.38528,0.07995
1259.45655,0.08962
1257.52783,0.10025
1255.59911,0.11154
1253.67038,0.12328
1251.74166,0.13522
1249.81294,0.14712
1247.88421,0.15871
1245.95549,0.16967
1244.02676,0.17980
1242.09804,0.18907
1240.16932,0.19738
1238.24059,0.20490
1236.31187,0.21196
1234.38315,0.21865
1232.45442,0.22474
1230.52570,0.23025
1228.59697,0.23548
1226.66825,0.24061
1224.73953,0.24543
1222.81080,0.24969
1220.88208,0.25364
1218.95336,0.25765
1217.02463,0.26170
1215.09591,0.26558
1213.16719,0.26923
1211.23846,0.27280
1209.30974,0.27632
1207.38101,0.27975
1205.45229,0.28312
1203.52357,0.28657
1201.59484,0.29011
1199.66612,0.29341
1197.73740,0.29645
1195.80867,0.29954
1193.87995,0.30265
1191.95123,0.30562
1190.02250,0.30839
1188.09378,0.31117
1186.16505,0.31416
1184.23633,0.31729
1182.30761,0.32050
1180.37888,0.32390
1178.45016,0.32724
1176.52144,0.33012
1174.59271,0.33277
1172.66399,0.33556
1170.73526,0.33858
1168.80654,0.34165
1166.87782,0.34470
1164.94909,0.34784
1163.02037,0.35087
1161.09165,0.35350
1159.16292,0.35598
1157.23420,0.35881
1155.30548,0.36191
1153.37675,0.36472
1151.44803,0.36706
1149.51930,0.36943
1147.59058,0.37228
1145.66186,0.37530
1143.73313,0.37810
1141.80441,0.38070
1139.87569,0.38328
1137.94696,0.38611
1136.01824,0.38936
1134.08952,0.39301
1132.16079,0.39678
1130.23207,0.40066
1128.30334,0.40494
1126.37462,0.40939
1124.44590,0.41361
1122.51717,0.41810
1120.58845,0.42305
1118.65973,0.42768
1116.73100,0.43197
1114.80228,0.43668
1112.87355,0.44203
1110.94483,0.44794
1109.01611,0.45403
1107.08738,0.45993
1105.15866,0.46599
1103.22994,0.47223
1101.30121,0.47769
1099.37249,0.48216
1097.44377,0.48610
1095.51504,0.48957
1093.58632,0.49252
1091.65759,0.49494
1089.72887,0.49699
1087.80015,0.49858
1085.87142,0.49967
1083.94270,0.50031
1082.01398,0.50062
1080.08525,0.50117
1078.15653,0.50176
1076.22781,0.50128
1074.29908,0.49993
1072.37036,0.49908
1070.44163,0.49863
1068.51291,0.49792
1066.58419,0.49750
1064.65546,0.49731
1062.72674,0.49671
1060.79802,0.49552
1058.86929,0.49394
1056.94057,0.49226
1055.01184,0.49046
1053.08312,0.48857
1051.15440,0.48637
1049.22567,0.48389
1047.29695,0.48130
1045.36823,0.47806
1043.43950,0.47393
1041.51078,0.46956
1039.58206,0.46501
1037.65333,0.45985
1035.72461,0.45418
1033.79588,0.44793
1031.86716,0.44104
1029.93844,0.43417
1028.00971,0.42776
1026.08099,0.42148
1024.15227,0.41474
1022.22354,0.40755
1020.29482,0.40045
1018.36610,0.39376
1016.43737,0.38728
1014.50865,0.38082
1012.57992,0.37434
1010.65120,0.36735
1008.72248,0.35960
1006.79375,0.35170
1004.86503,0.34387
1002.93631,0.33560
1001.00758,0.32694
999.07886,0.31829
997.15013,0.30955
995.22141,0.30052
993.29269,0.29153
991.36396,0.28339
989.43524,0.27638
987.50652,0.26984
985.57779,0.26312
983.64907,0.25616
981.72035,0.24949
979.79162,0.24383
977.86290,0.23910
975.93417,0.23467
974.00545,0.23026
972.07673,0.22641
970.14800,0.22353
968.21928,0.22113
966.29056,0.21856
964.36183,0.21575
962.43311,0.21300
960.50439,0.21061
958.57566,0.20860
956.64694,0.20689
954.71821,0.20534
952.78949,0.20365
950.86077,0.20177
948.93204,0.19994
947.00332,0.19812
945.07460,0.19597
943.14587,0.19371
941.21715,0.19176
939.28842,0.18972
937.35970,0.18732
935.43098,0.18505
933.50225,0.18305
931.57353,0.18113
929.64481,0.17942
927.71608,0.17791
925.78736,0.17638
923.85864,0.17481
921.92991,0.17285
920.00119,0.17030
918.07246,0.16799
916.14374,0.16631
914.21502,0.16419
912.28629,0.16071
910.35757,0.15602
908.42885,0.15071
906.50012,0.14523
904.57140,0.13961
902.64268,0.13366
900.71395,0.12758
898.78523,0.12196
896.85650,0.11710
894.92778,0.11280
892.99906,0.10861
891.07033,0.10430
889.14161,0.10018
887.21289,0.09665
885.28416,0.09364
883.35544,0.09073
881.42671,0.08775
879.49799,0.08472
877.56927,0.08155
875.64054,0.07830
873.71182,0.07519
871.78310,0.07241
869.85437,0.06982
867.92565,0.06700
865.99693,0.06414
864.06820,0.06189
862.13948,0.05995
860.21075,0.05760
858.28203,0.05502
856.35331,0.05299
854.42458,0.05164
852.49586,0.05044
850.56714,0.04944
848.63841,0.04908
846.70969,0.04918
844.78097,0.04954
842.85224,0.05017
840.92352,0.05094
838.99479,0.05206
837.06607,0.05379
835.13735,0.05571
833.20862,0.05725
831.27990,0.05871
829.35118,0.06063
827.42245,0.06288
825.49373,0.06525
823.56501,0.06775
821.63628,0.07038
819.70756,0.07351
817.77883,0.07710
815.85011,0.08053
813.92139,0.08407
811.99266,0.08816
810.06394,0.09237
808.13522,0.09677
806.20649,0.10166
804.27777,0.10642
802.34904,0.11042
800.42032,0.11332
798.49160,0.11459
796.56287,0.11432
794.63415,0.11350
792.70543,0.11270
790.77670,0.11152
788.84798,0.10954
786.91926,0.10713
784.99053,0.10488
783.06181,0.10295
781.13308,0.10087
779.20436,0.09783
777.27564,0.09383
775.34691,0.08959
773.41819,0.08553
771.48947,0.08180
769.56074,0.07868
767.63202,0.07649
765.70330,0.07505
763.77457,0.07382
761.84585,0.07278
759.91712,0.07224
757.98840,0.07200
756.05968,0.07157
754.13095,0.07091
752.20223,0.07047
750.27351,0.07027
748.34478,0.07026
746.41606,0.07048
744.48733,0.07048
742.55861,0.07002
740.62989,0.06976
738.70116,0.07005
736.77244,0.07039
734.84372,0.07029
732.91499,0.06977
730.98627,0.06956
729.05755,0.07017
727.12882,0.07096
725.20010,0.07122
723.27137,0.07120
721.34265,0.07126
719.41393,0.07150
717.48520,0.07207
715.55648,0.07291
713.62776,0.07371
711.69903,0.07433
709.77031,0.07463
707.84159,0.07462
705.91286,0.07479
703.98414,0.07572
702.05541,0.07712
700.12669,0.07821
698.19797,0.07892
696.26924,0.07967
694.34052,0.08021
692.41180,0.07988
690.48307,0.07875
688.55435,0.07766
686.62562,0.07698
684.69690,0.07651
682.76818,0.07616
680.83945,0.07580
678.91073,0.07501
676.98201,0.07370
675.05328,0.07264
673.12456,0.07267
671.19584,0.07272
669.26711,0.07133
667.33839,0.07040
665.40966,0.07145
663.48094,0.07250
661.55222,0.07280
659.62349,0.07309
657.69477,0.07352
655.76605,0.07403
653.83732,0.07489
651.90860,0.07646
649.97988,0.07872
648.05115,0.08128
646.12243,0.08387
644.19370,0.08645
642.26498,0.08906
640.33626,0.09146
638.40753,0.09318
636.47881,0.09421
634.55009,0.09498
632.62136,0.09580
630.69264,0.09658
628.76391,0.09723
626.83519,0.09821
624.90647,0.10020
622.97774,0.10244
621.04902,0.10367
619.12030,0.10428
617.19157,0.10544
615.26285,0.10720
613.33413,0.10907
611.40540,0.11102
609.47668,0.11320
607.54795,0.11581
605.61923,0.11884
603.69051,0.12161
601.76178,0.12385
599.83306,0.12621
597.90434,0.12883
595.97561,0.13102
594.04689,0.13260
592.11817,0.13425
590.18944,0.13626
588.26072,0.13826
586.33199,0.14034
584.40327,0.14260
582.47455,0.14462
580.54582,0.14642
578.61710,0.14777
576.68838,0.14832
574.75965,0.14887
572.83093,0.15020
570.90220,0.15147
568.97348,0.15161
567.04476,0.15083
565.11603,0.15017
563.18731,0.15060
561.25859,0.15231
559.32986,0.15477
557.40114,0.15761
555.47242,0.16041
553.54369,0.16296
551.61497,0.16565
549.68624,0.16884
547.75752,0.17241
545.82880,0.17574
543.90007,0.17833
541.97135,0.18092
540.04263,0.18397
538.11390,0.18614
536.18518,0.18697
534.25646,0.18812
532.32773,0.19002
530.39901,0.19110
528.47028,0.19083
526.54156,0.19072
524.61284,0.19212
522.68411,0.19372
520.75539,0.19330
518.82667,0.19111
516.89794,0.18891
514.96922,0.18744
513.04049,0.18684
511.11177,0.18711
509.18305,0.18739
507.25432,0.18758
505.32560,0.18982
503.39688,0.19500
501.46815,0.20040
499.53943,0.20407
497.61071,0.20851
495.68198,0.21545
493.75326,0.22259
491.82453,0.22812
489.89581,0.23338
487.96709,0.24083
486.03836,0.25149
484.10964,0.26398
482.18092,0.27677
480.25219,0.28865
478.32347,0.29710
476.39475,0.30145
474.46602,0.30476
472.53730,0.30963
470.60857,0.31539
468.67985,0.32035
466.75113,0.32458
464.82240,0.32664
462.89368,0.32237
460.96496,0.31229
459.03623,0.30275
457.10751,0.29802
455.17878,0.29729
453.25006,0.29795
451.32134,0.29804
449.39261,0.29565
447.46389,0.28924
445.53517,0.28057
443.60644,0.27318
441.67772,0.26720
439.74900,0.26092
437.82027,0.25476
435.89155,0.24983
433.96282,0.24557
432.03410,0.23912
430.10538,0.22945
428.17665,0.22164
426.24793,0.21842
424.31921,0.21125
422.39048,0.19410
420.46176,0.17797
418.53304,0.17460
416.60431,0.17844
414.67559,0.18146
412.74686,0.18211
410.81814,0.17707
408.88942,0.16509
406.96069,0.15195
405.03197,0.14544
403.10325,0.15048
401.17452,0.16120
399.24580,0.15393
397.31708,0.10900
395.38835,0.04686
393.45963,0.00557
391.53090,0.00000
389.60218,0.01032
387.67346,0.03650
385.74473,0.05740
383.81601,0.05559
381.88729,0.03275
379.95856,0.00911
378.02984,0.00031
376.10111,0.00847
374.17239,0.03104
372.24367,0.06082
370.31494,0.06055
368.38622,0.00000
