3996.31543,0.00000
3994.38671,0.00026
3992.45799,0.00043
3990.52926,0.00049
3988.60054,0.00055
3986.67182,0.00061
3984.74309,0.00060
3982.81437,0.00059
3980.88564,0.00065
3978.95692,0.00070
3977.02820,0.00066
3975.09947,0.00055
3973.17075,0.00046
3971.24203,0.00046
3969.31330,0.00054
3967.38458,0.00081
3965.45586,0.00118
3963.52713,0.00131
3961.59841,0.00115
3959.66968,0.00104
3957.74096,0.00108
3955.81224,0.00113
3953.88351,0.00120
3951.95479,0.00133
3950.02607,0.00133
3948.09734,0.00116
3946.16862,0.00112
3944.23990,0.00117
3942.31117,0.00099
3940.38245,0.00081
3938.45372,0.00103
3936.52500,0.00150
3934.59628,0.00178
3932.66755,0.00158
3930.73883,0.00119
3928.81011,0.00119
3926.88138,0.00156
3924.95266,0.00175
3923.02393,0.00176
3921.09521,0.00186
3919.16649,0.00177
3917.23776,0.00126
3915.30904,0.00077
3913.38032,0.00068
3911.45159,0.00102
3909.52287,0.00170
3907.59415,0.00244
3905.66542,0.00262
3903.73670,0.00200
3901.80797,0.00111
3899.87925,0.00043
3897.95053,0.00033
3896.02180,0.00110
3894.09308,0.00206
3892.16436,0.00211
3890.23563,0.00165
3888.30691,0.00179
3886.37819,0.00201
3884.44946,0.00180
3882.52074,0.00165
3880.59201,0.00135
3878.66329,0.00115
3876.73457,0.00175
3874.80584,0.00260
3872.87712,0.00291
3870.94840,0.00247
3869.01967,0.00162
3867.09095,0.00142
3865.16222,0.00160
3863.23350,0.00123
3861.30478,0.00099
3859.37605,0.00192
3857.44733,0.00379
3855.51861,0.00490
3853.58988,0.00325
3851.66116,0.00050
3849.73244,0.00000
3847.80371,0.00119
3845.87499,0.00239
3843.94626,0.00317
3842.01754,0.00379
3840.08882,0.00398
3838.16009,0.00311
3836.23137,0.00190
3834.30265,0.00153
3832.37392,0.00170
3830.44520,0.00189
3828.51648,0.00221
3826.58775,0.00282
3824.65903,0.00382
3822.73030,0.00448
3820.80158,0.00390
3818.87286,0.00308
3816.94413,0.00273
3815.01541,0.00223
3813.08669,0.00231
3811.15796,0.00355
3809.22924,0.00492
3807.30052,0.00525
3805.37179,0.00508
3803.44307,0.00521
3801.51434,0.00483
3799.58562,0.00412
3797.65690,0.00401
3795.72817,0.00405
3793.79945,0.00413
3791.87073,0.00469
3789.94200,0.00553
3788.01328,0.00621
3786.08455,0.00651
3784.15583,0.00664
3782.22711,0.00693
3780.29838,0.00705
3778.36966,0.00683
3776.44094,0.00707
3774.51221,0.00802
3772.58349,0.00896
3770.65477,0.00926
3768.72604,0.00913
3766.79732,0.00916
3764.86859,0.00957
3762.93987,0.01052
3761.01115,0.01155
3759.08242,0.01195
3757.15370,0.01229
3755.22498,0.01354
3753.29625,0.01499
3751.36753,0.01521
3749.43881,0.01484
3747.51008,0.01563
3745.58136,0.01671
3743.65263,0.01694
3741.72391,0.01780
3739.79519,0.02011
3737.86646,0.02246
3735.93774,0.02340
3734.00902,0.02328
3732.08029,0.02389
3730.15157,0.02592
3728.22284,0.02868
3726.29412,0.03124
3724.36540,0.03346
3722.43667,0.03600
3720.50795,0.03933
3718.57923,0.04348
3716.65050,0.04836
3714.72178,0.05382
3712.79306,0.05940
3710.86433,0.06453
3708.93561,0.06943
3707.00688,0.07465
3705.07816,0.08018
3703.14944,0.08550
3701.22071,0.09018
3699.29199,0.09439
3697.36327,0.09852
3695.43454,0.10261
3693.50582,0.10656
3691.57710,0.11009
3689.64837,0.11296
3687.71965,0.11584
3685.79092,0.11983
3683.86220,0.12489
3681.93348,0.13045
3680.00475,0.13609
3678.07603,0.14149
3676.14731,0.14646
3674.21858,0.15148
3672.28986,0.15700
3670.36113,0.16253
3668.43241,0.16768
3666.50369,0.17304
3664.57496,0.17883
3662.64624,0.18452
3660.71752,0.18975
3658.78879,0.19453
3656.86007,0.19896
3654.93135,0.20343
3653.00262,0.20824
3651.07390,0.21278
3649.14517,0.21633
3647.21645,0.21967
3645.28773,0.22389
3643.35900,0.22858
3641.43028,0.23303
3639.50156,0.23704
3637.57283,0.24072
3635.64411,0.24424
3633.71539,0.24776
3631.78666,0.25121
3629.85794,0.25374
3627.92921,0.25504
3626.00049,0.25655
3624.07177,0.25898
3622.14304,0.26132
3620.21432,0.26224
3618.28560,0.26166
3616.35687,0.26107
3614.42815,0.26123
3612.49942,0.26168
3610.57070,0.26201
3608.64198,0.26208
3606.71325,0.26222
3604.78453,0.26290
3602.85581,0.26379
3600.92708,0.26438
3598.99836,0.26482
3597.06964,0.26534
3595.14091,0.26576
3593.21219,0.26626
3591.28346,0.26720
3589.35474,0.26805
3587.42602,0.26822
3585.49729,0.26839
3583.56857,0.26934
3581.63985,0.27063
3579.71112,0.27169
3577.78240,0.27263
3575.85368,0.27369
3573.92495,0.27491
3571.99623,0.27634
3570.06750,0.27769
3568.13878,0.27829
3566.21006,0.27830
3564.28133,0.27891
3562.35261,0.28025
3560.42389,0.28158
3558.49516,0.28274
3556.56644,0.28395
3554.63771,0.28518
3552.70899,0.28621
3550.78027,0.28707
3548.85154,0.28803
3546.92282,0.28908
3544.99410,0.29005
3543.06537,0.29111
3541.13665,0.29243
3539.20793,0.29378
3537.27920,0.29491
3535.35048,0.29593
3533.42175,0.29709
3531.49303,0.29833
3529.56431,0.29938
3527.63558,0.30032
3525.70686,0.30134
3523.77814,0.30230
3521.84941,0.30310
3519.92069,0.30396
3517.99197,0.30513
3516.06324,0.30662
3514.13452,0.30820
3512.20579,0.30953
3510.27707,0.31061
3508.34835,0.31182
3506.41962,0.31332
3504.49090,0.31458
3502.56218,0.31522
3500.63345,0.31578
3498.70473,0.31683
3496.77600,0.31813
3494.84728,0.31942
3492.91856,0.32069
3490.98983,0.32186
3489.06111,0.32287
3487.13239,0.32387
3485.20366,0.32495
3483.27494,0.32593
3481.34622,0.32674
3479.41749,0.32762
3477.48877,0.32857
3475.56004,0.32931
3473.63132,0.33004
3471.70260,0.33115
3469.77387,0.33249
3467.84515,0.33362
3465.91643,0.33431
3463.98770,0.33474
3462.05898,0.33529
3460.13026,0.33596
3458.20153,0.33656
3456.27281,0.33726
3454.34408,0.33822
3452.41536,0.33918
3450.48664,0.33991
3448.55791,0.34039
3446.62919,0.34071
3444.70047,0.34119
3442.77174,0.34191
3440.84302,0.34254
3438.91429,0.34289
3436.98557,0.34318
3435.05685,0.34352
3433.12812,0.34372
3431.19940,0.34384
3429.27068,0.34426
3427.34195,0.34490
3425.41323,0.34540
3423.48451,0.34582
3421.55578,0.34609
3419.62706,0.34608
3417.69833,0.34611
3415.76961,0.34645
3413.84089,0.34689
3411.91216,0.34714
3409.98344,0.34734
3408.05472,0.34755
3406.12599,0.34759
3404.19727,0.34749
3402.26855,0.34735
3400.33982,0.34727
3398.41110,0.34723
3396.48237,0.34711
3394.55365,0.34691
3392.62493,0.34665
3390.69620,0.34630
3388.76748,0.34602
3386.83876,0.34592
3384.91003,0.34577
3382.98131,0.34544
3381.05259,0.34503
3379.12386,0.34477
3377.19514,0.34471
3375.26641,0.34465
3373.33769,0.34437
3371.40897,0.34389
3369.48024,0.34336
3367.55152,0.34285
3365.62280,0.34232
3363.69407,0.34176
3361.76535,0.34134
3359.83662,0.34111
3357.90790,0.34072
3355.97918,0.33989
3354.05045,0.33895
3352.12173,0.33830
3350.19301,0.33785
3348.26428,0.33741
3346.33556,0.33691
3344.40684,0.33624
3342.47811,0.33552
3340.54939,0.33501
3338.62066,0.33470
3336.69194,0.33417
3334.76322,0.33333
3332.83449,0.33251
3330.90577,0.33195
3328.97705,0.33152
3327.04832,0.33103
3325.11960,0.33040
3323.19088,0.32957
3321.26215,0.32860
3319.33343,0.32789
3317.40470,0.32754
3315.47598,0.32724
3313.54726,0.32664
3311.61853,0.32580
3309.68981,0.32508
3307.76109,0.32458
3305.83236,0.32398
3303.90364,0.32316
3301.97491,0.32235
3300.04619,0.32171
3298.11747,0.32121
3296.18874,0.32089
3294.26002,0.32065
3292.33130,0.32015
3290.40257,0.31944
3288.47385,0.31881
3286.54513,0.31820
3284.61640,0.31752
3282.68768,0.31691
3280.75895,0.31641
3278.83023,0.31592
3276.90151,0.31539
3274.97278,0.31482
3273.04406,0.31418
3271.11534,0.31348
3269.18661,0.31283
3267.25789,0.31218
3265.32917,0.31143
3263.40044,0.31065
3261.47172,0.31005
3259.54299,0.30966
3257.61427,0.30921
3255.68555,0.30848
3253.75682,0.30782
3251.82810,0.30740
3249.89938,0.30697
3247.97065,0.30635
3246.04193,0.30554
3244.11320,0.30467
3242.18448,0.30384
3240.25576,0.30311
3238.32703,0.30256
3236.39831,0.30201
3234.46959,0.30121
3232.54086,0.30024
3230.61214,0.29930
3228.68342,0.29842
3226.75469,0.29760
3224.82597,0.29681
3222.89724,0.29604
3220.96852,0.29523
3219.03980,0.29436
3217.11107,0.29342
3215.18235,0.29242
3213.25363,0.29138
3211.32490,0.29038
3209.39618,0.28940
3207.46746,0.28825
3205.53873,0.28692
3203.61001,0.28571
3201.68128,0.28478
3199.75256,0.28386
3197.82384,0.28274
3195.89511,0.28150
3193.96639,0.28030
3192.03767,0.27914
3190.10894,0.27793
3188.18022,0.27660
3186.25149,0.27525
3184.32277,0.27406
3182.39405,0.27308
3180.46532,0.27207
3178.53660,0.27082
3176.60788,0.26947
3174.67915,0.26822
3172.75043,0.26704
3170.82171,0.26590
3168.89298,0.26467
3166.96426,0.26329
3165.03553,0.26188
3163.10681,0.26057
3161.17809,0.25942
3159.24936,0.25839
3157.32064,0.25729
3155.39192,0.25601
3153.46319,0.25466
3151.53447,0.25334
3149.60575,0.25205
3147.67702,0.25074
3145.74830,0.24940
3143.81957,0.24814
3141.89085,0.24704
3139.96213,0.24597
3138.03340,0.24477
3136.10468,0.24350
3134.17596,0.24221
3132.24723,0.24090
3130.31851,0.23964
3128.38978,0.23852
3126.46106,0.23743
3124.53234,0.23623
3122.60361,0.23491
3120.67489,0.23375
3118.74617,0.23275
3116.81744,0.23155
3114.88872,0.23011
3112.96000,0.22875
3111.03127,0.22752
3109.10255,0.22626
3107.17382,0.22495
3105.24510,0.22359
3103.31638,0.22214
3101.38765,0.22069
3099.45893,0.21938
3097.53021,0.21819
3095.60148,0.21686
3093.67276,0.21525
3091.74404,0.21361
3089.81531,0.21216
3087.88659,0.21087
3085.95786,0.20961
3084.02914,0.20830
3082.10042,0.20692
3080.17169,0.20550
3078.24297,0.20413
3076.31425,0.20279
3074.38552,0.20146
3072.45680,0.20017
3070.52807,0.19893
3068.59935,0.19760
3066.67063,0.19614
3064.74190,0.19470
3062.81318,0.19333
3060.88446,0.19201
3058.95573,0.19082
3057.02701,0.18974
3055.09829,0.18860
3053.16956,0.18742
3051.24084,0.18622
3049.31211,0.18483
3047.38339,0.18335
3045.45467,0.18204
3043.52594,0.18084
3041.59722,0.17963
3039.66850,0.17844
3037.73977,0.17728
3035.81105,0.17609
3033.88233,0.17489
3031.95360,0.17374
3030.02488,0.17260
3028.09615,0.17145
3026.16743,0.17036
3024.23871,0.16928
3022.30998,0.16802
3020.38126,0.16665
3018.45254,0.16544
3016.52381,0.16445
3014.59509,0.16345
3012.66636,0.16234
3010.73764,0.16127
3008.80892,0.16023
3006.88019,0.15913
3004.95147,0.15796
3003.02275,0.15683
3001.09402,0.15575
2999.16530,0.15473
2997.23658,0.15374
2995.30785,0.15280
2993.37913,0.15189
2991.45040,0.15096
2989.52168,0.15003
2987.59296,0.14916
2985.66423,0.14835
2983.73551,0.14762
2981.80679,0.14694
2979.87806,0.14619
2977.94934,0.14537
2976.02062,0.14471
2974.09189,0.14432
2972.16317,0.14400
2970.23444,0.14356
2968.30572,0.14309
2966.37700,0.14266
2964.44827,0.14214
2962.51955,0.14150
2960.59083,0.14083
2958.66210,0.13996
2956.73338,0.13888
2954.80466,0.13777
2952.87593,0.13664
2950.94721,0.13552
2949.01848,0.13450
2947.08976,0.13364
2945.16104,0.13304
2943.23231,0.13278
2941.30359,0.13279
2939.37487,0.13292
2937.44614,0.13301
2935.51742,0.13301
2933.58869,0.13293
2931.65997,0.13277
2929.73125,0.13243
2927.80252,0.13182
2925.87380,0.13079
2923.94508,0.12916
2922.01635,0.12700
2920.08763,0.12467
2918.15891,0.12246
2916.23018,0.12051
2914.30146,0.11876
2912.37273,0.11709
2910.44401,0.11547
2908.51529,0.11388
2906.58656,0.11233
2904.65784,0.11084
2902.72912,0.10934
2900.80039,0.10781
2898.87167,0.10641
2896.94295,0.10522
2895.01422,0.10418
2893.08550,0.10311
2891.15677,0.10191
2889.22805,0.10066
2887.29933,0.09948
2885.37060,0.09847
2883.44188,0.09757
2881.51316,0.09673
2879.58443,0.09600
2877.65571,0.09540
2875.72698,0.09489
2873.79826,0.09432
2871.86954,0.09350
2869.94081,0.09249
2868.01209,0.09160
2866.08337,0.09101
2864.15464,0.09069
2862.22592,0.09047
2860.29720,0.09021
2858.36847,0.08998
2856.43975,0.08988
2854.51102,0.08964
2852.58230,0.08879
2850.65358,0.08721
2848.72485,0.08519
2846.79613,0.08296
2844.86741,0.08071
2842.93868,0.07863
2841.00996,0.07684
2839.08124,0.07529
2837.15251,0.07391
2835.22379,0.07263
2833.29506,0.07154
2831.36634,0.07057
2829.43762,0.06957
2827.50889,0.06856
2825.58017,0.06766
2823.65145,0.06688
2821.72272,0.06616
2819.79400,0.06543
2817.86527,0.06464
2815.93655,0.06378
2814.00783,0.06293
2812.07910,0.06216
2810.15038,0.06140
2808.22166,0.06057
2806.29293,0.05979
2804.36421,0.05915
2802.43549,0.05853
2800.50676,0.05782
2798.57804,0.05709
2796.64931,0.05639
2794.72059,0.05570
2792.79187,0.05498
2790.86314,0.05431
2788.93442,0.05369
2787.00570,0.05304
2785.07697,0.05237
2783.14825,0.05172
2781.21953,0.05106
2779.29080,0.05041
2777.36208,0.04981
2775.43335,0.04921
2773.50463,0.04857
2771.57591,0.04791
2769.64718,0.04720
2767.71846,0.04645
2765.78974,0.04578
2763.86101,0.04520
2761.93229,0.04460
2760.00356,0.04397
2758.07484,0.04339
2756.14612,0.04292
2754.21739,0.04245
2752.28867,0.04187
2750.35995,0.04122
2748.43122,0.04060
2746.50250,0.04001
2744.57378,0.03946
2742.64505,0.03894
2740.71633,0.03844
2738.78760,0.03788
2736.85888,0.03731
2734.93016,0.03679
2733.00143,0.03629
2731.07271,0.03578
2729.14399,0.03523
2727.21526,0.03469
2725.28654,0.03424
2723.35782,0.03377
2721.42909,0.03323
2719.50037,0.03279
2717.57164,0.03245
2715.64292,0.03207
2713.71420,0.03158
2711.78547,0.03099
2709.85675,0.03039
2707.92803,0.02982
2705.99930,0.02928
2704.07058,0.02877
2702.14185,0.02833
2700.21313,0.02792
2698.28441,0.02749
2696.35568,0.02703
2694.42696,0.02659
2692.49824,0.02621
2690.56951,0.02583
2688.64079,0.02542
2686.71207,0.02496
2684.78334,0.02450
2682.85462,0.02412
2680.92589,0.02374
2678.99717,0.02326
2677.06845,0.02277
2675.13972,0.02231
2673.21100,0.02186
2671.28228,0.02142
2669.35355,0.02107
2667.42483,0.02076
2665.49611,0.02041
2663.56738,0.01996
2661.63866,0.01948
2659.70993,0.01907
2657.78121,0.01872
2655.85249,0.01843
2653.92376,0.01818
2651.99504,0.01793
2650.06632,0.01757
2648.13759,0.01705
2646.20887,0.01651
2644.28014,0.01606
2642.35142,0.01573
2640.42270,0.01547
2638.49397,0.01522
2636.56525,0.01497
2634.63653,0.01468
2632.70780,0.01435
2630.77908,0.01406
2628.85036,0.01375
2626.92163,0.01339
2624.99291,0.01306
2623.06418,0.01275
2621.13546,0.01239
2619.20674,0.01204
2617.27801,0.01181
2615.34929,0.01164
2613.42057,0.01137
2611.49184,0.01103
2609.56312,0.01068
2607.63440,0.01037
2605.70567,0.01009
2603.77695,0.00986
2601.84822,0.00963
2599.91950,0.00935
2597.99078,0.00902
2596.06205,0.00875
2594.13333,0.00857
2592.20461,0.00838
2590.27588,0.00804
2588.34716,0.00765
2586.41843,0.00735
2584.48971,0.00717
2582.56099,0.00702
2580.63226,0.00689
2578.70354,0.00672
2576.77482,0.00654
2574.84609,0.00635
2572.91737,0.00606
2570.98865,0.00569
2569.05992,0.00543
2567.13120,0.00528
2565.20247,0.00517
2563.27375,0.00502
2561.34503,0.00484
2559.41630,0.00465
2557.48758,0.00453
2555.55886,0.00445
2553.63013,0.00427
2551.70141,0.00399
2549.77269,0.00374
2547.84396,0.00361
2545.91524,0.00356
2543.98651,0.00349
2542.05779,0.00328
2540.12907,0.00303
2538.20034,0.00290
2536.27162,0.00287
2534.34290,0.00282
2532.41417,0.00275
2530.48545,0.00266
2528.55673,0.00251
2526.62800,0.00231
2524.69928,0.00209
2522.77055,0.00184
2520.84183,0.00166
2518.91311,0.00159
2516.98438,0.00156
2515.05566,0.00153
2513.12694,0.00151
2511.19821,0.00146
2509.26949,0.00136
2507.34076,0.00124
2505.41204,0.00110
2503.48332,0.00104
2501.55459,0.00103
2499.62587,0.00096
2497.69715,0.00081
2495.76842,0.00067
2493.83970,0.00054
2491.91098,0.00038
2489.98225,0.00024
2488.05353,0.00020
2486.12480,0.00025
2484.19608,0.00031
2482.26736,0.00033
2480.33863,0.00029
2478.40991,0.00026
2476.48119,0.00027
2474.55246,0.00030
2472.62374,0.00029
2470.69502,0.00023
2468.76629,0.00017
2466.83757,0.00019
2464.90884,0.00024
2462.98012,0.00023
2461.05140,0.00014
2459.12267,0.00007
2457.19395,0.00007
2455.26523,0.00003
2453.33650,-0.00008
2451.40778,-0.00015
2449.47905,-0.00009
2447.55033,0.00004
2445.62161,0.00014
2443.69288,0.00017
2441.76416,0.00015
2439.83544,0.00009
2437.90671,0.00006
2435.97799,0.00005
2434.04927,0.00003
2432.12054,-0.00000
2430.19182,0.00000
2428.26309,0.00004
2426.33437,0.00013
2424.40565,0.00020
2422.47692,0.00019
2420.54820,0.00013
2418.61948,0.00007
2416.69075,0.00008
2414.76203,0.00015
2412.83331,0.00018
2410.90458,0.00013
2408.97586,0.00011
2407.04713,0.00019
2405.11841,0.00029
2403.18969,0.00031
2401.26096,0.00024
2399.33224,0.00014
2397.40352,0.00008
2395.47479,0.00006
2393.54607,0.00007
2391.61734,0.00013
2389.68862,0.00021
2387.75990,0.00027
2385.83117,0.00031
2383.90245,0.00038
2381.97373,0.00056
2380.04500,0.00082
2378.11628,0.00106
2376.18756,0.00122
2374.25883,0.00129
2372.33011,0.00129
2370.40138,0.00124
2368.47266,0.00111
2366.54394,0.00091
2364.61521,0.00075
2362.68649,0.00073
2360.75777,0.00071
2358.82904,0.00055
2356.90032,0.00031
2354.97160,0.00010
2353.04287,0.00000
2351.11415,0.00016
2349.18542,0.00069
2347.25670,0.00127
2345.32798,0.00149
2343.39925,0.00141
2341.47053,0.00129
2339.54181,0.00112
2337.61308,0.00090
2335.68436,0.00081
2333.75563,0.00089
2331.82691,0.00096
2329.89819,0.00087
2327.96946,0.00071
2326.04074,0.00056
2324.11202,0.00044
2322.18329,0.00037
2320.25457,0.00037
2318.32585,0.00045
2316.39712,0.00055
2314.46840,0.00064
2312.53967,0.00070
2310.61095,0.00072
2308.68223,0.00067
2306.75350,0.00060
2304.82478,0.00063
2302.89606,0.00070
2300.96733,0.00071
2299.03861,0.00065
2297.10989,0.00065
2295.18116,0.00076
2293.25244,0.00087
2291.32371,0.00088
2289.39499,0.00081
2287.46627,0.00075
2285.53754,0.00074
2283.60882,0.00076
2281.68010,0.00075
2279.75137,0.00073
2277.82265,0.00075
2275.89392,0.00082
2273.96520,0.00084
2272.03648,0.00081
2270.10775,0.00081
2268.17903,0.00085
2266.25031,0.00090
2264.32158,0.00093
2262.39286,0.00090
2260.46414,0.00085
2258.53541,0.00083
2256.60669,0.00081
2254.67796,0.00077
2252.74924,0.00074
2250.82052,0.00069
2248.89179,0.00062
2246.96307,0.00051
2245.03435,0.00044
2243.10562,0.00040
2241.17690,0.00039
2239.24818,0.00039
2237.31945,0.00039
2235.39073,0.00040
2233.46200,0.00041
2231.53328,0.00037
2229.60456,0.00029
2227.67583,0.00027
2225.74711,0.00029
2223.81839,0.00034
2221.88966,0.00042
2219.96094,0.00046
2218.03221,0.00036
2216.10349,0.00019
2214.17477,0.00008
2212.24604,0.00008
2210.31732,0.00011
2208.38860,0.00014
2206.45987,0.00017
2204.53115,0.00017
2202.60243,0.00013
2200.67370,0.00007
2198.74498,0.00005
2196.81625,0.00012
2194.88753,0.00017
2192.95881,0.00015
2191.03008,0.00014
2189.10136,0.00014
2187.17264,0.00010
2185.24391,0.00006
2183.31519,0.00006
2181.38647,0.00006
2179.45774,0.00013
2177.52902,0.00026
2175.60029,0.00026
2173.67157,0.00012
2171.74285,0.00007
2169.81412,0.00014
2167.88540,0.00017
2165.95668,0.00012
2164.02795,0.00009
2162.09923,0.00010
2160.17050,0.00013
2158.24178,0.00019
2156.31306,0.00023
2154.38433,0.00026
2152.45561,0.00025
2150.52689,0.00020
2148.59816,0.00024
2146.66944,0.00035
2144.74072,0.00039
2142.81199,0.00032
2140.88327,0.00026
2138.95454,0.00028
2137.02582,0.00032
2135.09710,0.00035
2133.16837,0.00034
2131.23965,0.00031
2129.31093,0.00029
2127.38220,0.00031
2125.45348,0.00036
2123.52476,0.00036
2121.59603,0.00025
2119.66731,0.00014
2117.73858,0.00013
2115.80986,0.00016
2113.88114,0.00018
2111.95241,0.00015
2110.02369,0.00007
2108.09497,-0.00003
2106.16624,-0.00007
2104.23752,-0.00007
2102.30880,-0.00009
2100.38007,-0.00011
2098.45135,-0.00009
2096.52262,-0.00003
2094.59390,0.00000
2092.66518,-0.00011
2090.73645,-0.00026
2088.80773,-0.00037
2086.87901,-0.00045
2084.95028,-0.00054
2083.02156,-0.00066
2081.09283,-0.00077
2079.16411,-0.00084
2077.23539,-0.00085
2075.30666,-0.00079
2073.37794,-0.00069
2071.44922,-0.00062
2069.52049,-0.00063
2067.59177,-0.00066
2065.66305,-0.00065
2063.73432,-0.00056
2061.80560,-0.00043
2059.87687,-0.00032
2057.94815,-0.00020
2056.01943,-0.00003
2054.09070,0.00018
2052.16198,0.00040
2050.23326,0.00058
2048.30453,0.00076
2046.37581,0.00104
2044.44709,0.00145
2042.51836,0.00188
2040.58964,0.00219
2038.66091,0.00247
2036.73219,0.00285
2034.80347,0.00329
2032.87474,0.00370
2030.94602,0.00413
2029.01730,0.00454
2027.08857,0.00488
2025.15985,0.00521
2023.23112,0.00555
2021.30240,0.00590
2019.37368,0.00626
2017.44495,0.00657
2015.51623,0.00688
2013.58751,0.00717
2011.65878,0.00737
2009.73006,0.00753
2007.80134,0.00773
2005.87261,0.00790
2003.94389,0.00801
2002.01516,0.00807
2000.08644,0.00813
1998.15772,0.00820
1996.22899,0.00834
1994.30027,0.00846
1992.37155,0.00843
1990.44282,0.00831
1988.51410,0.00823
1986.58538,0.00817
1984.65665,0.00810
1982.72793,0.00804
1980.79920,0.00792
1978.87048,0.00777
1976.94176,0.00762
1975.01303,0.00747
1973.08431,0.00731
1971.15559,0.00722
1969.22686,0.00713
1967.29814,0.00688
1965.36941,0.00652
1963.44069,0.00621
1961.51197,0.00601
1959.58324,0.00582
1957.65452,0.00556
1955.72580,0.00528
1953.79707,0.00507
1951.86835,0.00490
1949.93963,0.00468
1948.01090,0.00446
1946.08218,0.00432
1944.15345,0.00416
1942.22473,0.00379
1940.29601,0.00348
1938.36728,0.00342
1936.43856,0.00345
1934.50984,0.00343
1932.58111,0.00337
1930.65239,0.00335
1928.72367,0.00345
1926.79494,0.00361
1924.86622,0.00372
1922.93749,0.00379
1921.00877,0.00393
1919.08005,0.00413
1917.15132,0.00438
1915.22260,0.00490
1913.29388,0.00566
1911.36515,0.00640
1909.43643,0.00705
1907.50770,0.00774
1905.57898,0.00850
1903.65026,0.00930
1901.72153,0.01011
1899.79281,0.01094
1897.86409,0.01177
1895.93536,0.01256
1894.00664,0.01335
1892.07792,0.01417
1890.14919,0.01487
1888.22047,0.01544
1886.29174,0.01605
1884.36302,0.01667
1882.43430,0.01713
1880.50557,0.01746
1878.57685,0.01773
1876.64813,0.01792
1874.71940,0.01804
1872.79068,0.01817
1870.86196,0.01808
1868.93323,0.01746
1867.00451,0.01661
1865.07578,0.01602
1863.14706,0.01559
1861.21834,0.01500
1859.28961,0.01417
1857.36089,0.01322
1855.43217,0.01227
1853.50344,0.01136
1851.57472,0.01054
1849.64599,0.00985
1847.71727,0.00920
1845.78855,0.00828
1843.85982,0.00699
1841.93110,0.00599
1840.00238,0.00555
1838.07365,0.00517
1836.14493,0.00464
1834.21621,0.00421
1832.28748,0.00381
1830.35876,0.00312
1828.43003,0.00238
1826.50131,0.00191
1824.57259,0.00152
1822.64386,0.00118
1820.71514,0.00097
1818.78642,0.00069
1816.85769,0.00029
1814.92897,0.00000
1813.00025,-0.00017
1811.07152,-0.00038
1809.14280,-0.00063
1807.21407,-0.00079
1805.28535,-0.00083
1803.35663,-0.00090
1801.42790,-0.00112
1799.49918,-0.00136
1797.57046,-0.00132
1795.64173,-0.00105
1793.71301,-0.00107
1791.78428,-0.00151
1789.85556,-0.00169
1787.92684,-0.00126
1785.99811,-0.00073
1784.06939,-0.00045
1782.14067,-0.00034
1780.21194,-0.00026
1778.28322,-0.00001
1776.35450,0.00046
1774.42577,0.00069
1772.49705,0.00037
1770.56832,0.00010
1768.63960,0.00038
1766.71088,0.00097
1764.78215,0.00158
1762.85343,0.00194
1760.92471,0.00199
1758.99598,0.00208
1757.06726,0.00234
1755.13854,0.00276
1753.20981,0.00321
1751.28109,0.00336
1749.35236,0.00328
1747.42364,0.00358
1745.49492,0.00434
1743.56619,0.00523
1741.63747,0.00607
1739.70875,0.00698
1737.78002,0.00824
1735.85130,0.00966
1733.92257,0.01075
1731.99385,0.01175
1730.06513,0.01322
1728.13640,0.01506
1726.20768,0.01694
1724.27896,0.01876
1722.35023,0.02060
1720.42151,0.02244
1718.49279,0.02395
1716.56406,0.02508
1714.63534,0.02660
1712.70661,0.02881
1710.77789,0.03131
1708.84917,0.03375
1706.92044,0.03607
1704.99172,0.03842
1703.06300,0.04097
1701.13427,0.04371
1699.20555,0.04667
1697.27683,0.04995
1695.34810,0.05356
1693.41938,0.05725
1691.49065,0.06097
1689.56193,0.06478
1687.63321,0.06851
1685.70448,0.07210
1683.77576,0.07569
1681.84704,0.07937
1679.91831,0.08316
1677.98959,0.08696
1676.06087,0.09059
1674.13214,0.09403
1672.20342,0.09738
1670.27469,0.10078
1668.34597,0.10430
1666.41725,0.10780
1664.48852,0.11125
1662.55980,0.11466
1660.63108,0.11801
1658.70235,0.12125
1656.77363,0.12424
1654.84490,0.12662
1652.91618,0.12844
1650.98746,0.13057
1649.05873,0.13322
1647.13001,0.13572
1645.20129,0.13781
1643.27256,0.13981
1641.34384,0.14178
1639.41512,0.14345
1637.48639,0.14438
1635.55767,0.14431
1633.62894,0.14405
1631.70022,0.14419
1629.77150,0.14398
1627.84277,0.14282
1625.91405,0.14083
1623.98533,0.13803
1622.05660,0.13481
1620.12788,0.13177
1618.19916,0.12774
1616.27043,0.12174
1614.34171,0.11582
1612.41298,0.11106
1610.48426,0.10607
1608.55554,0.10023
1606.62681,0.09431
1604.69809,0.08883
1602.76937,0.08364
1600.84064,0.07869
1598.91192,0.07414
1596.98319,0.06994
1595.05447,0.06595
1593.12575,0.06224
1591.19702,0.05887
1589.26830,0.05582
1587.33958,0.05311
1585.41085,0.05069
1583.48213,0.04851
1581.55341,0.04670
1579.62468,0.04524
1577.69596,0.04337
1575.76723,0.04077
1573.83851,0.03886
1571.90979,0.03799
1569.98106,0.03696
1568.05234,0.03562
1566.12362,0.03474
1564.19489,0.03449
1562.26617,0.03464
1560.33745,0.03395
1558.40872,0.03145
1556.48000,0.02955
1554.55127,0.02934
1552.62255,0.02950
1550.69383,0.02933
1548.76510,0.02906
1546.83638,0.02903
1544.90766,0.02896
1542.97893,0.02818
1541.05021,0.02622
1539.12148,0.02402
1537.19276,0.02333
1535.26404,0.02336
1533.33531,0.02265
1531.40659,0.02157
1529.47787,0.02088
1527.54914,0.02018
1525.62042,0.01916
1523.69170,0.01793
1521.76297,0.01631
1519.83425,0.01470
1517.90552,0.01362
1515.97680,0.01281
1514.04808,0.01224
1512.11935,0.01196
1510.19063,0.01152
1508.26191,0.00987
1506.33318,0.00700
1504.40446,0.00530
1502.47574,0.00518
1500.54701,0.00500
1498.61829,0.00389
1496.68956,0.00236
1494.76084,0.00153
1492.83212,0.00151
1490.90339,0.00130
1488.97467,0.00052
1487.04595,0.00000
1485.11722,0.00012
1483.18850,0.00047
1481.25977,0.00074
1479.33105,0.00107
1477.40233,0.00157
1475.47360,0.00203
1473.54488,0.00242
1471.61616,0.00313
1469.68743,0.00436
1467.75871,0.00566
1465.82999,0.00647
1463.90126,0.00689
1461.97254,0.00751
1460.04381,0.00810
1458.11509,0.00781
1456.18637,0.00689
1454.25764,0.00670
1452.32892,0.00720
1450.40020,0.00763
1448.47147,0.00773
1446.54275,0.00776
1444.61403,0.00798
1442.68530,0.00837
1440.75658,0.00880
1438.82785,0.00903
1436.89913,0.00886
1434.97041,0.00868
1433.04168,0.00893
1431.11296,0.00934
1429.18424,0.00963
1427.25551,0.00997
1425.32679,0.01043
1423.39806,0.01098
1421.46934,0.01167
1419.54062,0.01232
1417.61189,0.01294
1415.68317,0.01390
1413.75445,0.01523
1411.82572,0.01674
1409.89700,0.01838
1407.96828,0.02014
1406.03955,0.02182
1404.11083,0.02328
1402.18210,0.02430
1400.25338,0.02449
1398.32466,0.02354
1396.39593,0.02164
1394.46721,0.01925
1392.53849,0.01699
1390.60976,0.01509
1388.68104,0.01315
1386.75232,0.01110
1384.82359,0.00953
1382.89487,0.00863
1380.96614,0.00806
1379.03742,0.00751
1377.10870,0.00683
1375.17997,0.00585
1373.25125,0.00479
1371.32253,0.00403
1369.39380,0.00356
1367.46508,0.00316
1365.53635,0.00280
1363.60763,0.00237
1361.67891,0.00184
1359.75018,0.00144
1357.82146,0.00127
1355.89274,0.00127
1353.96401,0.00139
1352.03529,0.00154
1350.10657,0.00159
1348.17784,0.00159
1346.24912,0.00173
1344.32039,0.00207
1342.39167,0.00240
1340.46295,0.00253
1338.53422,0.00256
1336.60550,0.00283
1334.67678,0.00335
1332.74805,0.00392
1330.81933,0.00443
1328.89061,0.00497
1326.96188,0.00559
1325.03316,0.00632
1323.10443,0.00715
1321.17571,0.00805
1319.24699,0.00895
1317.31826,0.00992
1315.38954,0.01106
1313.46082,0.01235
1311.53209,0.01380
1309.60337,0.01542
1307.67464,0.01708
1305.74592,0.01873
1303.81720,0.02045
1301.88847,0.02241
1299.95975,0.02465
1298.03103,0.02713
1296.10230,0.02973
1294.17358,0.03237
1292.24486,0.03517
1290.31613,0.03831
1288.38741,0.04181
1286.45868,0.04564
1284.52996,0.04983
1282.60124,0.05448
1280.67251,0.05951
1278.74379,0.06490
1276.81507,0.07087
1274.88634,0.07759
1272.95762,0.08506
1271.02890,0.09333
1269.10017,0.10244
1267.17145,0.11258
1265.24272,0.12410
1263.31400,0.13713
1261.38528,0.15162
1259.45655,0.16752
1257.52783,0.18465
1255.59911,0.20268
1253.67038,0.22113
1251.74166,0.23948
1249.81294,0.25738
1247.88421,0.27456
1245.95549,0.29068
1244.02676,0.30545
1242.09804,0.31874
1240.16932,0.33079
1238.24059,0.34200
1236.31187,0.35244
1234.38315,0.36197
1232.45442,0.37065
1230.52570,0.37857
1228.59697,0.38559
1226.66825,0.39167
1224.73953,0.39716
1222.81080,0.40256
1220.88208,0.40806
1218.95336,0.41345
1217.02463,0.41855
1215.09591,0.42350
1213.16719,0.42818
1211.23846,0.43237
1209.30974,0.43632
1207.38101,0.44037
1205.45229,0.44446
1203.52357,0.44836
1201.59484,0.45214
1199.66612,0.45600
1197.73740,0.45982
1195.80867,0.46327
1193.87995,0.46647
1191.95123,0.46967
1190.02250,0.47278
1188.09378,0.47579
1186.16505,0.47899
1184.23633,0.48245
1182.30761,0.48577
1180.37888,0.48898
1178.45016,0.49236
1176.52144,0.49568
1174.59271,0.49865
1172.66399,0.50164
1170.73526,0.50497
1168.80654,0.50811
1166.87782,0.51065
1164.94909,0.51332
1163.02037,0.51664
1161.09165,0.52000
1159.16292,0.52277
1157.23420,0.52535
1155.30548,0.52823
1153.37675,0.53122
1151.44803,0.53407
1149.51930,0.53694
1147.59058,0.53985
1145.66186,0.54267
1143.73313,0.54561
1141.80441,0.54871
1139.87569,0.55185
1137.94696,0.55527
1136.01824,0.55912
1134.08952,0.56317
1132.16079,0.56735
1130.23207,0.57190
1128.30334,0.57659
1126.37462,0.58138
1124.44590,0.58665
1122.51717,0.59226
1120.58845,0.59766
1118.65973,0.60269
1116.73100,0.60782
1114.80228,0.61345
1112.87355,0.61983
1110.94483,0.62691
1109.01611,0.63398
1107.08738,0.64069
1105.15866,0.64702
1103.22994,0.65291
1101.30121,0.65812
1099.37249,0.66269
1097.44377,0.66708
1095.51504,0.67115
1093.58632,0.67391
1091.65759,0.67504
1089.72887,0.67605
1087.80015,0.67736
1085.87142,0.67776
1083.94270,0.67739
1082.01398,0.67644
1080.08525,0.67478
1078.15653,0.67341
1076.22781,0.67222
1074.29908,0.66996
1072.37036,0.66772
1070.44163,0.66604
1068.51291,0.66350
1066.58419,0.66026
1064.65546,0.65696
1062.72674,0.65318
1060.79802,0.64930
1058.86929,0.64615
1056.94057,0.64298
1055.01184,0.63856
1053.08312,0.63316
1051.15440,0.62762
1049.22567,0.62215
1047.29695,0.61610
1045.36823,0.60908
1043.43950,0.60141
1041.51078,0.59296
1039.58206,0.58375
1037.65333,0.57421
1035.72461,0.56420
1033.79588,0.55371
1031.86716,0.54361
1029.93844,0.53380
1028.00971,0.52324
1026.08099,0.51204
1024.15227,0.50093
1022.22354,0.49006
1020.29482,0.47975
1018.36610,0.47010
1016.43737,0.46023
1014.50865,0.44972
1012.57992,0.43898
1010.65120,0.42837
1008.72248,0.41800
1006.79375,0.40750
1004.86503,0.39639
1002.93631,0.38479
1001.00758,0.37312
999.07886,0.36176
997.15013,0.35088
995.22141,0.34029
993.29269,0.32977
991.36396,0.31955
989.43524,0.30999
987.50652,0.30126
985.57779,0.29338
983.64907,0.28625
981.72035,0.27980
979.79162,0.27413
977.86290,0.26926
975.93417,0.26519
974.00545,0.26177
972.07673,0.25877
970.14800,0.25625
968.21928,0.25439
966.29056,0.25290
964.36183,0.25143
962.43311,0.25002
960.50439,0.24872
958.57566,0.24749
956.64694,0.24628
954.71821,0.24524
952.78949,0.24429
950.86077,0.24302
948.93204,0.24137
947.00332,0.23968
945.07460,0.23795
943.14587,0.23568
941.21715,0.23282
939.28842,0.23004
937.35970,0.22782
935.43098,0.22565
933.50225,0.22288
931.57353,0.21985
929.64481,0.21712
927.71608,0.21452
925.78736,0.21188
923.85864,0.20953
921.92991,0.20726
920.00119,0.20441
918.07246,0.20108
916.14374,0.19779
914.21502,0.19427
912.28629,0.18973
910.35757,0.18407
908.42885,0.17794
906.50012,0.17156
904.57140,0.16501
902.64268,0.15858
900.71395,0.15229
898.78523,0.14610
896.85650,0.14016
894.92778,0.13454
892.99906,0.12919
891.07033,0.12415
889.14161,0.11930
887.21289,0.11479
885.28416,0.11090
883.35544,0.10732
881.42671,0.10355
879.49799,0.09953
877.56927,0.09555
875.64054,0.09185
873.71182,0.08827
871.78310,0.08460
869.85437,0.08090
867.92565,0.07746
865.99693,0.07472
864.06820,0.07259
862.13948,0.07040
860.21075,0.06782
858.28203,0.06530
856.35331,0.06333
854.42458,0.06205
852.49586,0.06146
850.56714,0.06140
848.63841,0.06195
846.70969,0.06337
844.78097,0.06572
842.85224,0.06884
840.92352,0.07257
838.99479,0.07684
837.06607,0.08141
835.13735,0.08621
833.20862,0.09143
831.27990,0.09699
829.35118,0.10246
827.42245,0.10766
825.49373,0.11292
823.56501,0.11858
821.63628,0.12452
819.70756,0.13062
817.77883,0.13678
815.85011,0.14272
813.92139,0.14849
811.99266,0.15430
810.06394,0.15994
808.13522,0.16540
806.20649,0.17110
804.27777,0.17673
802.34904,0.18135
800.42032,0.18448
798.49160,0.18598
796.56287,0.18592
794.63415,0.18466
792.70543,0.18221
790.77670,0.17877
788.84798,0.17494
786.91926,0.17093
784.99053,0.16663
783.06181,0.16203
781.13308,0.15702
779.20436,0.15125
777.27564,0.14440
775.34691,0.13697
773.41819,0.12983
771.48947,0.12322
769.56074,0.11741
767.63202,0.11303
765.70330,0.11026
763.77457,0.10847
761.84585,0.10719
759.91712,0.10626
757.98840,0.10542
756.05968,0.10451
754.13095,0.10358
752.20223,0.10279
750.27351,0.10215
748.34478,0.10181
746.41606,0.10176
744.48733,0.10139
742.55861,0.10061
740.62989,0.10006
738.70116,0.09977
736.77244,0.09936
734.84372,0.09892
732.91499,0.09850
730.98627,0.09780
729.05755,0.09679
727.12882,0.09615
725.20010,0.09617
723.27137,0.09601
721.34265,0.09524
719.41393,0.09444
717.48520,0.09409
715.55648,0.09413
713.62776,0.09458
711.69903,0.09513
709.77031,0.09530
707.84159,0.09525
705.91286,0.09561
703.98414,0.09651
702.05541,0.09757
700.12669,0.09857
698.19797,0.09957
696.26924,0.10024
694.34052,0.09995
692.41180,0.09874
690.48307,0.09744
688.55435,0.09691
686.62562,0.09710
684.69690,0.09717
682.76818,0.09661
680.83945,0.09578
678.91073,0.09517
676.98201,0.09488
675.05328,0.09475
673.12456,0.09474
671.19584,0.09478
669.26711,0.09486
667.33839,0.09512
665.40966,0.09566
663.48094,0.09629
661.55222,0.09687
659.62349,0.09736
657.69477,0.09796
655.76605,0.09897
653.83732,0.10043
651.90860,0.10226
649.97988,0.10441
648.05115,0.10705
646.12243,0.11030
644.19370,0.11381
642.26498,0.11683
640.33626,0.11894
638.40753,0.12047
636.47881,0.12214
634.55009,0.12423
632.62136,0.12625
630.69264,0.12793
628.76391,0.12963
626.83519,0.13159
624.90647,0.13379
622.97774,0.13623
621.04902,0.13846
619.12030,0.14006
617.19157,0.14107
615.26285,0.14187
613.33413,0.14323
611.40540,0.14527
609.47668,0.14765
607.54795,0.15072
605.61923,0.15453
603.69051,0.15866
601.76178,0.16266
599.83306,0.16603
597.90434,0.16902
595.97561,0.17213
594.04689,0.17497
592.11817,0.17750
590.18944,0.18000
588.26072,0.18193
586.33199,0.18328
584.40327,0.18499
582.47455,0.18714
580.54582,0.18846
578.61710,0.18891
576.68838,0.19034
574.75965,0.19334
572.83093,0.19602
570.90220,0.19710
568.97348,0.19725
567.04476,0.19739
565.11603,0.19770
563.18731,0.19849
561.25859,0.20037
559.32986,0.20285
557.40114,0.20460
555.47242,0.20593
553.54369,0.20867
551.61497,0.21288
549.68624,0.21686
547.75752,0.22009
545.82880,0.22326
543.90007,0.22695
541.97135,0.23079
540.04263,0.23273
538.11390,0.23194
536.18518,0.23169
534.25646,0.23435
532.32773,0.23755
530.39901,0.23909
528.47028,0.23970
526.54156,0.24048
524.61284,0.24146
522.68411,0.24209
520.75539,0.24226
518.82667,0.24210
516.89794,0.24128
514.96922,0.24024
513.04049,0.24059
511.11177,0.24312
509.18305,0.24684
507.25432,0.25127
505.32560,0.25740
503.39688,0.26569
501.46815,0.27496
499.53943,0.28394
497.61071,0.29303
495.68198,0.30225
493.75326,0.31148
491.82453,0.32182
489.89581,0.33310
487.96709,0.34478
486.03836,0.35782
484.10964,0.37194
482.18092,0.38559
480.25219,0.39820
478.32347,0.40961
476.39475,0.42020
474.46602,0.43111
472.53730,0.44178
470.60857,0.44950
468.67985,0.45395
466.75113,0.45737
464.82240,0.45814
462.89368,0.45272
460.96496,0.44176
459.03623,0.42930
457.10751,0.42027
455.17878,0.41537
453.25006,0.41007
451.32134,0.40192
449.39261,0.39220
447.46389,0.38271
445.53517,0.37443
443.60644,0.36676
441.67772,0.35932
439.74900,0.35360
437.82027,0.34897
435.89155,0.34227
433.96282,0.33344
432.03410,0.32470
430.10538,0.31589
428.17665,0.30702
426.24793,0.29987
424.31921,0.29163
422.39048,0.27787
420.46176,0.26112
418.53304,0.24597
416.60431,0.23366
414.67559,0.22423
412.74686,0.21641
410.81814,0.20450
408.88942,0.18749
406.96069,0.17728
405.03197,0.17908
403.10325,0.18017
401.17452,0.17070
399.24580,0.15668
397.31708,0.14532
395.38835,0.13602
393.45963,0.13369
391.53090,0.14118
389.60218,0.14481
387.67346,0.12960
385.74473,0.10673
383.81601,0.09708
381.88729,0.09606
379.95856,0.09502
378.02984,0.08503
376.10111,0.04693
374.17239,0.00054
372.24367,0.00000
370.31494,0.00759
368.38622,0.00000
