3996.31543,0.00017
3994.38671,0.00004
3992.45799,0.00000
3990.52926,0.00009
3988.60054,0.00025
3986.67182,0.00029
3984.74309,0.00025
3982.81437,0.00031
3980.88564,0.00049
3978.95692,0.00066
3977.02820,0.00070
3975.09947,0.00066
3973.17075,0.00063
3971.24203,0.00061
3969.31330,0.00062
3967.38458,0.00070
3965.45586,0.00080
3963.52713,0.00077
3961.59841,0.00077
3959.66968,0.00096
3957.74096,0.00119
3955.81224,0.00134
3953.88351,0.00138
3951.95479,0.00125
3950.02607,0.00110
3948.09734,0.00133
3946.16862,0.00174
3944.23990,0.00164
3942.31117,0.00133
3940.38245,0.00145
3938.45372,0.00175
3936.52500,0.00196
3934.59628,0.00191
3932.66755,0.00168
3930.73883,0.00170
3928.81011,0.00194
3926.88138,0.00181
3924.95266,0.00152
3923.02393,0.00170
3921.09521,0.00196
3919.16649,0.00180
3917.23776,0.00154
3915.30904,0.00159
3913.38032,0.00174
3911.45159,0.00188
3909.52287,0.00232
3907.59415,0.00273
3905.66542,0.00258
3903.73670,0.00231
3901.80797,0.00220
3899.87925,0.00201
3897.95053,0.00231
3896.02180,0.00281
3894.09308,0.00242
3892.16436,0.00160
3890.23563,0.00188
3888.30691,0.00239
3886.37819,0.00204
3884.44946,0.00223
3882.52074,0.00248
3880.59201,0.00215
3878.66329,0.00253
3876.73457,0.00284
3874.80584,0.00263
3872.87712,0.00271
3870.94840,0.00248
3869.01967,0.00263
3867.09095,0.00317
3865.16222,0.00272
3863.23350,0.00232
3861.30478,0.00283
3859.37605,0.00393
3857.44733,0.00465
3855.51861,0.00352
3853.58988,0.00140
3851.66116,0.00148
3849.73244,0.00276
3847.80371,0.00347
3845.87499,0.00351
3843.94626,0.00344
3842.01754,0.00350
3840.08882,0.00318
3838.16009,0.00291
3836.23137,0.00340
3834.30265,0.00377
3832.37392,0.00355
3830.44520,0.00358
3828.51648,0.00383
3826.58775,0.00440
3824.65903,0.00527
3822.73030,0.00490
3820.80158,0.00430
3818.87286,0.00464
3816.94413,0.00398
3815.01541,0.00364
3813.08669,0.00459
3811.15796,0.00523
3809.22924,0.00497
3807.30052,0.00484
3805.37179,0.00595
3803.44307,0.00623
3801.51434,0.00549
3799.58562,0.00589
3797.65690,0.00607
3795.72817,0.00585
3793.79945,0.00609
3791.87073,0.00632
3789.94200,0.00658
3788.01328,0.00687
3786.08455,0.00698
3784.15583,0.00733
3782.22711,0.00776
3780.29838,0.00767
3778.36966,0.00789
3776.44094,0.00867
3774.51221,0.00932
3772.58349,0.00957
3770.65477,0.00968
3768.72604,0.01029
3766.79732,0.01085
3764.86859,0.01125
3762.93987,0.01177
3761.01115,0.01179
3759.08242,0.01202
3757.15370,0.01328
3755.22498,0.01447
3753.29625,0.01444
3751.36753,0.01426
3749.43881,0.01590
3747.51008,0.01766
3745.58136,0.01725
3743.65263,0.01747
3741.72391,0.01973
3739.79519,0.02146
3737.86646,0.02185
3735.93774,0.02190
3734.00902,0.02290
3732.08029,0.02500
3730.15157,0.02751
3728.22284,0.02946
3726.29412,0.03118
3724.36540,0.03357
3722.43667,0.03656
3720.50795,0.04015
3718.57923,0.04439
3716.65050,0.04903
3714.72178,0.05344
3712.79306,0.05793
3710.86433,0.06392
3708.93561,0.07077
3707.00688,0.07659
3705.07816,0.08097
3703.14944,0.08469
3701.22071,0.08911
3699.29199,0.09409
3697.36327,0.09833
3695.43454,0.10189
3693.50582,0.10486
3691.57710,0.10718
3689.64837,0.10999
3687.71965,0.11453
3685.79092,0.11969
3683.86220,0.12407
3681.93348,0.12817
3680.00475,0.13260
3678.07603,0.13700
3676.14731,0.14194
3674.21858,0.14884
3672.28986,0.15467
3670.36113,0.15865
3668.43241,0.16410
3666.50369,0.16997
3664.57496,0.17459
3662.64624,0.17888
3660.71752,0.18337
3658.78879,0.18753
3656.86007,0.19181
3654.93135,0.19724
3653.00262,0.20195
3651.07390,0.20477
3649.14517,0.20819
3647.21645,0.21316
3645.28773,0.21795
3643.35900,0.22157
3641.43028,0.22487
3639.50156,0.22858
3637.57283,0.23242
3635.64411,0.23602
3633.71539,0.23942
3631.78666,0.24187
3629.85794,0.24282
3627.92921,0.24472
3626.00049,0.24801
3624.07177,0.25032
3622.14304,0.25102
3620.21432,0.25071
3618.28560,0.25063
3616.35687,0.25074
3614.42815,0.25030
3612.49942,0.25008
3610.57070,0.25012
3608.64198,0.24986
3606.71325,0.25007
3604.78453,0.25071
3602.85581,0.25103
3600.92708,0.25123
3598.99836,0.25161
3597.06964,0.25170
3595.14091,0.25164
3593.21219,0.25227
3591.28346,0.25324
3589.35474,0.25325
3587.42602,0.25293
3585.49729,0.25371
3583.56857,0.25494
3581.63985,0.25587
3579.71112,0.25665
3577.78240,0.25728
3575.85368,0.25773
3573.92495,0.25846
3571.99623,0.25960
3570.06750,0.26026
3568.13878,0.26014
3566.21006,0.26065
3564.28133,0.26236
3562.35261,0.26407
3560.42389,0.26530
3558.49516,0.26629
3556.56644,0.26718
3554.63771,0.26792
3552.70899,0.26873
3550.78027,0.26980
3548.85154,0.27068
3546.92282,0.27129
3544.99410,0.27226
3543.06537,0.27360
3541.13665,0.27467
3539.20793,0.27534
3537.27920,0.27610
3535.35048,0.27740
3533.42175,0.27876
3531.49303,0.27958
3529.56431,0.28012
3527.63558,0.28084
3525.70686,0.28177
3523.77814,0.28285
3521.84941,0.28412
3519.92069,0.28526
3517.99197,0.28618
3516.06324,0.28729
3514.13452,0.28868
3512.20579,0.28998
3510.27707,0.29104
3508.34835,0.29219
3506.41962,0.29325
3504.49090,0.29393
3502.56218,0.29481
3500.63345,0.29603
3498.70473,0.29708
3496.77600,0.29799
3494.84728,0.29910
3492.91856,0.30039
3490.98983,0.30168
3489.06111,0.30290
3487.13239,0.30406
3485.20366,0.30492
3483.27494,0.30530
3481.34622,0.30577
3479.41749,0.30669
3477.48877,0.30773
3475.56004,0.30860
3473.63132,0.30936
3471.70260,0.31025
3469.77387,0.31135
3467.84515,0.31235
3465.91643,0.31299
3463.98770,0.31343
3462.05898,0.31400
3460.13026,0.31478
3458.20153,0.31568
3456.27281,0.31661
3454.34408,0.31739
3452.41536,0.31808
3450.48664,0.31877
3448.55791,0.31925
3446.62919,0.31965
3444.70047,0.31999
3442.77174,0.32014
3440.84302,0.32058
3438.91429,0.32122
3436.98557,0.32178
3435.05685,0.32234
3433.12812,0.32270
3431.19940,0.32271
3429.27068,0.32278
3427.34195,0.32321
3425.41323,0.32367
3423.48451,0.32387
3421.55578,0.32399
3419.62706,0.32428
3417.69833,0.32458
3415.76961,0.32475
3413.84089,0.32498
3411.91216,0.32518
3409.98344,0.32513
3408.05472,0.32490
3406.12599,0.32474
3404.19727,0.32483
3402.26855,0.32504
3400.33982,0.32511
3398.41110,0.32502
3396.48237,0.32501
3394.55365,0.32497
3392.62493,0.32474
3390.69620,0.32447
3388.76748,0.32420
3386.83876,0.32383
3384.91003,0.32329
3382.98131,0.32267
3381.05259,0.32220
3379.12386,0.32182
3377.19514,0.32138
3375.26641,0.32101
3373.33769,0.32080
3371.40897,0.32058
3369.48024,0.32028
3367.55152,0.31986
3365.62280,0.31941
3363.69407,0.31908
3361.76535,0.31871
3359.83662,0.31809
3357.90790,0.31734
3355.97918,0.31676
3354.05045,0.31634
3352.12173,0.31569
3350.19301,0.31478
3348.26428,0.31388
3346.33556,0.31319
3344.40684,0.31277
3342.47811,0.31239
3340.54939,0.31175
3338.62066,0.31083
3336.69194,0.30980
3334.76322,0.30901
3332.83449,0.30855
3330.90577,0.30809
3328.97705,0.30744
3327.04832,0.30667
3325.11960,0.30571
3323.19088,0.30475
3321.26215,0.30421
3319.33343,0.30401
3317.40470,0.30368
3315.47598,0.30307
3313.54726,0.30243
3311.61853,0.30191
3309.68981,0.30132
3307.76109,0.30062
3305.83236,0.29993
3303.90364,0.29916
3301.97491,0.29829
3300.04619,0.29752
3298.11747,0.29698
3296.18874,0.29663
3294.26002,0.29627
3292.33130,0.29564
3290.40257,0.29478
3288.47385,0.29401
3286.54513,0.29351
3284.61640,0.29313
3282.68768,0.29264
3280.75895,0.29204
3278.83023,0.29148
3276.90151,0.29097
3274.97278,0.29040
3273.04406,0.28981
3271.11534,0.28923
3269.18661,0.28862
3267.25789,0.28796
3265.32917,0.28744
3263.40044,0.28706
3261.47172,0.28656
3259.54299,0.28587
3257.61427,0.28517
3255.68555,0.28459
3253.75682,0.28407
3251.82810,0.28345
3249.89938,0.28277
3247.97065,0.28221
3246.04193,0.28173
3244.11320,0.28126
3242.18448,0.28082
3240.25576,0.28030
3238.32703,0.27957
3236.39831,0.27872
3234.46959,0.27792
3232.54086,0.27719
3230.61214,0.27646
3228.68342,0.27571
3226.75469,0.27485
3224.82597,0.27381
3222.89724,0.27280
3220.96852,0.27199
3219.03980,0.27129
3217.11107,0.27056
3215.18235,0.26973
3213.25363,0.26888
3211.32490,0.26799
3209.39618,0.26698
3207.46746,0.26589
3205.53873,0.26487
3203.61001,0.26394
3201.68128,0.26289
3199.75256,0.26169
3197.82384,0.26067
3195.89511,0.25982
3193.96639,0.25880
3192.03767,0.25756
3190.10894,0.25633
3188.18022,0.25521
3186.25149,0.25417
3184.32277,0.25311
3182.39405,0.25195
3180.46532,0.25060
3178.53660,0.24922
3176.60788,0.24811
3174.67915,0.24708
3172.75043,0.24582
3170.82171,0.24457
3168.89298,0.24356
3166.96426,0.24259
3165.03553,0.24133
3163.10681,0.23995
3161.17809,0.23880
3159.24936,0.23778
3157.32064,0.23670
3155.39192,0.23563
3153.46319,0.23461
3151.53447,0.23350
3149.60575,0.23225
3147.67702,0.23101
3145.74830,0.22984
3143.81957,0.22874
3141.89085,0.22768
3139.96213,0.22654
3138.03340,0.22528
3136.10468,0.22393
3134.17596,0.22265
3132.24723,0.22163
3130.31851,0.22077
3128.38978,0.21979
3126.46106,0.21867
3124.53234,0.21744
3122.60361,0.21617
3120.67489,0.21510
3118.74617,0.21401
3116.81744,0.21265
3114.88872,0.21127
3112.96000,0.21007
3111.03127,0.20897
3109.10255,0.20785
3107.17382,0.20668
3105.24510,0.20541
3103.31638,0.20403
3101.38765,0.20257
3099.45893,0.20118
3097.53021,0.19985
3095.60148,0.19859
3093.67276,0.19746
3091.74404,0.19638
3089.81531,0.19521
3087.88659,0.19391
3085.95786,0.19254
3084.02914,0.19120
3082.10042,0.18994
3080.17169,0.18865
3078.24297,0.18731
3076.31425,0.18599
3074.38552,0.18474
3072.45680,0.18357
3070.52807,0.18242
3068.59935,0.18125
3066.67063,0.18005
3064.74190,0.17881
3062.81318,0.17752
3060.88446,0.17623
3058.95573,0.17495
3057.02701,0.17376
3055.09829,0.17265
3053.16956,0.17152
3051.24084,0.17030
3049.31211,0.16911
3047.38339,0.16798
3045.45467,0.16689
3043.52594,0.16580
3041.59722,0.16471
3039.66850,0.16365
3037.73977,0.16259
3035.81105,0.16148
3033.88233,0.16027
3031.95360,0.15901
3030.02488,0.15788
3028.09615,0.15682
3026.16743,0.15573
3024.23871,0.15471
3022.30998,0.15373
3020.38126,0.15276
3018.45254,0.15183
3016.52381,0.15086
3014.59509,0.14981
3012.66636,0.14869
3010.73764,0.14755
3008.80892,0.14652
3006.88019,0.14553
3004.95147,0.14448
3003.02275,0.14339
3001.09402,0.14232
2999.16530,0.14130
2997.23658,0.14035
2995.30785,0.13948
2993.37913,0.13866
2991.45040,0.13775
2989.52168,0.13680
2987.59296,0.13591
2985.66423,0.13504
2983.73551,0.13407
2981.80679,0.13313
2979.87806,0.13238
2977.94934,0.13165
2976.02062,0.13076
2974.09189,0.12980
2972.16317,0.12892
2970.23444,0.12813
2968.30572,0.12741
2966.37700,0.12671
2964.44827,0.12607
2962.51955,0.12534
2960.59083,0.12436
2958.66210,0.12331
2956.73338,0.12237
2954.80466,0.12138
2952.87593,0.12028
2950.94721,0.11918
2949.01848,0.11822
2947.08976,0.11744
2945.16104,0.11676
2943.23231,0.11613
2941.30359,0.11565
2939.37487,0.11539
2937.44614,0.11523
2935.51742,0.11504
2933.58869,0.11484
2931.65997,0.11456
2929.73125,0.11396
2927.80252,0.11298
2925.87380,0.11178
2923.94508,0.11031
2922.01635,0.10833
2920.08763,0.10602
2918.15891,0.10386
2916.23018,0.10210
2914.30146,0.10068
2912.37273,0.09930
2910.44401,0.09776
2908.51529,0.09621
2906.58656,0.09488
2904.65784,0.09368
2902.72912,0.09243
2900.80039,0.09116
2898.87167,0.08997
2896.94295,0.08876
2895.01422,0.08751
2893.08550,0.08638
2891.15677,0.08545
2889.22805,0.08464
2887.29933,0.08379
2885.37060,0.08283
2883.44188,0.08185
2881.51316,0.08098
2879.58443,0.08027
2877.65571,0.07966
2875.72698,0.07906
2873.79826,0.07848
2871.86954,0.07790
2869.94081,0.07723
2868.01209,0.07652
2866.08337,0.07591
2864.15464,0.07548
2862.22592,0.07516
2860.29720,0.07489
2858.36847,0.07462
2856.43975,0.07424
2854.51102,0.07376
2852.58230,0.07306
2850.65358,0.07197
2848.72485,0.07051
2846.79613,0.06884
2844.86741,0.06722
2842.93868,0.06579
2841.00996,0.06447
2839.08124,0.06317
2837.15251,0.06192
2835.22379,0.06085
2833.29506,0.05996
2831.36634,0.05909
2829.43762,0.05821
2827.50889,0.05747
2825.58017,0.05688
2823.65145,0.05625
2821.72272,0.05551
2819.79400,0.05473
2817.86527,0.05405
2815.93655,0.05352
2814.00783,0.05304
2812.07910,0.05247
2810.15038,0.05178
2808.22166,0.05108
2806.29293,0.05054
2804.36421,0.05009
2802.43549,0.04955
2800.50676,0.04888
2798.57804,0.04824
2796.64931,0.04772
2794.72059,0.04722
2792.79187,0.04660
2790.86314,0.04587
2788.93442,0.04517
2787.00570,0.04460
2785.07697,0.04411
2783.14825,0.04359
2781.21953,0.04302
2779.29080,0.04249
2777.36208,0.04198
2775.43335,0.04141
2773.50463,0.04082
2771.57591,0.04024
2769.64718,0.03967
2767.71846,0.03911
2765.78974,0.03855
2763.86101,0.03797
2761.93229,0.03734
2760.00356,0.03672
2758.07484,0.03614
2756.14612,0.03561
2754.21739,0.03514
2752.28867,0.03467
2750.35995,0.03416
2748.43122,0.03368
2746.50250,0.03321
2744.57378,0.03270
2742.64505,0.03213
2740.71633,0.03156
2738.78760,0.03104
2736.85888,0.03056
2734.93016,0.03007
2733.00143,0.02960
2731.07271,0.02914
2729.14399,0.02864
2727.21526,0.02814
2725.28654,0.02761
2723.35782,0.02710
2721.42909,0.02668
2719.50037,0.02627
2717.57164,0.02592
2715.64292,0.02565
2713.71420,0.02527
2711.78547,0.02475
2709.85675,0.02427
2707.92803,0.02394
2705.99930,0.02365
2704.07058,0.02325
2702.14185,0.02274
2700.21313,0.02226
2698.28441,0.02183
2696.35568,0.02150
2694.42696,0.02119
2692.49824,0.02082
2690.56951,0.02042
2688.64079,0.02004
2686.71207,0.01970
2684.78334,0.01939
2682.85462,0.01910
2680.92589,0.01883
2678.99717,0.01856
2677.06845,0.01819
2675.13972,0.01781
2673.21100,0.01746
2671.28228,0.01708
2669.35355,0.01668
2667.42483,0.01636
2665.49611,0.01611
2663.56738,0.01584
2661.63866,0.01552
2659.70993,0.01514
2657.78121,0.01476
2655.85249,0.01446
2653.92376,0.01422
2651.99504,0.01396
2650.06632,0.01367
2648.13759,0.01336
2646.20887,0.01304
2644.28014,0.01277
2642.35142,0.01259
2640.42270,0.01238
2638.49397,0.01211
2636.56525,0.01184
2634.63653,0.01154
2632.70780,0.01115
2630.77908,0.01075
2628.85036,0.01040
2626.92163,0.01006
2624.99291,0.00982
2623.06418,0.00968
2621.13546,0.00954
2619.20674,0.00936
2617.27801,0.00915
2615.34929,0.00889
2613.42057,0.00863
2611.49184,0.00838
2609.56312,0.00815
2607.63440,0.00793
2605.70567,0.00777
2603.77695,0.00761
2601.84822,0.00740
2599.91950,0.00715
2597.99078,0.00691
2596.06205,0.00670
2594.13333,0.00650
2592.20461,0.00627
2590.27588,0.00603
2588.34716,0.00585
2586.41843,0.00575
2584.48971,0.00566
2582.56099,0.00551
2580.63226,0.00526
2578.70354,0.00497
2576.77482,0.00476
2574.84609,0.00463
2572.91737,0.00449
2570.98865,0.00426
2569.05992,0.00406
2567.13120,0.00396
2565.20247,0.00390
2563.27375,0.00375
2561.34503,0.00348
2559.41630,0.00326
2557.48758,0.00314
2555.55886,0.00304
2553.63013,0.00290
2551.70141,0.00271
2549.77269,0.00250
2547.84396,0.00232
2545.91524,0.00221
2543.98651,0.00212
2542.05779,0.00202
2540.12907,0.00191
2538.20034,0.00183
2536.27162,0.00177
2534.34290,0.00165
2532.41417,0.00147
2530.48545,0.00136
2528.55673,0.00133
2526.62800,0.00134
2524.69928,0.00135
2522.77055,0.00133
2520.84183,0.00123
2518.91311,0.00108
2516.98438,0.00094
2515.05566,0.00086
2513.12694,0.00078
2511.19821,0.00070
2509.26949,0.00064
2507.34076,0.00060
2505.41204,0.00051
2503.48332,0.00043
2501.55459,0.00043
2499.62587,0.00046
2497.69715,0.00046
2495.76842,0.00046
2493.83970,0.00046
2491.91098,0.00043
2489.98225,0.00037
2488.05353,0.00034
2486.12480,0.00030
2484.19608,0.00024
2482.26736,0.00020
2480.33863,0.00022
2478.40991,0.00024
2476.48119,0.00021
2474.55246,0.00010
2472.62374,0.00000
2470.69502,-0.00002
2468.76629,0.00003
2466.83757,0.00008
2464.90884,0.00012
2462.98012,0.00012
2461.05140,0.00016
2459.12267,0.00019
2457.19395,0.00011
2455.26523,-0.00001
2453.33650,-0.00009
2451.40778,-0.00012
2449.47905,-0.00012
2447.55033,-0.00013
2445.62161,-0.00018
2443.69288,-0.00023
2441.76416,-0.00021
2439.83544,-0.00013
2437.90671,-0.00002
2435.97799,0.00007
2434.04927,0.00011
2432.12054,0.00014
2430.19182,0.00014
2428.26309,0.00006
2426.33437,0.00000
2424.40565,0.00004
2422.47692,0.00008
2420.54820,0.00002
2418.61948,-0.00003
2416.69075,0.00002
2414.76203,0.00007
2412.83331,0.00010
2410.90458,0.00017
2408.97586,0.00020
2407.04713,0.00013
2405.11841,0.00004
2403.18969,-0.00000
2401.26096,-0.00001
2399.33224,0.00007
2397.40352,0.00017
2395.47479,0.00026
2393.54607,0.00034
2391.61734,0.00043
2389.68862,0.00048
2387.75990,0.00046
2385.83117,0.00041
2383.90245,0.00034
2381.97373,0.00025
2380.04500,0.00018
2378.11628,0.00023
2376.18756,0.00035
2374.25883,0.00042
2372.33011,0.00030
2370.40138,0.00009
2368.47266,0.00000
2366.54394,0.00002
2364.61521,0.00001
2362.68649,-0.00001
2360.75777,-0.00000
2358.82904,-0.00011
2356.90032,-0.00024
2354.97160,-0.00016
2353.04287,0.00008
2351.11415,0.00030
2349.18542,0.00051
2347.25670,0.00076
2345.32798,0.00090
2343.39925,0.00083
2341.47053,0.00071
2339.54181,0.00065
2337.61308,0.00061
2335.68436,0.00054
2333.75563,0.00048
2331.82691,0.00049
2329.89819,0.00059
2327.96946,0.00065
2326.04074,0.00063
2324.11202,0.00056
2322.18329,0.00054
2320.25457,0.00057
2318.32585,0.00057
2316.39712,0.00054
2314.46840,0.00057
2312.53967,0.00066
2310.61095,0.00074
2308.68223,0.00080
2306.75350,0.00085
2304.82478,0.00089
2302.89606,0.00095
2300.96733,0.00100
2299.03861,0.00100
2297.10989,0.00098
2295.18116,0.00097
2293.25244,0.00098
2291.32371,0.00098
2289.39499,0.00097
2287.46627,0.00097
2285.53754,0.00096
2283.60882,0.00094
2281.68010,0.00092
2279.75137,0.00093
2277.82265,0.00094
2275.89392,0.00096
2273.96520,0.00099
2272.03648,0.00102
2270.10775,0.00105
2268.17903,0.00109
2266.25031,0.00113
2264.32158,0.00106
2262.39286,0.00093
2260.46414,0.00082
2258.53541,0.00082
2256.60669,0.00082
2254.67796,0.00075
2252.74924,0.00064
2250.82052,0.00054
2248.89179,0.00049
2246.96307,0.00049
2245.03435,0.00052
2243.10562,0.00051
2241.17690,0.00048
2239.24818,0.00049
2237.31945,0.00052
2235.39073,0.00052
2233.46200,0.00051
2231.53328,0.00051
2229.60456,0.00047
2227.67583,0.00038
2225.74711,0.00028
2223.81839,0.00028
2221.88966,0.00034
2219.96094,0.00039
2218.03221,0.00043
2216.10349,0.00049
2214.17477,0.00052
2212.24604,0.00050
2210.31732,0.00043
2208.38860,0.00029
2206.45987,0.00020
2204.53115,0.00025
2202.60243,0.00032
2200.67370,0.00032
2198.74498,0.00029
2196.81625,0.00025
2194.88753,0.00025
2192.95881,0.00025
2191.03008,0.00023
2189.10136,0.00021
2187.17264,0.00018
2185.24391,0.00010
2183.31519,0.00003
2181.38647,0.00002
2179.45774,-0.00001
2177.52902,-0.00008
2175.60029,-0.00010
2173.67157,-0.00010
2171.74285,-0.00012
2169.81412,-0.00012
2167.88540,-0.00004
2165.95668,0.00007
2164.02795,0.00010
2162.09923,0.00005
2160.17050,-0.00003
2158.24178,-0.00005
2156.31306,-0.00003
2154.38433,0.00001
2152.45561,0.00003
2150.52689,0.00000
2148.59816,-0.00006
2146.66944,-0.00007
2144.74072,-0.00007
2142.81199,-0.00007
2140.88327,-0.00005
2138.95454,-0.00006
2137.02582,-0.00012
2135.09710,-0.00016
2133.16837,-0.00012
2131.23965,-0.00002
2129.31093,0.00006
2127.38220,0.00008
2125.45348,0.00004
2123.52476,-0.00004
2121.59603,-0.00008
2119.66731,-0.00006
2117.73858,-0.00003
2115.80986,-0.00003
2113.88114,-0.00006
2111.95241,-0.00013
2110.02369,-0.00019
2108.09497,-0.00019
2106.16624,-0.00017
2104.23752,-0.00019
2102.30880,-0.00017
2100.38007,-0.00005
2098.45135,0.00004
2096.52262,0.00004
2094.59390,0.00000
2092.66518,-0.00014
2090.73645,-0.00027
2088.80773,-0.00032
2086.87901,-0.00028
2084.95028,-0.00024
2083.02156,-0.00027
2081.09283,-0.00037
2079.16411,-0.00042
2077.23539,-0.00046
2075.30666,-0.00051
2073.37794,-0.00052
2071.44922,-0.00049
2069.52049,-0.00048
2067.59177,-0.00046
2065.66305,-0.00048
2063.73432,-0.00040
2061.80560,-0.00026
2059.87687,-0.00016
2057.94815,-0.00007
2056.01943,0.00004
2054.09070,0.00019
2052.16198,0.00036
2050.23326,0.00054
2048.30453,0.00075
2046.37581,0.00102
2044.44709,0.00134
2042.51836,0.00162
2040.58964,0.00193
2038.66091,0.00234
2036.73219,0.00275
2034.80347,0.00308
2032.87474,0.00343
2030.94602,0.00384
2029.01730,0.00425
2027.08857,0.00459
2025.15985,0.00490
2023.23112,0.00526
2021.30240,0.00562
2019.37368,0.00589
2017.44495,0.00610
2015.51623,0.00643
2013.58751,0.00672
2011.65878,0.00689
2009.73006,0.00706
2007.80134,0.00720
2005.87261,0.00733
2003.94389,0.00751
2002.01516,0.00767
2000.08644,0.00774
1998.15772,0.00780
1996.22899,0.00793
1994.30027,0.00788
1992.37155,0.00767
1990.44282,0.00775
1988.51410,0.00785
1986.58538,0.00784
1984.65665,0.00784
1982.72793,0.00778
1980.79920,0.00766
1978.87048,0.00749
1976.94176,0.00732
1975.01303,0.00719
1973.08431,0.00713
1971.15559,0.00711
1969.22686,0.00684
1967.29814,0.00640
1965.36941,0.00622
1963.44069,0.00615
1961.51197,0.00592
1959.58324,0.00572
1957.65452,0.00555
1955.72580,0.00534
1953.79707,0.00510
1951.86835,0.00486
1949.93963,0.00467
1948.01090,0.00456
1946.08218,0.00449
1944.15345,0.00416
1942.22473,0.00389
1940.29601,0.00406
1938.36728,0.00406
1936.43856,0.00381
1934.50984,0.00368
1932.58111,0.00368
1930.65239,0.00373
1928.72367,0.00383
1926.79494,0.00402
1924.86622,0.00403
1922.93749,0.00415
1921.00877,0.00459
1919.08005,0.00463
1917.15132,0.00476
1915.22260,0.00549
1913.29388,0.00604
1911.36515,0.00628
1909.43643,0.00668
1907.50770,0.00750
1905.57898,0.00839
1903.65026,0.00909
1901.72153,0.00980
1899.79281,0.01062
1897.86409,0.01133
1895.93536,0.01189
1894.00664,0.01273
1892.07792,0.01351
1890.14919,0.01383
1888.22047,0.01441
1886.29174,0.01521
1884.36302,0.01571
1882.43430,0.01607
1880.50557,0.01635
1878.57685,0.01651
1876.64813,0.01664
1874.71940,0.01689
1872.79068,0.01714
1870.86196,0.01675
1868.93323,0.01596
1867.00451,0.01570
1865.07578,0.01562
1863.14706,0.01506
1861.21834,0.01419
1859.28961,0.01333
1857.36089,0.01251
1855.43217,0.01175
1853.50344,0.01106
1851.57472,0.01040
1849.64599,0.00980
1847.71727,0.00913
1845.78855,0.00789
1843.85982,0.00665
1841.93110,0.00640
1840.00238,0.00616
1838.07365,0.00538
1836.14493,0.00482
1834.21621,0.00459
1832.28748,0.00399
1830.35876,0.00312
1828.43003,0.00290
1826.50131,0.00268
1824.57259,0.00209
1822.64386,0.00187
1820.71514,0.00165
1818.78642,0.00120
1816.85769,0.00092
1814.92897,0.00085
1813.00025,0.00050
1811.07152,0.00000
1809.14280,-0.00006
1807.21407,0.00019
1805.28535,0.00029
1803.35663,-0.00000
1801.42790,-0.00045
1799.49918,-0.00033
1797.57046,0.00033
1795.64173,0.00059
1793.71301,-0.00012
1791.78428,-0.00069
1789.85556,-0.00011
1787.92684,0.00042
1785.99811,0.00034
1784.06939,0.00038
1782.14067,0.00050
1780.21194,0.00066
1778.28322,0.00126
1776.35450,0.00174
1774.42577,0.00133
1772.49705,0.00067
1770.56832,0.00105
1768.63960,0.00173
1766.71088,0.00226
1764.78215,0.00255
1762.85343,0.00224
1760.92471,0.00232
1758.99598,0.00262
1757.06726,0.00254
1755.13854,0.00285
1753.20981,0.00286
1751.28109,0.00216
1749.35236,0.00213
1747.42364,0.00297
1745.49492,0.00384
1743.56619,0.00444
1741.63747,0.00500
1739.70875,0.00625
1737.78002,0.00825
1735.85130,0.00899
1733.92257,0.00943
1731.99385,0.01176
1730.06513,0.01398
1728.13640,0.01562
1726.20768,0.01719
1724.27896,0.01881
1722.35023,0.02082
1720.42151,0.02224
1718.49279,0.02276
1716.56406,0.02443
1714.63534,0.02731
1712.70661,0.02997
1710.77789,0.03213
1708.84917,0.03388
1706.92044,0.03566
1704.99172,0.03839
1703.06300,0.04108
1701.13427,0.04275
1699.20555,0.04587
1697.27683,0.04968
1695.34810,0.05318
1693.41938,0.05729
1691.49065,0.06054
1689.56193,0.06350
1687.63321,0.06664
1685.70448,0.06872
1683.77576,0.07183
1681.84704,0.07713
1679.91831,0.08138
1677.98959,0.08400
1676.06087,0.08637
1674.13214,0.09000
1672.20342,0.09359
1670.27469,0.09608
1668.34597,0.09972
1666.41725,0.10372
1664.48852,0.10609
1662.55980,0.10848
1660.63108,0.11234
1658.70235,0.11615
1656.77363,0.11827
1654.84490,0.11852
1652.91618,0.12072
1650.98746,0.12629
1649.05873,0.12891
1647.13001,0.12922
1645.20129,0.13161
1643.27256,0.13472
1641.34384,0.13662
1639.41512,0.13751
1637.48639,0.13710
1635.55767,0.13684
1633.62894,0.13851
1631.70022,0.13960
1629.77150,0.13861
1627.84277,0.13703
1625.91405,0.13526
1623.98533,0.13253
1622.05660,0.13007
1620.12788,0.12762
1618.19916,0.12265
1616.27043,0.11656
1614.34171,0.11212
1612.41298,0.10788
1610.48426,0.10248
1608.55554,0.09668
1606.62681,0.09116
1604.69809,0.08585
1602.76937,0.08070
1600.84064,0.07599
1598.91192,0.07171
1596.98319,0.06753
1595.05447,0.06352
1593.12575,0.06000
1591.19702,0.05697
1589.26830,0.05426
1587.33958,0.05170
1585.41085,0.04923
1583.48213,0.04704
1581.55341,0.04544
1579.62468,0.04385
1577.69596,0.04109
1575.76723,0.03883
1573.83851,0.03872
1571.90979,0.03789
1569.98106,0.03571
1568.05234,0.03485
1566.12362,0.03490
1564.19489,0.03503
1562.26617,0.03431
1560.33745,0.03104
1558.40872,0.02871
1556.48000,0.03027
1554.55127,0.03112
1552.62255,0.03060
1550.69383,0.02980
1548.76510,0.02955
1546.83638,0.02955
1544.90766,0.02892
1542.97893,0.02751
1541.05021,0.02503
1539.12148,0.02420
1537.19276,0.02565
1535.26404,0.02507
1533.33531,0.02312
1531.40659,0.02278
1529.47787,0.02256
1527.54914,0.02138
1525.62042,0.02043
1523.69170,0.01925
1521.76297,0.01758
1519.83425,0.01697
1517.90552,0.01622
1515.97680,0.01513
1514.04808,0.01481
1512.11935,0.01456
1510.19063,0.01331
1508.26191,0.00989
1506.33318,0.00693
1504.40446,0.00748
1502.47574,0.00805
1500.54701,0.00665
1498.61829,0.00438
1496.68956,0.00297
1494.76084,0.00329
1492.83212,0.00334
1490.90339,0.00174
1488.97467,0.00022
1487.04595,0.00000
1485.11722,0.00014
1483.18850,-0.00009
1481.25977,-0.00023
1479.33105,0.00017
1477.40233,0.00046
1475.47360,0.00019
1473.54488,-0.00027
1471.61616,0.00070
1469.68743,0.00288
1467.75871,0.00365
1465.82999,0.00305
1463.90126,0.00347
1461.97254,0.00493
1460.04381,0.00481
1458.11509,0.00307
1456.18637,0.00288
1454.25764,0.00435
1452.32892,0.00498
1450.40020,0.00468
1448.47147,0.00427
1446.54275,0.00447
1444.61403,0.00502
1442.68530,0.00552
1440.75658,0.00603
1438.82785,0.00575
1436.89913,0.00504
1434.97041,0.00568
1433.04168,0.00647
1431.11296,0.00634
1429.18424,0.00655
1427.25551,0.00739
1425.32679,0.00806
1423.39806,0.00890
1421.46934,0.00953
1419.54062,0.00971
1417.61189,0.01107
1415.68317,0.01319
1413.75445,0.01469
1411.82572,0.01602
1409.89700,0.01775
1407.96828,0.01961
1406.03955,0.02127
1404.11083,0.02320
1402.18210,0.02481
1400.25338,0.02484
1398.32466,0.02370
1396.39593,0.02173
1394.46721,0.01925
1392.53849,0.01727
1390.60976,0.01525
1388.68104,0.01245
1386.75232,0.00993
1384.82359,0.00852
1382.89487,0.00753
1380.96614,0.00653
1379.03742,0.00564
1377.10870,0.00461
1375.17997,0.00324
1373.25125,0.00229
1371.32253,0.00194
1369.39380,0.00155
1367.46508,0.00131
1365.53635,0.00102
1363.60763,0.00032
1361.67891,0.00000
1359.75018,0.00003
1357.82146,-0.00006
1355.89274,-0.00036
1353.96401,-0.00053
1352.03529,-0.00058
1350.10657,-0.00066
1348.17784,-0.00077
1346.24912,-0.00083
1344.32039,-0.00079
1342.39167,-0.00089
1340.46295,-0.00127
1338.53422,-0.00137
1336.60550,-0.00098
1334.67678,-0.00057
1332.74805,-0.00027
1330.81933,0.00013
1328.89061,0.00067
1326.96188,0.00128
1325.03316,0.00194
1323.10443,0.00258
1321.17571,0.00309
1319.24699,0.00361
1317.31826,0.00441
1315.38954,0.00543
1313.46082,0.00649
1311.53209,0.00774
1309.60337,0.00909
1307.67464,0.01046
1305.74592,0.01199
1303.81720,0.01381
1301.88847,0.01594
1299.95975,0.01824
1298.03103,0.02057
1296.10230,0.02295
1294.17358,0.02545
1292.24486,0.02805
1290.31613,0.03067
1288.38741,0.03345
1286.45868,0.03661
1284.52996,0.04018
1282.60124,0.04419
1280.67251,0.04875
1278.74379,0.05386
1276.81507,0.05941
1274.88634,0.06547
1272.95762,0.07214
1271.02890,0.07955
1269.10017,0.08782
1267.17145,0.09711
1265.24272,0.10749
1263.31400,0.11901
1261.38528,0.13186
1259.45655,0.14623
1257.52783,0.16191
1255.59911,0.17844
1253.67038,0.19549
1251.74166,0.21264
1249.81294,0.22929
1247.88421,0.24506
1245.95549,0.25994
1244.02676,0.27396
1242.09804,0.28689
1240.16932,0.29848
1238.24059,0.30884
1236.31187,0.31820
1234.38315,0.32684
1232.45442,0.33498
1230.52570,0.34259
1228.59697,0.34942
1226.66825,0.35546
1224.73953,0.36107
1222.81080,0.36654
1220.88208,0.37188
1218.95336,0.37695
1217.02463,0.38166
1215.09591,0.38607
1213.16719,0.39012
1211.23846,0.39376
1209.30974,0.39729
1207.38101,0.40099
1205.45229,0.40470
1203.52357,0.40828
1201.59484,0.41177
1199.66612,0.41512
1197.73740,0.41845
1195.80867,0.42171
1193.87995,0.42479
1191.95123,0.42795
1190.02250,0.43138
1188.09378,0.43482
1186.16505,0.43812
1184.23633,0.44114
1182.30761,0.44365
1180.37888,0.44610
1178.45016,0.44900
1176.52144,0.45196
1174.59271,0.45467
1172.66399,0.45746
1170.73526,0.46043
1168.80654,0.46323
1166.87782,0.46577
1164.94909,0.46841
1163.02037,0.47139
1161.09165,0.47440
1159.16292,0.47707
1157.23420,0.47973
1155.30548,0.48273
1153.37675,0.48573
1151.44803,0.48846
1149.51930,0.49115
1147.59058,0.49402
1145.66186,0.49700
1143.73313,0.49996
1141.80441,0.50285
1139.87569,0.50606
1137.94696,0.50965
1136.01824,0.51306
1134.08952,0.51632
1132.16079,0.51990
1130.23207,0.52389
1128.30334,0.52822
1126.37462,0.53288
1124.44590,0.53760
1122.51717,0.54224
1120.58845,0.54731
1118.65973,0.55296
1116.73100,0.55883
1114.80228,0.56492
1112.87355,0.57130
1110.94483,0.57750
1109.01611,0.58354
1107.08738,0.59027
1105.15866,0.59709
1103.22994,0.60284
1101.30121,0.60838
1099.37249,0.61388
1097.44377,0.61735
1095.51504,0.61909
1093.58632,0.62141
1091.65759,0.62442
1089.72887,0.62676
1087.80015,0.62766
1085.87142,0.62698
1083.94270,0.62506
1082.01398,0.62336
1080.08525,0.62294
1078.15653,0.62271
1076.22781,0.62182
1074.29908,0.62073
1072.37036,0.61891
1070.44163,0.61540
1068.51291,0.61170
1066.58419,0.60964
1064.65546,0.60796
1062.72674,0.60516
1060.79802,0.60167
1058.86929,0.59836
1056.94057,0.59541
1055.01184,0.59250
1053.08312,0.58890
1051.15440,0.58379
1049.22567,0.57775
1047.29695,0.57206
1045.36823,0.56642
1043.43950,0.55936
1041.51078,0.55092
1039.58206,0.54242
1037.65333,0.53407
1035.72461,0.52558
1033.79588,0.51663
1031.86716,0.50675
1029.93844,0.49652
1028.00971,0.48682
1026.08099,0.47713
1024.15227,0.46696
1022.22354,0.45711
1020.29482,0.44775
1018.36610,0.43833
1016.43737,0.42859
1014.50865,0.41853
1012.57992,0.40840
1010.65120,0.39836
1008.72248,0.38797
1006.79375,0.37715
1004.86503,0.36613
1002.93631,0.35467
1001.00758,0.34298
999.07886,0.33175
997.15013,0.32085
995.22141,0.31004
993.29269,0.29954
991.36396,0.28953
989.43524,0.28010
987.50652,0.27134
985.57779,0.26324
983.64907,0.25591
981.72035,0.24961
979.79162,0.24428
977.86290,0.23954
975.93417,0.23514
974.00545,0.23119
972.07673,0.22763
970.14800,0.22435
968.21928,0.22162
966.29056,0.21953
964.36183,0.21792
962.43311,0.21664
960.50439,0.21567
958.57566,0.21488
956.64694,0.21386
954.71821,0.21254
952.78949,0.21093
950.86077,0.20912
948.93204,0.20768
947.00332,0.20651
945.07460,0.20471
943.14587,0.20225
941.21715,0.19970
939.28842,0.19719
937.35970,0.19446
935.43098,0.19155
933.50225,0.18877
931.57353,0.18625
929.64481,0.18381
927.71608,0.18127
925.78736,0.17845
923.85864,0.17546
921.92991,0.17261
920.00119,0.16981
918.07246,0.16691
916.14374,0.16382
914.21502,0.16016
912.28629,0.15556
910.35757,0.14999
908.42885,0.14373
906.50012,0.13697
904.57140,0.12973
902.64268,0.12238
900.71395,0.11524
898.78523,0.10869
896.85650,0.10300
894.92778,0.09768
892.99906,0.09253
891.07033,0.08799
889.14161,0.08390
887.21289,0.07979
885.28416,0.07587
883.35544,0.07222
881.42671,0.06833
879.49799,0.06434
877.56927,0.06073
875.64054,0.05740
873.71182,0.05428
871.78310,0.05151
869.85437,0.04872
867.92565,0.04565
865.99693,0.04255
864.06820,0.03965
862.13948,0.03688
860.21075,0.03400
858.28203,0.03136
856.35331,0.02959
854.42458,0.02858
852.49586,0.02778
850.56714,0.02702
848.63841,0.02678
846.70969,0.02777
844.78097,0.03006
842.85224,0.03310
840.92352,0.03652
838.99479,0.04024
837.06607,0.04422
835.13735,0.04821
833.20862,0.05230
831.27990,0.05697
829.35118,0.06200
827.42245,0.06684
825.49373,0.07158
823.56501,0.07651
821.63628,0.08176
819.70756,0.08716
817.77883,0.09243
815.85011,0.09772
813.92139,0.10323
811.99266,0.10887
810.06394,0.11473
808.13522,0.12078
806.20649,0.12660
804.27777,0.13191
802.34904,0.13663
800.42032,0.14012
798.49160,0.14146
796.56287,0.14091
794.63415,0.13931
792.70543,0.13688
790.77670,0.13401
788.84798,0.13087
786.91926,0.12724
784.99053,0.12333
783.06181,0.11922
781.13308,0.11443
779.20436,0.10861
777.27564,0.10180
775.34691,0.09437
773.41819,0.08743
771.48947,0.08185
769.56074,0.07737
767.63202,0.07359
765.70330,0.07044
763.77457,0.06793
761.84585,0.06604
759.91712,0.06491
757.98840,0.06440
756.05968,0.06396
754.13095,0.06338
752.20223,0.06257
750.27351,0.06136
748.34478,0.06028
746.41606,0.05975
744.48733,0.05929
742.55861,0.05857
740.62989,0.05779
738.70116,0.05701
736.77244,0.05640
734.84372,0.05609
732.91499,0.05552
730.98627,0.05455
729.05755,0.05370
727.12882,0.05318
725.20010,0.05266
723.27137,0.05180
721.34265,0.05091
719.41393,0.05047
717.48520,0.05045
715.55648,0.05023
713.62776,0.04963
711.69903,0.04928
709.77031,0.04970
707.84159,0.05050
705.91286,0.05104
703.98414,0.05141
702.05541,0.05211
700.12669,0.05289
698.19797,0.05332
696.26924,0.05355
694.34052,0.05360
692.41180,0.05310
690.48307,0.05217
688.55435,0.05111
686.62562,0.04992
684.69690,0.04901
682.76818,0.04864
680.83945,0.04825
678.91073,0.04753
676.98201,0.04705
675.05328,0.04696
673.12456,0.04658
671.19584,0.04571
669.26711,0.04510
667.33839,0.04542
665.40966,0.04628
663.48094,0.04694
661.55222,0.04705
659.62349,0.04672
657.69477,0.04667
655.76605,0.04744
653.83732,0.04889
651.90860,0.05074
649.97988,0.05309
648.05115,0.05583
646.12243,0.05854
644.19370,0.06108
642.26498,0.06360
640.33626,0.06614
638.40753,0.06869
636.47881,0.07112
634.55009,0.07297
632.62136,0.07411
630.69264,0.07514
628.76391,0.07644
626.83519,0.07768
624.90647,0.07893
622.97774,0.08070
621.04902,0.08274
619.12030,0.08471
617.19157,0.08638
615.26285,0.08769
613.33413,0.08939
611.40540,0.09227
609.47668,0.09604
607.54795,0.09941
605.61923,0.10185
603.69051,0.10456
601.76178,0.10833
599.83306,0.11199
597.90434,0.11448
595.97561,0.11635
594.04689,0.11886
592.11817,0.12240
590.18944,0.12563
588.26072,0.12753
586.33199,0.12897
584.40327,0.13060
582.47455,0.13218
580.54582,0.13416
578.61710,0.13657
576.68838,0.13846
574.75965,0.13959
572.83093,0.14017
570.90220,0.14056
568.97348,0.14096
567.04476,0.14165
565.11603,0.14309
563.18731,0.14453
561.25859,0.14547
559.32986,0.14688
557.40114,0.14915
555.47242,0.15194
553.54369,0.15563
551.61497,0.15964
549.68624,0.16291
547.75752,0.16597
545.82880,0.16933
543.90007,0.17311
541.97135,0.17770
540.04263,0.18140
538.11390,0.18209
536.18518,0.18106
534.25646,0.18118
532.32773,0.18338
530.39901,0.18649
528.47028,0.18868
526.54156,0.18957
524.61284,0.19024
522.68411,0.19078
520.75539,0.19070
518.82667,0.18983
516.89794,0.18886
514.96922,0.18952
513.04049,0.19258
511.11177,0.19717
509.18305,0.20137
507.25432,0.20383
505.32560,0.20499
503.39688,0.20717
501.46815,0.21367
499.53943,0.22454
497.61071,0.23655
495.68198,0.24768
493.75326,0.25848
491.82453,0.27060
489.89581,0.28403
487.96709,0.29721
486.03836,0.30976
484.10964,0.32198
482.18092,0.33347
480.25219,0.34467
478.32347,0.35618
476.39475,0.36599
474.46602,0.37369
472.53730,0.38327
470.60857,0.39479
468.67985,0.40221
466.75113,0.40200
464.82240,0.39687
462.89368,0.39158
460.96496,0.38540
459.03623,0.37648
457.10751,0.37123
455.17878,0.37015
453.25006,0.36246
451.32134,0.34759
449.39261,0.33520
447.46389,0.32802
445.53517,0.32062
443.60644,0.31153
441.67772,0.30521
439.74900,0.29983
437.82027,0.28942
435.89155,0.27684
433.96282,0.26829
432.03410,0.26245
430.10538,0.25575
428.17665,0.24755
426.24793,0.23888
424.31921,0.23201
422.39048,0.22479
420.46176,0.20851
418.53304,0.18507
416.60431,0.17113
414.67559,0.16767
412.74686,0.16204
410.81814,0.14849
408.88942,0.13176
406.96069,0.12110
405.03197,0.12116
403.10325,0.12410
401.17452,0.11738
399.24580,0.10203
397.31708,0.09280
395.38835,0.09453
393.45963,0.09498
391.53090,0.08564
389.60218,0.07494
387.67346,0.07617
385.74473,0.08514
383.81601,0.08865
381.88729,0.09131
379.95856,0.10670
378.02984,0.13103
376.10111,0.12992
374.17239,0.07627
372.24367,0.01855
370.31494,0.00000
368.38622,0.00000
