3996.31543,0.00000
3994.38671,-0.00002
3992.45799,0.00008
3990.52926,0.00020
3988.60054,0.00019
3986.67182,0.00013
3984.74309,0.00012
3982.81437,0.00013
3980.88564,0.00020
3978.95692,0.00036
3977.02820,0.00048
3975.09947,0.00050
3973.17075,0.00052
3971.24203,0.00057
3969.31330,0.00067
3967.38458,0.00067
3965.45586,0.00049
3963.52713,0.00027
3961.59841,0.00022
3959.66968,0.00031
3957.74096,0.00042
3955.81224,0.00050
3953.88351,0.00063
3951.95479,0.00081
3950.02607,0.00093
3948.09734,0.00092
3946.16862,0.00087
3944.23990,0.00084
3942.31117,0.00080
3940.38245,0.00069
3938.45372,0.00060
3936.52500,0.00059
3934.59628,0.00061
3932.66755,0.00066
3930.73883,0.00082
3928.81011,0.00097
3926.88138,0.00098
3924.95266,0.00088
3923.02393,0.00075
3921.09521,0.00069
3919.16649,0.00079
3917.23776,0.00102
3915.30904,0.00117
3913.38032,0.00106
3911.45159,0.00082
3909.52287,0.00062
3907.59415,0.00046
3905.66542,0.00039
3903.73670,0.00052
3901.80797,0.00086
3899.87925,0.00115
3897.95053,0.00107
3896.02180,0.00077
3894.09308,0.00062
3892.16436,0.00075
3890.23563,0.00085
3888.30691,0.00074
3886.37819,0.00072
3884.44946,0.00100
3882.52074,0.00137
3880.59201,0.00153
3878.66329,0.00124
3876.73457,0.00065
3874.80584,0.00035
3872.87712,0.00053
3870.94840,0.00089
3869.01967,0.00106
3867.09095,0.00100
3865.16222,0.00099
3863.23350,0.00119
3861.30478,0.00138
3859.37605,0.00136
3857.44733,0.00120
3855.51861,0.00127
3853.58988,0.00192
3851.66116,0.00253
3849.73244,0.00239
3847.80371,0.00189
3845.87499,0.00157
3843.94626,0.00158
3842.01754,0.00183
3840.08882,0.00220
3838.16009,0.00252
3836.23137,0.00257
3834.30265,0.00245
3832.37392,0.00243
3830.44520,0.00254
3828.51648,0.00263
3826.58775,0.00264
3824.65903,0.00257
3822.73030,0.00256
3820.80158,0.00281
3818.87286,0.00302
3816.94413,0.00310
3815.01541,0.00321
3813.08669,0.00326
3811.15796,0.00311
3809.22924,0.00301
3807.30052,0.00309
3805.37179,0.00316
3803.44307,0.00320
3801.51434,0.00346
3799.58562,0.00378
3797.65690,0.00393
3795.72817,0.00408
3793.79945,0.00427
3791.87073,0.00440
3789.94200,0.00453
3788.01328,0.00479
3786.08455,0.00521
3784.15583,0.00558
3782.22711,0.00576
3780.29838,0.00596
3778.36966,0.00633
3776.44094,0.00666
3774.51221,0.00680
3772.58349,0.00700
3770.65477,0.00752
3768.72604,0.00814
3766.79732,0.00866
3764.86859,0.00910
3762.93987,0.00942
3761.01115,0.00973
3759.08242,0.01029
3757.15370,0.01091
3755.22498,0.01135
3753.29625,0.01188
3751.36753,0.01288
3749.43881,0.01408
3747.51008,0.01500
3745.58136,0.01586
3743.65263,0.01670
3741.72391,0.01711
3739.79519,0.01735
3737.86646,0.01810
3735.93774,0.01955
3734.00902,0.02127
3732.08029,0.02288
3730.15157,0.02429
3728.22284,0.02568
3726.29412,0.02744
3724.36540,0.02978
3722.43667,0.03268
3720.50795,0.03603
3718.57923,0.03960
3716.65050,0.04309
3714.72178,0.04667
3712.79306,0.05133
3710.86433,0.05746
3708.93561,0.06347
3707.00688,0.06814
3705.07816,0.07214
3703.14944,0.07657
3701.22071,0.08146
3699.29199,0.08578
3697.36327,0.08913
3695.43454,0.09192
3693.50582,0.09457
3691.57710,0.09774
3689.64837,0.10205
3687.71965,0.10669
3685.79092,0.11053
3683.86220,0.11393
3681.93348,0.11763
3680.00475,0.12162
3678.07603,0.12609
3676.14731,0.13189
3674.21858,0.13817
3672.28986,0.14339
3670.36113,0.14884
3668.43241,0.15486
3666.50369,0.15967
3664.57496,0.16342
3662.64624,0.16720
3660.71752,0.17122
3658.78879,0.17553
3656.86007,0.18039
3654.93135,0.18498
3653.00262,0.18830
3651.07390,0.19170
3649.14517,0.19687
3647.21645,0.20240
3645.28773,0.20632
3643.35900,0.20920
3641.43028,0.21215
3639.50156,0.21532
3637.57283,0.21850
3635.64411,0.22160
3633.71539,0.22431
3631.78666,0.22657
3629.85794,0.22932
3627.92921,0.23281
3626.00049,0.23532
3624.07177,0.23633
3622.14304,0.23680
3620.21432,0.23739
3618.28560,0.23787
3616.35687,0.23780
3614.42815,0.23753
3612.49942,0.23759
3610.57070,0.23805
3608.64198,0.23882
3606.71325,0.23950
3604.78453,0.23957
3602.85581,0.23922
3600.92708,0.23922
3598.99836,0.23983
3597.06964,0.24065
3595.14091,0.24134
3593.21219,0.24177
3591.28346,0.24197
3589.35474,0.24234
3587.42602,0.24331
3585.49729,0.24436
3583.56857,0.24497
3581.63985,0.24547
3579.71112,0.24619
3577.78240,0.24701
3575.85368,0.24778
3573.92495,0.24856
3571.99623,0.24917
3570.06750,0.24958
3568.13878,0.25040
3566.21006,0.25197
3564.28133,0.25343
3562.35261,0.25432
3560.42389,0.25511
3558.49516,0.25611
3556.56644,0.25717
3554.63771,0.25808
3552.70899,0.25890
3550.78027,0.25969
3548.85154,0.26044
3546.92282,0.26131
3544.99410,0.26243
3543.06537,0.26346
3541.13665,0.26412
3539.20793,0.26457
3537.27920,0.26521
3535.35048,0.26609
3533.42175,0.26695
3531.49303,0.26786
3529.56431,0.26908
3527.63558,0.27055
3525.70686,0.27196
3523.77814,0.27319
3521.84941,0.27426
3519.92069,0.27515
3517.99197,0.27594
3516.06324,0.27675
3514.13452,0.27754
3512.20579,0.27842
3510.27707,0.27946
3508.34835,0.28041
3506.41962,0.28116
3504.49090,0.28203
3502.56218,0.28319
3500.63345,0.28438
3498.70473,0.28551
3496.77600,0.28672
3494.84728,0.28797
3492.91856,0.28915
3490.98983,0.29039
3489.06111,0.29157
3487.13239,0.29230
3485.20366,0.29264
3483.27494,0.29310
3481.34622,0.29378
3479.41749,0.29451
3477.48877,0.29540
3475.56004,0.29657
3473.63132,0.29785
3471.70260,0.29895
3469.77387,0.29968
3467.84515,0.30007
3465.91643,0.30025
3463.98770,0.30046
3462.05898,0.30119
3460.13026,0.30249
3458.20153,0.30377
3456.27281,0.30450
3454.34408,0.30484
3452.41536,0.30519
3450.48664,0.30565
3448.55791,0.30608
3446.62919,0.30642
3444.70047,0.30675
3442.77174,0.30728
3440.84302,0.30798
3438.91429,0.30874
3436.98557,0.30954
3435.05685,0.31023
3433.12812,0.31067
3431.19940,0.31099
3429.27068,0.31129
3427.34195,0.31141
3425.41323,0.31132
3423.48451,0.31135
3421.55578,0.31152
3419.62706,0.31169
3417.69833,0.31202
3415.76961,0.31252
3413.84089,0.31285
3411.91216,0.31288
3409.98344,0.31295
3408.05472,0.31308
3406.12599,0.31309
3404.19727,0.31312
3402.26855,0.31337
3400.33982,0.31353
3398.41110,0.31325
3396.48237,0.31273
3394.55365,0.31230
3392.62493,0.31209
3390.69620,0.31208
3388.76748,0.31214
3386.83876,0.31220
3384.91003,0.31217
3382.98131,0.31201
3381.05259,0.31178
3379.12386,0.31158
3377.19514,0.31140
3375.26641,0.31108
3373.33769,0.31067
3371.40897,0.31032
3369.48024,0.30999
3367.55152,0.30969
3365.62280,0.30937
3363.69407,0.30876
3361.76535,0.30788
3359.83662,0.30729
3357.90790,0.30715
3355.97918,0.30706
3354.05045,0.30678
3352.12173,0.30632
3350.19301,0.30572
3348.26428,0.30510
3346.33556,0.30451
3344.40684,0.30401
3342.47811,0.30356
3340.54939,0.30297
3338.62066,0.30235
3336.69194,0.30193
3334.76322,0.30153
3332.83449,0.30082
3330.90577,0.29990
3328.97705,0.29899
3327.04832,0.29822
3325.11960,0.29765
3323.19088,0.29726
3321.26215,0.29697
3319.33343,0.29660
3317.40470,0.29599
3315.47598,0.29528
3313.54726,0.29466
3311.61853,0.29410
3309.68981,0.29354
3307.76109,0.29302
3305.83236,0.29255
3303.90364,0.29207
3301.97491,0.29148
3300.04619,0.29075
3298.11747,0.29009
3296.18874,0.28965
3294.26002,0.28925
3292.33130,0.28873
3290.40257,0.28806
3288.47385,0.28729
3286.54513,0.28666
3284.61640,0.28632
3282.68768,0.28597
3280.75895,0.28543
3278.83023,0.28492
3276.90151,0.28446
3274.97278,0.28411
3273.04406,0.28390
3271.11534,0.28374
3269.18661,0.28334
3267.25789,0.28253
3265.32917,0.28168
3263.40044,0.28120
3261.47172,0.28088
3259.54299,0.28037
3257.61427,0.27977
3255.68555,0.27924
3253.75682,0.27864
3251.82810,0.27794
3249.89938,0.27729
3247.97065,0.27679
3246.04193,0.27631
3244.11320,0.27572
3242.18448,0.27505
3240.25576,0.27428
3238.32703,0.27337
3236.39831,0.27244
3234.46959,0.27166
3232.54086,0.27104
3230.61214,0.27041
3228.68342,0.26966
3226.75469,0.26893
3224.82597,0.26828
3222.89724,0.26753
3220.96852,0.26665
3219.03980,0.26581
3217.11107,0.26493
3215.18235,0.26401
3213.25363,0.26322
3211.32490,0.26245
3209.39618,0.26144
3207.46746,0.26016
3205.53873,0.25888
3203.61001,0.25788
3201.68128,0.25701
3199.75256,0.25589
3197.82384,0.25462
3195.89511,0.25355
3193.96639,0.25268
3192.03767,0.25175
3190.10894,0.25070
3188.18022,0.24955
3186.25149,0.24844
3184.32277,0.24753
3182.39405,0.24667
3180.46532,0.24565
3178.53660,0.24458
3176.60788,0.24348
3174.67915,0.24221
3172.75043,0.24091
3170.82171,0.23974
3168.89298,0.23864
3166.96426,0.23753
3165.03553,0.23642
3163.10681,0.23527
3161.17809,0.23413
3159.24936,0.23302
3157.32064,0.23184
3155.39192,0.23058
3153.46319,0.22937
3151.53447,0.22832
3149.60575,0.22724
3147.67702,0.22607
3145.74830,0.22497
3143.81957,0.22400
3141.89085,0.22309
3139.96213,0.22206
3138.03340,0.22084
3136.10468,0.21954
3134.17596,0.21825
3132.24723,0.21703
3130.31851,0.21598
3128.38978,0.21498
3126.46106,0.21390
3124.53234,0.21276
3122.60361,0.21153
3120.67489,0.21025
3118.74617,0.20911
3116.81744,0.20808
3114.88872,0.20706
3112.96000,0.20595
3111.03127,0.20476
3109.10255,0.20358
3107.17382,0.20237
3105.24510,0.20109
3103.31638,0.19993
3101.38765,0.19888
3099.45893,0.19770
3097.53021,0.19636
3095.60148,0.19505
3093.67276,0.19379
3091.74404,0.19243
3089.81531,0.19108
3087.88659,0.18987
3085.95786,0.18869
3084.02914,0.18748
3082.10042,0.18631
3080.17169,0.18518
3078.24297,0.18395
3076.31425,0.18263
3074.38552,0.18136
3072.45680,0.18017
3070.52807,0.17895
3068.59935,0.17770
3066.67063,0.17650
3064.74190,0.17535
3062.81318,0.17419
3060.88446,0.17306
3058.95573,0.17189
3057.02701,0.17066
3055.09829,0.16958
3053.16956,0.16865
3051.24084,0.16763
3049.31211,0.16632
3047.38339,0.16489
3045.45467,0.16372
3043.52594,0.16283
3041.59722,0.16191
3039.66850,0.16075
3037.73977,0.15951
3035.81105,0.15835
3033.88233,0.15732
3031.95360,0.15639
3030.02488,0.15538
3028.09615,0.15425
3026.16743,0.15321
3024.23871,0.15229
3022.30998,0.15134
3020.38126,0.15042
3018.45254,0.14956
3016.52381,0.14863
3014.59509,0.14753
3012.66636,0.14633
3010.73764,0.14525
3008.80892,0.14441
3006.88019,0.14369
3004.95147,0.14279
3003.02275,0.14165
3001.09402,0.14054
2999.16530,0.13970
2997.23658,0.13905
2995.30785,0.13837
2993.37913,0.13768
2991.45040,0.13707
2989.52168,0.13646
2987.59296,0.13577
2985.66423,0.13504
2983.73551,0.13451
2981.80679,0.13423
2979.87806,0.13394
2977.94934,0.13363
2976.02062,0.13341
2974.09189,0.13322
2972.16317,0.13314
2970.23444,0.13330
2968.30572,0.13359
2966.37700,0.13368
2964.44827,0.13349
2962.51955,0.13320
2960.59083,0.13275
2958.66210,0.13207
2956.73338,0.13123
2954.80466,0.13021
2952.87593,0.12896
2950.94721,0.12771
2949.01848,0.12668
2947.08976,0.12602
2945.16104,0.12580
2943.23231,0.12605
2941.30359,0.12672
2939.37487,0.12756
2937.44614,0.12845
2935.51742,0.12942
2933.58869,0.13037
2931.65997,0.13107
2929.73125,0.13148
2927.80252,0.13152
2925.87380,0.13093
2923.94508,0.12946
2922.01635,0.12718
2920.08763,0.12428
2918.15891,0.12120
2916.23018,0.11842
2914.30146,0.11605
2912.37273,0.11388
2910.44401,0.11173
2908.51529,0.10959
2906.58656,0.10765
2904.65784,0.10596
2902.72912,0.10434
2900.80039,0.10280
2898.87167,0.10135
2896.94295,0.09993
2895.01422,0.09852
2893.08550,0.09709
2891.15677,0.09571
2889.22805,0.09441
2887.29933,0.09327
2885.37060,0.09232
2883.44188,0.09155
2881.51316,0.09090
2879.58443,0.09031
2877.65571,0.08984
2875.72698,0.08952
2873.79826,0.08916
2871.86954,0.08869
2869.94081,0.08809
2868.01209,0.08746
2866.08337,0.08709
2864.15464,0.08713
2862.22592,0.08750
2860.29720,0.08807
2858.36847,0.08869
2856.43975,0.08911
2854.51102,0.08902
2852.58230,0.08802
2850.65358,0.08593
2848.72485,0.08304
2846.79613,0.07983
2844.86741,0.07673
2842.93868,0.07406
2841.00996,0.07186
2839.08124,0.06990
2837.15251,0.06811
2835.22379,0.06661
2833.29506,0.06536
2831.36634,0.06425
2829.43762,0.06325
2827.50889,0.06237
2825.58017,0.06153
2823.65145,0.06066
2821.72272,0.05978
2819.79400,0.05899
2817.86527,0.05827
2815.93655,0.05757
2814.00783,0.05693
2812.07910,0.05628
2810.15038,0.05546
2808.22166,0.05462
2806.29293,0.05394
2804.36421,0.05337
2802.43549,0.05280
2800.50676,0.05222
2798.57804,0.05156
2796.64931,0.05081
2794.72059,0.05008
2792.79187,0.04943
2790.86314,0.04876
2788.93442,0.04796
2787.00570,0.04717
2785.07697,0.04658
2783.14825,0.04613
2781.21953,0.04569
2779.29080,0.04522
2777.36208,0.04475
2775.43335,0.04425
2773.50463,0.04362
2771.57591,0.04287
2769.64718,0.04223
2767.71846,0.04171
2765.78974,0.04121
2763.86101,0.04066
2761.93229,0.04009
2760.00356,0.03955
2758.07484,0.03904
2756.14612,0.03852
2754.21739,0.03797
2752.28867,0.03740
2750.35995,0.03685
2748.43122,0.03635
2746.50250,0.03585
2744.57378,0.03535
2742.64505,0.03482
2740.71633,0.03420
2738.78760,0.03359
2736.85888,0.03306
2734.93016,0.03261
2733.00143,0.03226
2731.07271,0.03195
2729.14399,0.03149
2727.21526,0.03089
2725.28654,0.03032
2723.35782,0.02989
2721.42909,0.02954
2719.50037,0.02917
2717.57164,0.02870
2715.64292,0.02812
2713.71420,0.02755
2711.78547,0.02708
2709.85675,0.02668
2707.92803,0.02630
2705.99930,0.02590
2704.07058,0.02548
2702.14185,0.02507
2700.21313,0.02470
2698.28441,0.02434
2696.35568,0.02400
2694.42696,0.02362
2692.49824,0.02318
2690.56951,0.02270
2688.64079,0.02229
2686.71207,0.02198
2684.78334,0.02163
2682.85462,0.02126
2680.92589,0.02089
2678.99717,0.02046
2677.06845,0.01999
2675.13972,0.01958
2673.21100,0.01927
2671.28228,0.01902
2669.35355,0.01869
2667.42483,0.01826
2665.49611,0.01783
2663.56738,0.01744
2661.63866,0.01706
2659.70993,0.01677
2657.78121,0.01654
2655.85249,0.01623
2653.92376,0.01588
2651.99504,0.01559
2650.06632,0.01526
2648.13759,0.01484
2646.20887,0.01444
2644.28014,0.01410
2642.35142,0.01375
2640.42270,0.01338
2638.49397,0.01306
2636.56525,0.01279
2634.63653,0.01254
2632.70780,0.01229
2630.77908,0.01200
2628.85036,0.01169
2626.92163,0.01140
2624.99291,0.01112
2623.06418,0.01078
2621.13546,0.01047
2619.20674,0.01024
2617.27801,0.01005
2615.34929,0.00989
2613.42057,0.00965
2611.49184,0.00926
2609.56312,0.00887
2607.63440,0.00865
2605.70567,0.00854
2603.77695,0.00845
2601.84822,0.00832
2599.91950,0.00807
2597.99078,0.00771
2596.06205,0.00739
2594.13333,0.00720
2592.20461,0.00711
2590.27588,0.00704
2588.34716,0.00689
2586.41843,0.00664
2584.48971,0.00638
2582.56099,0.00619
2580.63226,0.00597
2578.70354,0.00568
2576.77482,0.00547
2574.84609,0.00537
2572.91737,0.00526
2570.98865,0.00509
2569.05992,0.00490
2567.13120,0.00464
2565.20247,0.00439
2563.27375,0.00431
2561.34503,0.00426
2559.41630,0.00412
2557.48758,0.00393
2555.55886,0.00382
2553.63013,0.00376
2551.70141,0.00363
2549.77269,0.00342
2547.84396,0.00323
2545.91524,0.00301
2543.98651,0.00278
2542.05779,0.00266
2540.12907,0.00263
2538.20034,0.00254
2536.27162,0.00240
2534.34290,0.00229
2532.41417,0.00217
2530.48545,0.00207
2528.55673,0.00200
2526.62800,0.00188
2524.69928,0.00172
2522.77055,0.00158
2520.84183,0.00159
2518.91311,0.00167
2516.98438,0.00167
2515.05566,0.00156
2513.12694,0.00139
2511.19821,0.00125
2509.26949,0.00112
2507.34076,0.00101
2505.41204,0.00092
2503.48332,0.00090
2501.55459,0.00092
2499.62587,0.00090
2497.69715,0.00087
2495.76842,0.00083
2493.83970,0.00074
2491.91098,0.00062
2489.98225,0.00053
2488.05353,0.00049
2486.12480,0.00048
2484.19608,0.00048
2482.26736,0.00051
2480.33863,0.00048
2478.40991,0.00035
2476.48119,0.00021
2474.55246,0.00019
2472.62374,0.00024
2470.69502,0.00025
2468.76629,0.00017
2466.83757,0.00006
2464.90884,0.00000
2462.98012,-0.00000
2461.05140,0.00003
2459.12267,0.00007
2457.19395,0.00006
2455.26523,-0.00002
2453.33650,-0.00012
2451.40778,-0.00012
2449.47905,-0.00002
2447.55033,0.00002
2445.62161,-0.00000
2443.69288,-0.00003
2441.76416,-0.00003
2439.83544,-0.00005
2437.90671,-0.00005
2435.97799,-0.00006
2434.04927,-0.00007
2432.12054,-0.00006
2430.19182,0.00000
2428.26309,0.00010
2426.33437,0.00016
2424.40565,0.00012
2422.47692,0.00007
2420.54820,0.00010
2418.61948,0.00014
2416.69075,0.00011
2414.76203,0.00003
2412.83331,0.00001
2410.90458,0.00005
2408.97586,0.00008
2407.04713,0.00008
2405.11841,0.00004
2403.18969,-0.00001
2401.26096,-0.00006
2399.33224,-0.00008
2397.40352,-0.00002
2395.47479,0.00007
2393.54607,0.00010
2391.61734,0.00005
2389.68862,-0.00001
2387.75990,-0.00005
2385.83117,-0.00004
2383.90245,0.00001
2381.97373,0.00007
2380.04500,0.00013
2378.11628,0.00019
2376.18756,0.00022
2374.25883,0.00020
2372.33011,0.00009
2370.40138,0.00000
2368.47266,0.00000
2366.54394,0.00015
2364.61521,0.00043
2362.68649,0.00077
2360.75777,0.00103
2358.82904,0.00114
2356.90032,0.00112
2354.97160,0.00107
2353.04287,0.00102
2351.11415,0.00080
2349.18542,0.00043
2347.25670,0.00023
2345.32798,0.00038
2343.39925,0.00072
2341.47053,0.00097
2339.54181,0.00106
2337.61308,0.00099
2335.68436,0.00084
2333.75563,0.00074
2331.82691,0.00076
2329.89819,0.00077
2327.96946,0.00069
2326.04074,0.00056
2324.11202,0.00052
2322.18329,0.00061
2320.25457,0.00076
2318.32585,0.00083
2316.39712,0.00081
2314.46840,0.00076
2312.53967,0.00074
2310.61095,0.00074
2308.68223,0.00073
2306.75350,0.00070
2304.82478,0.00067
2302.89606,0.00064
2300.96733,0.00065
2299.03861,0.00073
2297.10989,0.00083
2295.18116,0.00085
2293.25244,0.00084
2291.32371,0.00089
2289.39499,0.00096
2287.46627,0.00099
2285.53754,0.00100
2283.60882,0.00102
2281.68010,0.00103
2279.75137,0.00102
2277.82265,0.00102
2275.89392,0.00104
2273.96520,0.00106
2272.03648,0.00104
2270.10775,0.00102
2268.17903,0.00102
2266.25031,0.00104
2264.32158,0.00107
2262.39286,0.00107
2260.46414,0.00103
2258.53541,0.00096
2256.60669,0.00090
2254.67796,0.00088
2252.74924,0.00088
2250.82052,0.00088
2248.89179,0.00087
2246.96307,0.00083
2245.03435,0.00077
2243.10562,0.00069
2241.17690,0.00062
2239.24818,0.00063
2237.31945,0.00069
2235.39073,0.00068
2233.46200,0.00061
2231.53328,0.00059
2229.60456,0.00057
2227.67583,0.00055
2225.74711,0.00054
2223.81839,0.00051
2221.88966,0.00044
2219.96094,0.00035
2218.03221,0.00023
2216.10349,0.00014
2214.17477,0.00017
2212.24604,0.00024
2210.31732,0.00028
2208.38860,0.00030
2206.45987,0.00024
2204.53115,0.00011
2202.60243,0.00006
2200.67370,0.00006
2198.74498,0.00004
2196.81625,0.00004
2194.88753,0.00001
2192.95881,-0.00008
2191.03008,-0.00011
2189.10136,-0.00009
2187.17264,-0.00008
2185.24391,-0.00011
2183.31519,-0.00013
2181.38647,-0.00013
2179.45774,-0.00014
2177.52902,-0.00016
2175.60029,-0.00017
2173.67157,-0.00014
2171.74285,-0.00013
2169.81412,-0.00019
2167.88540,-0.00020
2165.95668,-0.00012
2164.02795,-0.00006
2162.09923,-0.00010
2160.17050,-0.00016
2158.24178,-0.00011
2156.31306,0.00000
2154.38433,0.00002
2152.45561,-0.00003
2150.52689,0.00000
2148.59816,0.00011
2146.66944,0.00022
2144.74072,0.00028
2142.81199,0.00024
2140.88327,0.00019
2138.95454,0.00014
2137.02582,0.00007
2135.09710,0.00003
2133.16837,-0.00002
2131.23965,-0.00008
2129.31093,-0.00001
2127.38220,0.00014
2125.45348,0.00019
2123.52476,0.00011
2121.59603,-0.00001
2119.66731,-0.00005
2117.73858,-0.00002
2115.80986,0.00002
2113.88114,0.00000
2111.95241,-0.00007
2110.02369,-0.00014
2108.09497,-0.00019
2106.16624,-0.00020
2104.23752,-0.00017
2102.30880,-0.00013
2100.38007,-0.00010
2098.45135,-0.00004
2096.52262,0.00001
2094.59390,0.00000
2092.66518,-0.00012
2090.73645,-0.00020
2088.80773,-0.00031
2086.87901,-0.00044
2084.95028,-0.00048
2083.02156,-0.00043
2081.09283,-0.00041
2079.16411,-0.00043
2077.23539,-0.00042
2075.30666,-0.00042
2073.37794,-0.00041
2071.44922,-0.00039
2069.52049,-0.00040
2067.59177,-0.00036
2065.66305,-0.00024
2063.73432,-0.00012
2061.80560,-0.00003
2059.87687,0.00009
2057.94815,0.00025
2056.01943,0.00043
2054.09070,0.00059
2052.16198,0.00073
2050.23326,0.00088
2048.30453,0.00112
2046.37581,0.00140
2044.44709,0.00165
2042.51836,0.00192
2040.58964,0.00228
2038.66091,0.00272
2036.73219,0.00314
2034.80347,0.00351
2032.87474,0.00383
2030.94602,0.00420
2029.01730,0.00464
2027.08857,0.00502
2025.15985,0.00530
2023.23112,0.00557
2021.30240,0.00585
2019.37368,0.00611
2017.44495,0.00638
2015.51623,0.00667
2013.58751,0.00693
2011.65878,0.00719
2009.73006,0.00750
2007.80134,0.00776
2005.87261,0.00786
2003.94389,0.00786
2002.01516,0.00789
2000.08644,0.00801
1998.15772,0.00812
1996.22899,0.00814
1994.30027,0.00817
1992.37155,0.00822
1990.44282,0.00817
1988.51410,0.00799
1986.58538,0.00784
1984.65665,0.00778
1982.72793,0.00766
1980.79920,0.00743
1978.87048,0.00725
1976.94176,0.00718
1975.01303,0.00702
1973.08431,0.00673
1971.15559,0.00644
1969.22686,0.00627
1967.29814,0.00613
1965.36941,0.00590
1963.44069,0.00560
1961.51197,0.00534
1959.58324,0.00515
1957.65452,0.00493
1955.72580,0.00466
1953.79707,0.00436
1951.86835,0.00407
1949.93963,0.00384
1948.01090,0.00371
1946.08218,0.00359
1944.15345,0.00344
1942.22473,0.00325
1940.29601,0.00299
1938.36728,0.00273
1936.43856,0.00255
1934.50984,0.00242
1932.58111,0.00232
1930.65239,0.00232
1928.72367,0.00241
1926.79494,0.00251
1924.86622,0.00262
1922.93749,0.00272
1921.00877,0.00280
1919.08005,0.00304
1917.15132,0.00355
1915.22260,0.00409
1913.29388,0.00448
1911.36515,0.00489
1909.43643,0.00547
1907.50770,0.00619
1905.57898,0.00697
1903.65026,0.00778
1901.72153,0.00858
1899.79281,0.00934
1897.86409,0.01007
1895.93536,0.01078
1894.00664,0.01147
1892.07792,0.01218
1890.14919,0.01297
1888.22047,0.01372
1886.29174,0.01427
1884.36302,0.01468
1882.43430,0.01507
1880.50557,0.01542
1878.57685,0.01572
1876.64813,0.01596
1874.71940,0.01611
1872.79068,0.01608
1870.86196,0.01591
1868.93323,0.01569
1867.00451,0.01537
1865.07578,0.01485
1863.14706,0.01419
1861.21834,0.01348
1859.28961,0.01274
1857.36089,0.01194
1855.43217,0.01113
1853.50344,0.01036
1851.57472,0.00962
1849.64599,0.00882
1847.71727,0.00794
1845.78855,0.00709
1843.85982,0.00639
1841.93110,0.00582
1840.00238,0.00525
1838.07365,0.00463
1836.14493,0.00400
1834.21621,0.00342
1832.28748,0.00299
1830.35876,0.00274
1828.43003,0.00255
1826.50131,0.00223
1824.57259,0.00183
1822.64386,0.00143
1820.71514,0.00106
1818.78642,0.00074
1816.85769,0.00049
1814.92897,0.00022
1813.00025,0.00000
1811.07152,-0.00013
1809.14280,-0.00022
1807.21407,-0.00039
1805.28535,-0.00060
1803.35663,-0.00075
1801.42790,-0.00078
1799.49918,-0.00071
1797.57046,-0.00066
1795.64173,-0.00067
1793.71301,-0.00063
1791.78428,-0.00054
1789.85556,-0.00061
1787.92684,-0.00076
1785.99811,-0.00078
1784.06939,-0.00064
1782.14067,-0.00047
1780.21194,-0.00028
1778.28322,-0.00018
1776.35450,-0.00021
1774.42577,-0.00019
1772.49705,0.00004
1770.56832,0.00034
1768.63960,0.00052
1766.71088,0.00059
1764.78215,0.00062
1762.85343,0.00076
1760.92471,0.00103
1758.99598,0.00127
1757.06726,0.00144
1755.13854,0.00159
1753.20981,0.00173
1751.28109,0.00208
1749.35236,0.00267
1747.42364,0.00325
1745.49492,0.00375
1743.56619,0.00433
1741.63747,0.00512
1739.70875,0.00596
1737.78002,0.00661
1735.85130,0.00734
1733.92257,0.00884
1731.99385,0.01069
1730.06513,0.01210
1728.13640,0.01320
1726.20768,0.01433
1724.27896,0.01559
1722.35023,0.01676
1720.42151,0.01785
1718.49279,0.01962
1716.56406,0.02227
1714.63534,0.02466
1712.70661,0.02625
1710.77789,0.02758
1708.84917,0.02915
1706.92044,0.03123
1704.99172,0.03353
1703.06300,0.03558
1701.13427,0.03802
1699.20555,0.04147
1697.27683,0.04530
1695.34810,0.04905
1693.41938,0.05229
1691.49065,0.05508
1689.56193,0.05789
1687.63321,0.06068
1685.70448,0.06410
1683.77576,0.06891
1681.84704,0.07336
1679.91831,0.07631
1677.98959,0.07880
1676.06087,0.08194
1674.13214,0.08565
1672.20342,0.08917
1670.27469,0.09278
1668.34597,0.09652
1666.41725,0.09951
1664.48852,0.10218
1662.55980,0.10540
1660.63108,0.10858
1658.70235,0.11081
1656.77363,0.11240
1654.84490,0.11469
1652.91618,0.11827
1650.98746,0.12098
1649.05873,0.12231
1647.13001,0.12403
1645.20129,0.12619
1643.27256,0.12756
1641.34384,0.12822
1639.41512,0.12879
1637.48639,0.12963
1635.55767,0.13068
1633.62894,0.13114
1631.70022,0.13068
1629.77150,0.12966
1627.84277,0.12834
1625.91405,0.12659
1623.98533,0.12421
1622.05660,0.12140
1620.12788,0.11851
1618.19916,0.11510
1616.27043,0.11062
1614.34171,0.10572
1612.41298,0.10099
1610.48426,0.09610
1608.55554,0.09090
1606.62681,0.08570
1604.69809,0.08073
1602.76937,0.07600
1600.84064,0.07154
1598.91192,0.06737
1596.98319,0.06343
1595.05447,0.05979
1593.12575,0.05652
1591.19702,0.05354
1589.26830,0.05070
1587.33958,0.04803
1585.41085,0.04562
1583.48213,0.04344
1581.55341,0.04146
1579.62468,0.03971
1577.69596,0.03812
1575.76723,0.03664
1573.83851,0.03530
1571.90979,0.03405
1569.98106,0.03288
1568.05234,0.03195
1566.12362,0.03123
1564.19489,0.03050
1562.26617,0.02969
1560.33745,0.02913
1558.40872,0.02894
1556.48000,0.02852
1554.55127,0.02777
1552.62255,0.02702
1550.69383,0.02645
1548.76510,0.02598
1546.83638,0.02539
1544.90766,0.02463
1542.97893,0.02389
1541.05021,0.02339
1539.12148,0.02299
1537.19276,0.02234
1535.26404,0.02153
1533.33531,0.02071
1531.40659,0.01978
1529.47787,0.01866
1527.54914,0.01743
1525.62042,0.01628
1523.69170,0.01532
1521.76297,0.01451
1519.83425,0.01373
1517.90552,0.01295
1515.97680,0.01217
1514.04808,0.01137
1512.11935,0.01053
1510.19063,0.00955
1508.26191,0.00844
1506.33318,0.00737
1504.40446,0.00640
1502.47574,0.00536
1500.54701,0.00418
1498.61829,0.00305
1496.68956,0.00211
1494.76084,0.00130
1492.83212,0.00054
1490.90339,0.00000
1488.97467,-0.00014
1487.04595,-0.00011
1485.11722,-0.00020
1483.18850,-0.00030
1481.25977,-0.00021
1479.33105,0.00000
1477.40233,0.00026
1475.47360,0.00098
1473.54488,0.00252
1471.61616,0.00449
1469.68743,0.00594
1467.75871,0.00675
1465.82999,0.00740
1463.90126,0.00791
1461.97254,0.00806
1460.04381,0.00802
1458.11509,0.00821
1456.18637,0.00846
1454.25764,0.00824
1452.32892,0.00769
1450.40020,0.00730
1448.47147,0.00731
1446.54275,0.00759
1444.61403,0.00786
1442.68530,0.00798
1440.75658,0.00796
1438.82785,0.00797
1436.89913,0.00823
1434.97041,0.00853
1433.04168,0.00858
1431.11296,0.00851
1429.18424,0.00853
1427.25551,0.00863
1425.32679,0.00885
1423.39806,0.00918
1421.46934,0.00952
1419.54062,0.01012
1417.61189,0.01108
1415.68317,0.01200
1413.75445,0.01281
1411.82572,0.01380
1409.89700,0.01501
1407.96828,0.01634
1406.03955,0.01776
1404.11083,0.01905
1402.18210,0.01981
1400.25338,0.01984
1398.32466,0.01912
1396.39593,0.01766
1394.46721,0.01567
1392.53849,0.01359
1390.60976,0.01175
1388.68104,0.01016
1386.75232,0.00886
1384.82359,0.00792
1382.89487,0.00725
1380.96614,0.00666
1379.03742,0.00603
1377.10870,0.00525
1375.17997,0.00432
1373.25125,0.00340
1371.32253,0.00268
1369.39380,0.00217
1367.46508,0.00177
1365.53635,0.00134
1363.60763,0.00085
1361.67891,0.00037
1359.75018,0.00000
1357.82146,-0.00041
1355.89274,-0.00068
1353.96401,-0.00083
1352.03529,-0.00095
1350.10657,-0.00113
1348.17784,-0.00134
1346.24912,-0.00146
1344.32039,-0.00146
1342.39167,-0.00143
1340.46295,-0.00140
1338.53422,-0.00134
1336.60550,-0.00129
1334.67678,-0.00121
1332.74805,-0.00100
1330.81933,-0.00069
1328.89061,-0.00033
1326.96188,0.00011
1325.03316,0.00065
1323.10443,0.00122
1321.17571,0.00175
1319.24699,0.00232
1317.31826,0.00306
1315.38954,0.00395
1313.46082,0.00492
1311.53209,0.00591
1309.60337,0.00694
1307.67464,0.00809
1305.74592,0.00938
1303.81720,0.01084
1301.88847,0.01253
1299.95975,0.01436
1298.03103,0.01624
1296.10230,0.01822
1294.17358,0.02038
1292.24486,0.02273
1290.31613,0.02540
1288.38741,0.02851
1286.45868,0.03187
1284.52996,0.03533
1282.60124,0.03905
1280.67251,0.04324
1278.74379,0.04792
1276.81507,0.05311
1274.88634,0.05887
1272.95762,0.06534
1271.02890,0.07267
1269.10017,0.08080
1267.17145,0.08970
1265.24272,0.09955
1263.31400,0.11065
1261.38528,0.12324
1259.45655,0.13730
1257.52783,0.15242
1255.59911,0.16824
1253.67038,0.18453
1251.74166,0.20081
1249.81294,0.21660
1247.88421,0.23168
1245.95549,0.24589
1244.02676,0.25905
1242.09804,0.27092
1240.16932,0.28132
1238.24059,0.29066
1236.31187,0.29945
1234.38315,0.30768
1232.45442,0.31506
1230.52570,0.32153
1228.59697,0.32715
1226.66825,0.33216
1224.73953,0.33695
1222.81080,0.34174
1220.88208,0.34657
1218.95336,0.35123
1217.02463,0.35541
1215.09591,0.35903
1213.16719,0.36255
1211.23846,0.36636
1209.30974,0.37025
1207.38101,0.37410
1205.45229,0.37797
1203.52357,0.38139
1201.59484,0.38410
1199.66612,0.38656
1197.73740,0.38919
1195.80867,0.39183
1193.87995,0.39436
1191.95123,0.39700
1190.02250,0.40006
1188.09378,0.40345
1186.16505,0.40636
1184.23633,0.40865
1182.30761,0.41120
1180.37888,0.41430
1178.45016,0.41735
1176.52144,0.42004
1174.59271,0.42274
1172.66399,0.42585
1170.73526,0.42919
1168.80654,0.43242
1166.87782,0.43544
1164.94909,0.43786
1163.02037,0.43958
1161.09165,0.44159
1159.16292,0.44443
1157.23420,0.44746
1155.30548,0.45003
1153.37675,0.45231
1151.44803,0.45461
1149.51930,0.45686
1147.59058,0.45923
1145.66186,0.46172
1143.73313,0.46436
1141.80441,0.46762
1139.87569,0.47093
1137.94696,0.47347
1136.01824,0.47591
1134.08952,0.47908
1132.16079,0.48243
1130.23207,0.48557
1128.30334,0.48890
1126.37462,0.49287
1124.44590,0.49764
1122.51717,0.50287
1120.58845,0.50790
1118.65973,0.51247
1116.73100,0.51726
1114.80228,0.52303
1112.87355,0.52944
1110.94483,0.53536
1109.01611,0.54116
1107.08738,0.54828
1105.15866,0.55574
1103.22994,0.56180
1101.30121,0.56686
1099.37249,0.57149
1097.44377,0.57536
1095.51504,0.57885
1093.58632,0.58239
1091.65759,0.58567
1089.72887,0.58835
1087.80015,0.58957
1085.87142,0.58942
1083.94270,0.58912
1082.01398,0.58857
1080.08525,0.58735
1078.15653,0.58616
1076.22781,0.58534
1074.29908,0.58400
1072.37036,0.58235
1070.44163,0.58131
1068.51291,0.57993
1066.58419,0.57711
1064.65546,0.57382
1062.72674,0.57143
1060.79802,0.56956
1058.86929,0.56756
1056.94057,0.56499
1055.01184,0.56090
1053.08312,0.55568
1051.15440,0.55075
1049.22567,0.54610
1047.29695,0.54043
1045.36823,0.53342
1043.43950,0.52594
1041.51078,0.51861
1039.58206,0.51101
1037.65333,0.50237
1035.72461,0.49314
1033.79588,0.48404
1031.86716,0.47493
1029.93844,0.46583
1028.00971,0.45672
1026.08099,0.44746
1024.15227,0.43834
1022.22354,0.42926
1020.29482,0.41959
1018.36610,0.40948
1016.43737,0.39944
1014.50865,0.38959
1012.57992,0.37981
1010.65120,0.37003
1008.72248,0.36032
1006.79375,0.35038
1004.86503,0.33970
1002.93631,0.32846
1001.00758,0.31738
999.07886,0.30674
997.15013,0.29611
995.22141,0.28562
993.29269,0.27593
991.36396,0.26688
989.43524,0.25782
987.50652,0.24886
985.57779,0.24064
983.64907,0.23352
981.72035,0.22729
979.79162,0.22153
977.86290,0.21627
975.93417,0.21189
974.00545,0.20825
972.07673,0.20474
970.14800,0.20147
968.21928,0.19888
966.29056,0.19691
964.36183,0.19535
962.43311,0.19389
960.50439,0.19236
958.57566,0.19078
956.64694,0.18918
954.71821,0.18773
952.78949,0.18624
950.86077,0.18447
948.93204,0.18270
947.00332,0.18101
945.07460,0.17901
943.14587,0.17655
941.21715,0.17394
939.28842,0.17160
937.35970,0.16935
935.43098,0.16665
933.50225,0.16356
931.57353,0.16031
929.64481,0.15700
927.71608,0.15392
925.78736,0.15108
923.85864,0.14825
921.92991,0.14548
920.00119,0.14301
918.07246,0.14067
916.14374,0.13777
914.21502,0.13389
912.28629,0.12927
910.35757,0.12416
908.42885,0.11829
906.50012,0.11144
904.57140,0.10432
902.64268,0.09786
900.71395,0.09180
898.78523,0.08563
896.85650,0.07983
894.92778,0.07466
892.99906,0.06951
891.07033,0.06419
889.14161,0.05927
887.21289,0.05500
885.28416,0.05103
883.35544,0.04692
881.42671,0.04266
879.49799,0.03877
877.56927,0.03515
875.64054,0.03118
873.71182,0.02721
871.78310,0.02384
869.85437,0.02085
867.92565,0.01802
865.99693,0.01512
864.06820,0.01198
862.13948,0.00909
860.21075,0.00685
858.28203,0.00509
856.35331,0.00357
854.42458,0.00201
852.49586,0.00052
850.56714,0.00000
848.63841,0.00068
846.70969,0.00179
844.78097,0.00309
842.85224,0.00503
840.92352,0.00784
838.99479,0.01153
837.06607,0.01597
835.13735,0.02061
833.20862,0.02506
831.27990,0.02958
829.35118,0.03423
827.42245,0.03893
825.49373,0.04396
823.56501,0.04930
821.63628,0.05441
819.70756,0.05933
817.77883,0.06449
815.85011,0.06961
813.92139,0.07435
811.99266,0.07894
810.06394,0.08340
808.13522,0.08820
806.20649,0.09390
804.27777,0.09967
802.34904,0.10417
800.42032,0.10697
798.49160,0.10796
796.56287,0.10717
794.63415,0.10539
792.70543,0.10323
790.77670,0.10069
788.84798,0.09782
786.91926,0.09435
784.99053,0.09030
783.06181,0.08629
781.13308,0.08202
779.20436,0.07642
777.27564,0.06940
775.34691,0.06207
773.41819,0.05519
771.48947,0.04899
769.56074,0.04412
767.63202,0.04056
765.70330,0.03760
763.77457,0.03534
761.84585,0.03411
759.91712,0.03335
757.98840,0.03231
756.05968,0.03117
754.13095,0.03045
752.20223,0.02974
750.27351,0.02857
748.34478,0.02757
746.41606,0.02716
744.48733,0.02693
742.55861,0.02659
740.62989,0.02607
738.70116,0.02529
736.77244,0.02426
734.84372,0.02321
732.91499,0.02255
730.98627,0.02205
729.05755,0.02127
727.12882,0.02057
725.20010,0.02034
723.27137,0.02007
721.34265,0.01916
719.41393,0.01788
717.48520,0.01703
715.55648,0.01687
713.62776,0.01713
711.69903,0.01751
709.77031,0.01765
707.84159,0.01731
705.91286,0.01685
703.98414,0.01698
702.05541,0.01809
700.12669,0.01951
698.19797,0.02015
696.26924,0.01993
694.34052,0.01929
692.41180,0.01817
690.48307,0.01657
688.55435,0.01516
686.62562,0.01448
684.69690,0.01405
682.76818,0.01324
680.83945,0.01251
678.91073,0.01232
676.98201,0.01216
675.05328,0.01156
673.12456,0.01072
671.19584,0.00996
669.26711,0.00948
667.33839,0.00924
665.40966,0.00914
663.48094,0.00942
661.55222,0.01038
659.62349,0.01176
657.69477,0.01273
655.76605,0.01298
653.83732,0.01330
651.90860,0.01438
649.97988,0.01603
648.05115,0.01813
646.12243,0.02084
644.19370,0.02384
642.26498,0.02650
640.33626,0.02878
638.40753,0.03082
636.47881,0.03232
634.55009,0.03313
632.62136,0.03369
630.69264,0.03452
628.76391,0.03555
626.83519,0.03639
624.90647,0.03738
622.97774,0.03889
621.04902,0.04048
619.12030,0.04214
617.19157,0.04428
615.26285,0.04630
613.33413,0.04786
611.40540,0.04975
609.47668,0.05230
607.54795,0.05504
605.61923,0.05764
603.69051,0.06030
601.76178,0.06377
599.83306,0.06788
597.90434,0.07133
595.97561,0.07362
594.04689,0.07506
592.11817,0.07597
590.18944,0.07755
588.26072,0.08064
586.33199,0.08380
584.40327,0.08524
582.47455,0.08603
580.54582,0.08758
578.61710,0.08840
576.68838,0.08788
574.75965,0.08821
572.83093,0.08986
570.90220,0.09057
568.97348,0.08967
567.04476,0.08990
565.11603,0.09241
563.18731,0.09463
561.25859,0.09588
559.32986,0.09772
557.40114,0.09948
555.47242,0.10046
553.54369,0.10240
551.61497,0.10612
549.68624,0.11008
547.75752,0.11308
545.82880,0.11523
543.90007,0.11681
541.97135,0.11809
540.04263,0.11983
538.11390,0.12222
536.18518,0.12445
534.25646,0.12574
532.32773,0.12584
530.39901,0.12583
528.47028,0.12677
526.54156,0.12799
524.61284,0.12923
522.68411,0.13028
520.75539,0.12943
518.82667,0.12701
516.89794,0.12681
514.96922,0.12972
513.04049,0.13186
511.11177,0.13226
509.18305,0.13424
507.25432,0.13891
505.32560,0.14410
503.39688,0.14886
501.46815,0.15451
499.53943,0.16296
497.61071,0.17400
495.68198,0.18468
493.75326,0.19316
491.82453,0.20121
489.89581,0.21101
487.96709,0.22265
486.03836,0.23598
484.10964,0.25066
482.18092,0.26407
480.25219,0.27312
478.32347,0.27782
476.39475,0.28116
474.46602,0.28690
472.53730,0.29763
470.60857,0.31083
468.67985,0.32015
466.75113,0.32352
464.82240,0.32331
462.89368,0.32237
460.96496,0.32180
459.03623,0.31929
457.10751,0.31293
455.17878,0.30531
453.25006,0.29798
451.32134,0.28881
449.39261,0.27884
447.46389,0.27423
445.53517,0.27754
443.60644,0.28147
441.67772,0.27564
439.74900,0.25881
437.82027,0.23988
435.89155,0.22675
433.96282,0.21918
432.03410,0.21184
430.10538,0.20239
428.17665,0.19264
426.24793,0.18308
424.31921,0.17325
422.39048,0.16538
420.46176,0.15938
418.53304,0.14816
416.60431,0.13087
414.67559,0.11679
412.74686,0.10720
410.81814,0.09770
408.88942,0.08956
406.96069,0.08811
405.03197,0.09337
403.10325,0.09527
401.17452,0.08310
399.24580,0.05996
397.31708,0.03772
395.38835,0.02491
393.45963,0.02661
391.53090,0.03763
389.60218,0.04213
387.67346,0.03237
385.74473,0.01802
383.81601,0.01404
381.88729,0.02019
379.95856,0.02110
378.02984,0.00876
376.10111,0.00000
374.17239,0.00967
372.24367,0.02049
370.31494,0.01054
368.38622,0.00000
