3996.31543,0.00000
3994.38671,0.00013
3992.45799,0.00028
3990.52926,0.00044
3988.60054,0.00057
3986.67182,0.00065
3984.74309,0.00070
3982.81437,0.00072
3980.88564,0.00065
3978.95692,0.00055
3977.02820,0.00058
3975.09947,0.00069
3973.17075,0.00077
3971.24203,0.00086
3969.31330,0.00097
3967.38458,0.00100
3965.45586,0.00093
3963.52713,0.00086
3961.59841,0.00088
3959.66968,0.00094
3957.74096,0.00095
3955.81224,0.00094
3953.88351,0.00097
3951.95479,0.00108
3950.02607,0.00124
3948.09734,0.00132
3946.16862,0.00126
3944.23990,0.00115
3942.31117,0.00108
3940.38245,0.00103
3938.45372,0.00101
3936.52500,0.00103
3934.59628,0.00102
3932.66755,0.00102
3930.73883,0.00114
3928.81011,0.00125
3926.88138,0.00121
3924.95266,0.00104
3923.02393,0.00088
3921.09521,0.00090
3919.16649,0.00122
3917.23776,0.00166
3915.30904,0.00177
3913.38032,0.00148
3911.45159,0.00109
3909.52287,0.00083
3907.59415,0.00071
3905.66542,0.00079
3903.73670,0.00107
3901.80797,0.00130
3899.87925,0.00131
3897.95053,0.00121
3896.02180,0.00108
3894.09308,0.00088
3892.16436,0.00080
3890.23563,0.00088
3888.30691,0.00095
3886.37819,0.00103
3884.44946,0.00123
3882.52074,0.00150
3880.59201,0.00171
3878.66329,0.00169
3876.73457,0.00142
3874.80584,0.00119
3872.87712,0.00126
3870.94840,0.00156
3869.01967,0.00177
3867.09095,0.00169
3865.16222,0.00148
3863.23350,0.00140
3861.30478,0.00146
3859.37605,0.00145
3857.44733,0.00126
3855.51861,0.00113
3853.58988,0.00146
3851.66116,0.00199
3849.73244,0.00209
3847.80371,0.00182
3845.87499,0.00147
3843.94626,0.00121
3842.01754,0.00104
3840.08882,0.00092
3838.16009,0.00093
3836.23137,0.00115
3834.30265,0.00148
3832.37392,0.00176
3830.44520,0.00187
3828.51648,0.00184
3826.58775,0.00179
3824.65903,0.00174
3822.73030,0.00179
3820.80158,0.00206
3818.87286,0.00225
3816.94413,0.00218
3815.01541,0.00208
3813.08669,0.00211
3811.15796,0.00218
3809.22924,0.00221
3807.30052,0.00229
3805.37179,0.00242
3803.44307,0.00265
3801.51434,0.00311
3799.58562,0.00356
3797.65690,0.00378
3795.72817,0.00392
3793.79945,0.00399
3791.87073,0.00396
3789.94200,0.00397
3788.01328,0.00411
3786.08455,0.00428
3784.15583,0.00441
3782.22711,0.00452
3780.29838,0.00471
3778.36966,0.00506
3776.44094,0.00547
3774.51221,0.00575
3772.58349,0.00591
3770.65477,0.00608
3768.72604,0.00641
3766.79732,0.00690
3764.86859,0.00740
3762.93987,0.00775
3761.01115,0.00800
3759.08242,0.00847
3757.15370,0.00912
3755.22498,0.00958
3753.29625,0.00988
3751.36753,0.01039
3749.43881,0.01109
3747.51008,0.01168
3745.58136,0.01260
3743.65263,0.01403
3741.72391,0.01511
3739.79519,0.01551
3737.86646,0.01595
3735.93774,0.01717
3734.00902,0.01890
3732.08029,0.02053
3730.15157,0.02191
3728.22284,0.02329
3726.29412,0.02511
3724.36540,0.02762
3722.43667,0.03074
3720.50795,0.03427
3718.57923,0.03809
3716.65050,0.04202
3714.72178,0.04606
3712.79306,0.05094
3710.86433,0.05710
3708.93561,0.06332
3707.00688,0.06835
3705.07816,0.07241
3703.14944,0.07639
3701.22071,0.08065
3699.29199,0.08458
3697.36327,0.08780
3695.43454,0.09048
3693.50582,0.09266
3691.57710,0.09462
3689.64837,0.09712
3687.71965,0.10023
3685.79092,0.10324
3683.86220,0.10593
3681.93348,0.10857
3680.00475,0.11135
3678.07603,0.11476
3676.14731,0.11962
3674.21858,0.12519
3672.28986,0.12987
3670.36113,0.13430
3668.43241,0.13893
3666.50369,0.14287
3664.57496,0.14638
3662.64624,0.15010
3660.71752,0.15399
3658.78879,0.15799
3656.86007,0.16242
3654.93135,0.16682
3653.00262,0.17037
3651.07390,0.17395
3649.14517,0.17890
3647.21645,0.18417
3645.28773,0.18809
3643.35900,0.19115
3641.43028,0.19450
3639.50156,0.19831
3637.57283,0.20205
3635.64411,0.20534
3633.71539,0.20821
3631.78666,0.21104
3629.85794,0.21434
3627.92921,0.21778
3626.00049,0.22016
3624.07177,0.22136
3622.14304,0.22195
3620.21432,0.22229
3618.28560,0.22252
3616.35687,0.22251
3614.42815,0.22228
3612.49942,0.22208
3610.57070,0.22215
3608.64198,0.22259
3606.71325,0.22325
3604.78453,0.22371
3602.85581,0.22380
3600.92708,0.22387
3598.99836,0.22422
3597.06964,0.22480
3595.14091,0.22543
3593.21219,0.22590
3591.28346,0.22606
3589.35474,0.22630
3587.42602,0.22715
3585.49729,0.22835
3583.56857,0.22933
3581.63985,0.22999
3579.71112,0.23057
3577.78240,0.23132
3575.85368,0.23224
3573.92495,0.23304
3571.99623,0.23361
3570.06750,0.23427
3568.13878,0.23544
3566.21006,0.23698
3564.28133,0.23826
3562.35261,0.23926
3560.42389,0.24021
3558.49516,0.24110
3556.56644,0.24191
3554.63771,0.24264
3552.70899,0.24333
3550.78027,0.24413
3548.85154,0.24507
3546.92282,0.24609
3544.99410,0.24710
3543.06537,0.24809
3541.13665,0.24899
3539.20793,0.24981
3537.27920,0.25078
3535.35048,0.25196
3533.42175,0.25307
3531.49303,0.25393
3529.56431,0.25474
3527.63558,0.25563
3525.70686,0.25663
3523.77814,0.25779
3521.84941,0.25893
3519.92069,0.25972
3517.99197,0.26024
3516.06324,0.26094
3514.13452,0.26195
3512.20579,0.26306
3510.27707,0.26412
3508.34835,0.26514
3506.41962,0.26601
3504.49090,0.26682
3502.56218,0.26775
3500.63345,0.26873
3498.70473,0.26968
3496.77600,0.27069
3494.84728,0.27167
3492.91856,0.27243
3490.98983,0.27305
3489.06111,0.27384
3487.13239,0.27481
3485.20366,0.27567
3483.27494,0.27655
3481.34622,0.27763
3479.41749,0.27865
3477.48877,0.27946
3475.56004,0.28013
3473.63132,0.28074
3471.70260,0.28147
3469.77387,0.28229
3467.84515,0.28303
3465.91643,0.28374
3463.98770,0.28452
3462.05898,0.28534
3460.13026,0.28612
3458.20153,0.28694
3456.27281,0.28771
3454.34408,0.28826
3452.41536,0.28862
3450.48664,0.28895
3448.55791,0.28923
3446.62919,0.28950
3444.70047,0.28995
3442.77174,0.29058
3440.84302,0.29119
3438.91429,0.29166
3436.98557,0.29194
3435.05685,0.29196
3433.12812,0.29198
3431.19940,0.29228
3429.27068,0.29273
3427.34195,0.29307
3425.41323,0.29323
3423.48451,0.29341
3421.55578,0.29359
3419.62706,0.29370
3417.69833,0.29386
3415.76961,0.29418
3413.84089,0.29448
3411.91216,0.29464
3409.98344,0.29477
3408.05472,0.29486
3406.12599,0.29484
3404.19727,0.29473
3402.26855,0.29464
3400.33982,0.29468
3398.41110,0.29472
3396.48237,0.29464
3394.55365,0.29453
3392.62493,0.29433
3390.69620,0.29401
3388.76748,0.29383
3386.83876,0.29389
3384.91003,0.29388
3382.98131,0.29359
3381.05259,0.29315
3379.12386,0.29275
3377.19514,0.29240
3375.26641,0.29193
3373.33769,0.29146
3371.40897,0.29127
3369.48024,0.29119
3367.55152,0.29073
3365.62280,0.29000
3363.69407,0.28949
3361.76535,0.28923
3359.83662,0.28888
3357.90790,0.28834
3355.97918,0.28776
3354.05045,0.28720
3352.12173,0.28654
3350.19301,0.28579
3348.26428,0.28508
3346.33556,0.28457
3344.40684,0.28414
3342.47811,0.28358
3340.54939,0.28295
3338.62066,0.28242
3336.69194,0.28183
3334.76322,0.28112
3332.83449,0.28061
3330.90577,0.28026
3328.97705,0.27980
3327.04832,0.27920
3325.11960,0.27859
3323.19088,0.27800
3321.26215,0.27739
3319.33343,0.27674
3317.40470,0.27623
3315.47598,0.27592
3313.54726,0.27554
3311.61853,0.27491
3309.68981,0.27408
3307.76109,0.27320
3305.83236,0.27246
3303.90364,0.27193
3301.97491,0.27133
3300.04619,0.27060
3298.11747,0.27003
3296.18874,0.26963
3294.26002,0.26923
3292.33130,0.26884
3290.40257,0.26841
3288.47385,0.26787
3286.54513,0.26722
3284.61640,0.26655
3282.68768,0.26602
3280.75895,0.26557
3278.83023,0.26507
3276.90151,0.26452
3274.97278,0.26386
3273.04406,0.26314
3271.11534,0.26265
3269.18661,0.26233
3267.25789,0.26188
3265.32917,0.26132
3263.40044,0.26063
3261.47172,0.25993
3259.54299,0.25952
3257.61427,0.25925
3255.68555,0.25878
3253.75682,0.25816
3251.82810,0.25764
3249.89938,0.25722
3247.97065,0.25675
3246.04193,0.25617
3244.11320,0.25552
3242.18448,0.25481
3240.25576,0.25416
3238.32703,0.25358
3236.39831,0.25300
3234.46959,0.25235
3232.54086,0.25159
3230.61214,0.25073
3228.68342,0.24988
3226.75469,0.24907
3224.82597,0.24835
3222.89724,0.24774
3220.96852,0.24715
3219.03980,0.24646
3217.11107,0.24565
3215.18235,0.24486
3213.25363,0.24408
3211.32490,0.24316
3209.39618,0.24209
3207.46746,0.24108
3205.53873,0.24025
3203.61001,0.23935
3201.68128,0.23826
3199.75256,0.23724
3197.82384,0.23628
3195.89511,0.23524
3193.96639,0.23423
3192.03767,0.23338
3190.10894,0.23259
3188.18022,0.23171
3186.25149,0.23073
3184.32277,0.22968
3182.39405,0.22857
3180.46532,0.22744
3178.53660,0.22635
3176.60788,0.22537
3174.67915,0.22447
3172.75043,0.22356
3170.82171,0.22258
3168.89298,0.22151
3166.96426,0.22035
3165.03553,0.21913
3163.10681,0.21796
3161.17809,0.21686
3159.24936,0.21575
3157.32064,0.21471
3155.39192,0.21374
3153.46319,0.21276
3151.53447,0.21177
3149.60575,0.21076
3147.67702,0.20968
3145.74830,0.20861
3143.81957,0.20764
3141.89085,0.20676
3139.96213,0.20587
3138.03340,0.20483
3136.10468,0.20370
3134.17596,0.20269
3132.24723,0.20175
3130.31851,0.20068
3128.38978,0.19953
3126.46106,0.19843
3124.53234,0.19744
3122.60361,0.19652
3120.67489,0.19562
3118.74617,0.19470
3116.81744,0.19364
3114.88872,0.19239
3112.96000,0.19121
3111.03127,0.19028
3109.10255,0.18941
3107.17382,0.18835
3105.24510,0.18705
3103.31638,0.18570
3101.38765,0.18449
3099.45893,0.18343
3097.53021,0.18247
3095.60148,0.18152
3093.67276,0.18048
3091.74404,0.17932
3089.81531,0.17812
3087.88659,0.17704
3085.95786,0.17614
3084.02914,0.17524
3082.10042,0.17409
3080.17169,0.17273
3078.24297,0.17132
3076.31425,0.17003
3074.38552,0.16902
3072.45680,0.16826
3070.52807,0.16745
3068.59935,0.16641
3066.67063,0.16521
3064.74190,0.16400
3062.81318,0.16287
3060.88446,0.16185
3058.95573,0.16084
3057.02701,0.15975
3055.09829,0.15863
3053.16956,0.15758
3051.24084,0.15657
3049.31211,0.15552
3047.38339,0.15447
3045.45467,0.15344
3043.52594,0.15237
3041.59722,0.15130
3039.66850,0.15027
3037.73977,0.14933
3035.81105,0.14849
3033.88233,0.14769
3031.95360,0.14679
3030.02488,0.14575
3028.09615,0.14467
3026.16743,0.14362
3024.23871,0.14261
3022.30998,0.14172
3020.38126,0.14096
3018.45254,0.14010
3016.52381,0.13910
3014.59509,0.13819
3012.66636,0.13738
3010.73764,0.13653
3008.80892,0.13560
3006.88019,0.13468
3004.95147,0.13393
3003.02275,0.13328
3001.09402,0.13254
2999.16530,0.13180
2997.23658,0.13114
2995.30785,0.13047
2993.37913,0.12968
2991.45040,0.12889
2989.52168,0.12823
2987.59296,0.12770
2985.66423,0.12719
2983.73551,0.12665
2981.80679,0.12618
2979.87806,0.12580
2977.94934,0.12544
2976.02062,0.12511
2974.09189,0.12491
2972.16317,0.12479
2970.23444,0.12463
2968.30572,0.12450
2966.37700,0.12442
2964.44827,0.12419
2962.51955,0.12370
2960.59083,0.12308
2958.66210,0.12246
2956.73338,0.12179
2954.80466,0.12099
2952.87593,0.12011
2950.94721,0.11923
2949.01848,0.11843
2947.08976,0.11780
2945.16104,0.11746
2943.23231,0.11747
2941.30359,0.11763
2939.37487,0.11782
2937.44614,0.11803
2935.51742,0.11818
2933.58869,0.11824
2931.65997,0.11823
2929.73125,0.11816
2927.80252,0.11785
2925.87380,0.11705
2923.94508,0.11569
2922.01635,0.11378
2920.08763,0.11157
2918.15891,0.10943
2916.23018,0.10752
2914.30146,0.10584
2912.37273,0.10431
2910.44401,0.10283
2908.51529,0.10136
2906.58656,0.09988
2904.65784,0.09840
2902.72912,0.09697
2900.80039,0.09560
2898.87167,0.09435
2896.94295,0.09327
2895.01422,0.09228
2893.08550,0.09128
2891.15677,0.09026
2889.22805,0.08923
2887.29933,0.08826
2885.37060,0.08748
2883.44188,0.08684
2881.51316,0.08625
2879.58443,0.08566
2877.65571,0.08504
2875.72698,0.08437
2873.79826,0.08378
2871.86954,0.08322
2869.94081,0.08247
2868.01209,0.08165
2866.08337,0.08101
2864.15464,0.08065
2862.22592,0.08062
2860.29720,0.08077
2858.36847,0.08080
2856.43975,0.08062
2854.51102,0.08022
2852.58230,0.07942
2850.65358,0.07802
2848.72485,0.07615
2846.79613,0.07413
2844.86741,0.07208
2842.93868,0.07014
2841.00996,0.06842
2839.08124,0.06688
2837.15251,0.06553
2835.22379,0.06444
2833.29506,0.06354
2831.36634,0.06278
2829.43762,0.06205
2827.50889,0.06120
2825.58017,0.06024
2823.65145,0.05947
2821.72272,0.05890
2819.79400,0.05822
2817.86527,0.05736
2815.93655,0.05654
2814.00783,0.05581
2812.07910,0.05515
2810.15038,0.05461
2808.22166,0.05405
2806.29293,0.05334
2804.36421,0.05264
2802.43549,0.05206
2800.50676,0.05153
2798.57804,0.05099
2796.64931,0.05039
2794.72059,0.04977
2792.79187,0.04923
2790.86314,0.04875
2788.93442,0.04817
2787.00570,0.04752
2785.07697,0.04692
2783.14825,0.04634
2781.21953,0.04568
2779.29080,0.04503
2777.36208,0.04449
2775.43335,0.04408
2773.50463,0.04359
2771.57591,0.04291
2769.64718,0.04230
2767.71846,0.04188
2765.78974,0.04145
2763.86101,0.04085
2761.93229,0.04023
2760.00356,0.03972
2758.07484,0.03927
2756.14612,0.03880
2754.21739,0.03825
2752.28867,0.03768
2750.35995,0.03723
2748.43122,0.03685
2746.50250,0.03642
2744.57378,0.03589
2742.64505,0.03536
2740.71633,0.03485
2738.78760,0.03432
2736.85888,0.03380
2734.93016,0.03333
2733.00143,0.03294
2731.07271,0.03253
2729.14399,0.03207
2727.21526,0.03162
2725.28654,0.03115
2723.35782,0.03064
2721.42909,0.03016
2719.50037,0.02972
2717.57164,0.02929
2715.64292,0.02891
2713.71420,0.02854
2711.78547,0.02819
2709.85675,0.02781
2707.92803,0.02736
2705.99930,0.02690
2704.07058,0.02651
2702.14185,0.02612
2700.21313,0.02562
2698.28441,0.02508
2696.35568,0.02467
2694.42696,0.02439
2692.49824,0.02410
2690.56951,0.02379
2688.64079,0.02347
2686.71207,0.02310
2684.78334,0.02266
2682.85462,0.02228
2680.92589,0.02195
2678.99717,0.02158
2677.06845,0.02118
2675.13972,0.02085
2673.21100,0.02063
2671.28228,0.02041
2669.35355,0.02014
2667.42483,0.01979
2665.49611,0.01937
2663.56738,0.01894
2661.63866,0.01860
2659.70993,0.01828
2657.78121,0.01784
2655.85249,0.01738
2653.92376,0.01706
2651.99504,0.01681
2650.06632,0.01650
2648.13759,0.01625
2646.20887,0.01604
2644.28014,0.01576
2642.35142,0.01541
2640.42270,0.01510
2638.49397,0.01486
2636.56525,0.01459
2634.63653,0.01427
2632.70780,0.01400
2630.77908,0.01378
2628.85036,0.01355
2626.92163,0.01329
2624.99291,0.01305
2623.06418,0.01281
2621.13546,0.01259
2619.20674,0.01238
2617.27801,0.01214
2615.34929,0.01194
2613.42057,0.01177
2611.49184,0.01150
2609.56312,0.01115
2607.63440,0.01087
2605.70567,0.01068
2603.77695,0.01043
2601.84822,0.01016
2599.91950,0.00996
2597.99078,0.00974
2596.06205,0.00942
2594.13333,0.00919
2592.20461,0.00910
2590.27588,0.00899
2588.34716,0.00883
2586.41843,0.00867
2584.48971,0.00850
2582.56099,0.00839
2580.63226,0.00826
2578.70354,0.00800
2576.77482,0.00775
2574.84609,0.00763
2572.91737,0.00753
2570.98865,0.00735
2569.05992,0.00716
2567.13120,0.00705
2565.20247,0.00698
2563.27375,0.00684
2561.34503,0.00662
2559.41630,0.00641
2557.48758,0.00625
2555.55886,0.00611
2553.63013,0.00592
2551.70141,0.00572
2549.77269,0.00556
2547.84396,0.00541
2545.91524,0.00529
2543.98651,0.00524
2542.05779,0.00519
2540.12907,0.00514
2538.20034,0.00508
2536.27162,0.00498
2534.34290,0.00485
2532.41417,0.00472
2530.48545,0.00455
2528.55673,0.00435
2526.62800,0.00420
2524.69928,0.00408
2522.77055,0.00396
2520.84183,0.00389
2518.91311,0.00387
2516.98438,0.00376
2515.05566,0.00361
2513.12694,0.00352
2511.19821,0.00348
2509.26949,0.00342
2507.34076,0.00335
2505.41204,0.00328
2503.48332,0.00325
2501.55459,0.00329
2499.62587,0.00328
2497.69715,0.00318
2495.76842,0.00310
2493.83970,0.00304
2491.91098,0.00294
2489.98225,0.00284
2488.05353,0.00273
2486.12480,0.00252
2484.19608,0.00232
2482.26736,0.00228
2480.33863,0.00228
2478.40991,0.00215
2476.48119,0.00198
2474.55246,0.00192
2472.62374,0.00194
2470.69502,0.00194
2468.76629,0.00191
2466.83757,0.00191
2464.90884,0.00192
2462.98012,0.00188
2461.05140,0.00182
2459.12267,0.00177
2457.19395,0.00170
2455.26523,0.00164
2453.33650,0.00155
2451.40778,0.00145
2449.47905,0.00138
2447.55033,0.00135
2445.62161,0.00131
2443.69288,0.00123
2441.76416,0.00116
2439.83544,0.00109
2437.90671,0.00102
2435.97799,0.00100
2434.04927,0.00102
2432.12054,0.00098
2430.19182,0.00092
2428.26309,0.00093
2426.33437,0.00098
2424.40565,0.00099
2422.47692,0.00095
2420.54820,0.00081
2418.61948,0.00060
2416.69075,0.00049
2414.76203,0.00053
2412.83331,0.00055
2410.90458,0.00048
2408.97586,0.00042
2407.04713,0.00045
2405.11841,0.00046
2403.18969,0.00041
2401.26096,0.00038
2399.33224,0.00034
2397.40352,0.00028
2395.47479,0.00024
2393.54607,0.00023
2391.61734,0.00018
2389.68862,0.00010
2387.75990,0.00006
2385.83117,0.00006
2383.90245,0.00004
2381.97373,0.00000
2380.04500,-0.00001
2378.11628,0.00007
2376.18756,0.00014
2374.25883,0.00011
2372.33011,0.00008
2370.40138,0.00019
2368.47266,0.00038
2366.54394,0.00047
2364.61521,0.00042
2362.68649,0.00034
2360.75777,0.00034
2358.82904,0.00041
2356.90032,0.00044
2354.97160,0.00040
2353.04287,0.00038
2351.11415,0.00035
2349.18542,0.00031
2347.25670,0.00033
2345.32798,0.00044
2343.39925,0.00053
2341.47053,0.00053
2339.54181,0.00049
2337.61308,0.00044
2335.68436,0.00040
2333.75563,0.00037
2331.82691,0.00036
2329.89819,0.00032
2327.96946,0.00031
2326.04074,0.00038
2324.11202,0.00048
2322.18329,0.00050
2320.25457,0.00037
2318.32585,0.00017
2316.39712,0.00005
2314.46840,0.00005
2312.53967,0.00008
2310.61095,0.00007
2308.68223,0.00006
2306.75350,0.00006
2304.82478,0.00001
2302.89606,-0.00004
2300.96733,-0.00003
2299.03861,0.00001
2297.10989,0.00003
2295.18116,0.00003
2293.25244,-0.00003
2291.32371,-0.00008
2289.39499,-0.00006
2287.46627,-0.00001
2285.53754,-0.00002
2283.60882,-0.00006
2281.68010,-0.00007
2279.75137,-0.00007
2277.82265,-0.00010
2275.89392,-0.00009
2273.96520,-0.00005
2272.03648,-0.00003
2270.10775,0.00001
2268.17903,0.00010
2266.25031,0.00012
2264.32158,0.00005
2262.39286,0.00000
2260.46414,-0.00000
2258.53541,0.00004
2256.60669,0.00013
2254.67796,0.00017
2252.74924,0.00010
2250.82052,0.00004
2248.89179,0.00006
2246.96307,0.00005
2245.03435,-0.00002
2243.10562,-0.00002
2241.17690,0.00008
2239.24818,0.00012
2237.31945,0.00004
2235.39073,-0.00003
2233.46200,-0.00007
2231.53328,-0.00010
2229.60456,-0.00010
2227.67583,-0.00007
2225.74711,-0.00005
2223.81839,-0.00004
2221.88966,-0.00002
2219.96094,0.00002
2218.03221,0.00004
2216.10349,-0.00000
2214.17477,-0.00005
2212.24604,-0.00007
2210.31732,-0.00004
2208.38860,-0.00002
2206.45987,0.00000
2204.53115,0.00001
2202.60243,0.00004
2200.67370,0.00004
2198.74498,0.00005
2196.81625,0.00012
2194.88753,0.00019
2192.95881,0.00016
2191.03008,0.00006
2189.10136,-0.00003
2187.17264,-0.00005
2185.24391,-0.00001
2183.31519,-0.00002
2181.38647,-0.00006
2179.45774,-0.00006
2177.52902,-0.00005
2175.60029,-0.00010
2173.67157,-0.00013
2171.74285,-0.00007
2169.81412,-0.00002
2167.88540,0.00002
2165.95668,0.00009
2164.02795,0.00010
2162.09923,0.00005
2160.17050,0.00005
2158.24178,0.00006
2156.31306,0.00000
2154.38433,-0.00006
2152.45561,-0.00005
2150.52689,0.00000
2148.59816,0.00005
2146.66944,0.00012
2144.74072,0.00018
2142.81199,0.00017
2140.88327,0.00014
2138.95454,0.00013
2137.02582,0.00014
2135.09710,0.00012
2133.16837,0.00010
2131.23965,0.00008
2129.31093,0.00002
2127.38220,-0.00002
2125.45348,0.00001
2123.52476,0.00003
2121.59603,-0.00001
2119.66731,-0.00005
2117.73858,0.00001
2115.80986,0.00005
2113.88114,0.00000
2111.95241,-0.00007
2110.02369,-0.00009
2108.09497,-0.00009
2106.16624,-0.00007
2104.23752,-0.00004
2102.30880,0.00003
2100.38007,0.00011
2098.45135,0.00011
2096.52262,0.00004
2094.59390,0.00000
2092.66518,-0.00007
2090.73645,-0.00014
2088.80773,-0.00026
2086.87901,-0.00035
2084.95028,-0.00039
2083.02156,-0.00043
2081.09283,-0.00053
2079.16411,-0.00064
2077.23539,-0.00066
2075.30666,-0.00062
2073.37794,-0.00057
2071.44922,-0.00055
2069.52049,-0.00054
2067.59177,-0.00051
2065.66305,-0.00047
2063.73432,-0.00047
2061.80560,-0.00050
2059.87687,-0.00056
2057.94815,-0.00060
2056.01943,-0.00061
2054.09070,-0.00054
2052.16198,-0.00039
2050.23326,-0.00018
2048.30453,-0.00001
2046.37581,0.00013
2044.44709,0.00028
2042.51836,0.00049
2040.58964,0.00067
2038.66091,0.00077
2036.73219,0.00088
2034.80347,0.00109
2032.87474,0.00134
2030.94602,0.00159
2029.01730,0.00185
2027.08857,0.00211
2025.15985,0.00228
2023.23112,0.00234
2021.30240,0.00239
2019.37368,0.00256
2017.44495,0.00281
2015.51623,0.00302
2013.58751,0.00318
2011.65878,0.00326
2009.73006,0.00327
2007.80134,0.00328
2005.87261,0.00338
2003.94389,0.00357
2002.01516,0.00378
2000.08644,0.00384
1998.15772,0.00376
1996.22899,0.00371
1994.30027,0.00373
1992.37155,0.00378
1990.44282,0.00379
1988.51410,0.00376
1986.58538,0.00373
1984.65665,0.00367
1982.72793,0.00361
1980.79920,0.00351
1978.87048,0.00335
1976.94176,0.00323
1975.01303,0.00317
1973.08431,0.00307
1971.15559,0.00291
1969.22686,0.00275
1967.29814,0.00264
1965.36941,0.00253
1963.44069,0.00239
1961.51197,0.00224
1959.58324,0.00210
1957.65452,0.00199
1955.72580,0.00188
1953.79707,0.00173
1951.86835,0.00155
1949.93963,0.00142
1948.01090,0.00136
1946.08218,0.00125
1944.15345,0.00109
1942.22473,0.00102
1940.29601,0.00100
1938.36728,0.00093
1936.43856,0.00080
1934.50984,0.00067
1932.58111,0.00058
1930.65239,0.00058
1928.72367,0.00061
1926.79494,0.00063
1924.86622,0.00065
1922.93749,0.00077
1921.00877,0.00095
1919.08005,0.00107
1917.15132,0.00119
1915.22260,0.00138
1913.29388,0.00163
1911.36515,0.00199
1909.43643,0.00246
1907.50770,0.00294
1905.57898,0.00342
1903.65026,0.00391
1901.72153,0.00439
1899.79281,0.00484
1897.86409,0.00529
1895.93536,0.00573
1894.00664,0.00615
1892.07792,0.00654
1890.14919,0.00698
1888.22047,0.00744
1886.29174,0.00779
1884.36302,0.00807
1882.43430,0.00838
1880.50557,0.00865
1878.57685,0.00884
1876.64813,0.00897
1874.71940,0.00907
1872.79068,0.00907
1870.86196,0.00895
1868.93323,0.00879
1867.00451,0.00863
1865.07578,0.00835
1863.14706,0.00791
1861.21834,0.00738
1859.28961,0.00685
1857.36089,0.00636
1855.43217,0.00589
1853.50344,0.00543
1851.57472,0.00497
1849.64599,0.00449
1847.71727,0.00401
1845.78855,0.00362
1843.85982,0.00332
1841.93110,0.00307
1840.00238,0.00274
1838.07365,0.00238
1836.14493,0.00206
1834.21621,0.00171
1832.28748,0.00130
1830.35876,0.00099
1828.43003,0.00085
1826.50131,0.00070
1824.57259,0.00052
1822.64386,0.00039
1820.71514,0.00030
1818.78642,0.00022
1816.85769,0.00013
1814.92897,0.00000
1813.00025,-0.00018
1811.07152,-0.00032
1809.14280,-0.00046
1807.21407,-0.00062
1805.28535,-0.00074
1803.35663,-0.00081
1801.42790,-0.00080
1799.49918,-0.00073
1797.57046,-0.00066
1795.64173,-0.00064
1793.71301,-0.00063
1791.78428,-0.00046
1789.85556,-0.00021
1787.92684,-0.00008
1785.99811,-0.00004
1784.06939,0.00003
1782.14067,0.00021
1780.21194,0.00048
1778.28322,0.00073
1776.35450,0.00084
1774.42577,0.00096
1772.49705,0.00134
1770.56832,0.00188
1768.63960,0.00221
1766.71088,0.00233
1764.78215,0.00243
1762.85343,0.00263
1760.92471,0.00293
1758.99598,0.00321
1757.06726,0.00354
1755.13854,0.00395
1753.20981,0.00429
1751.28109,0.00462
1749.35236,0.00515
1747.42364,0.00582
1745.49492,0.00646
1743.56619,0.00708
1741.63747,0.00785
1739.70875,0.00883
1737.78002,0.00979
1735.85130,0.01082
1733.92257,0.01235
1731.99385,0.01410
1730.06513,0.01555
1728.13640,0.01684
1726.20768,0.01812
1724.27896,0.01944
1722.35023,0.02065
1720.42151,0.02172
1718.49279,0.02322
1716.56406,0.02543
1714.63534,0.02754
1712.70661,0.02916
1710.77789,0.03064
1708.84917,0.03227
1706.92044,0.03425
1704.99172,0.03645
1703.06300,0.03853
1701.13427,0.04091
1699.20555,0.04409
1697.27683,0.04762
1695.34810,0.05123
1693.41938,0.05450
1691.49065,0.05730
1689.56193,0.06006
1687.63321,0.06277
1685.70448,0.06597
1683.77576,0.07043
1681.84704,0.07473
1679.91831,0.07775
1677.98959,0.08027
1676.06087,0.08324
1674.13214,0.08667
1672.20342,0.08996
1670.27469,0.09337
1668.34597,0.09696
1666.41725,0.09991
1664.48852,0.10247
1662.55980,0.10542
1660.63108,0.10844
1658.70235,0.11082
1656.77363,0.11263
1654.84490,0.11490
1652.91618,0.11826
1650.98746,0.12100
1649.05873,0.12249
1647.13001,0.12417
1645.20129,0.12632
1643.27256,0.12796
1641.34384,0.12889
1639.41512,0.12936
1637.48639,0.12976
1635.55767,0.13051
1633.62894,0.13114
1631.70022,0.13098
1629.77150,0.13002
1627.84277,0.12857
1625.91405,0.12681
1623.98533,0.12465
1622.05660,0.12212
1620.12788,0.11936
1618.19916,0.11592
1616.27043,0.11150
1614.34171,0.10702
1612.41298,0.10292
1610.48426,0.09861
1608.55554,0.09394
1606.62681,0.08929
1604.69809,0.08485
1602.76937,0.08059
1600.84064,0.07655
1598.91192,0.07279
1596.98319,0.06925
1595.05447,0.06597
1593.12575,0.06301
1591.19702,0.06032
1589.26830,0.05776
1587.33958,0.05529
1585.41085,0.05299
1583.48213,0.05097
1581.55341,0.04925
1579.62468,0.04769
1577.69596,0.04608
1575.76723,0.04445
1573.83851,0.04313
1571.90979,0.04205
1569.98106,0.04105
1568.05234,0.04024
1566.12362,0.03959
1564.19489,0.03889
1562.26617,0.03798
1560.33745,0.03697
1558.40872,0.03626
1556.48000,0.03599
1554.55127,0.03577
1552.62255,0.03537
1550.69383,0.03486
1548.76510,0.03431
1546.83638,0.03367
1544.90766,0.03281
1542.97893,0.03179
1541.05021,0.03076
1539.12148,0.02989
1537.19276,0.02916
1535.26404,0.02827
1533.33531,0.02722
1531.40659,0.02624
1529.47787,0.02526
1527.54914,0.02404
1525.62042,0.02267
1523.69170,0.02135
1521.76297,0.02014
1519.83425,0.01904
1517.90552,0.01796
1515.97680,0.01686
1514.04808,0.01573
1512.11935,0.01446
1510.19063,0.01299
1508.26191,0.01133
1506.33318,0.00953
1504.40446,0.00802
1502.47574,0.00683
1500.54701,0.00560
1498.61829,0.00430
1496.68956,0.00315
1494.76084,0.00228
1492.83212,0.00153
1490.90339,0.00080
1488.97467,0.00025
1487.04595,0.00000
1485.11722,-0.00006
1483.18850,0.00004
1481.25977,0.00025
1479.33105,0.00049
1477.40233,0.00071
1475.47360,0.00122
1473.54488,0.00249
1471.61616,0.00431
1469.68743,0.00578
1467.75871,0.00660
1465.82999,0.00718
1463.90126,0.00773
1461.97254,0.00805
1460.04381,0.00802
1458.11509,0.00801
1456.18637,0.00826
1454.25764,0.00843
1452.32892,0.00836
1450.40020,0.00820
1448.47147,0.00819
1446.54275,0.00838
1444.61403,0.00862
1442.68530,0.00871
1440.75658,0.00865
1438.82785,0.00857
1436.89913,0.00863
1434.97041,0.00882
1433.04168,0.00896
1431.11296,0.00912
1429.18424,0.00940
1427.25551,0.00970
1425.32679,0.00996
1423.39806,0.01022
1421.46934,0.01059
1419.54062,0.01122
1417.61189,0.01214
1415.68317,0.01307
1413.75445,0.01395
1411.82572,0.01491
1409.89700,0.01602
1407.96828,0.01722
1406.03955,0.01846
1404.11083,0.01949
1402.18210,0.01994
1400.25338,0.01972
1398.32466,0.01892
1396.39593,0.01759
1394.46721,0.01590
1392.53849,0.01420
1390.60976,0.01267
1388.68104,0.01123
1386.75232,0.00987
1384.82359,0.00881
1382.89487,0.00811
1380.96614,0.00757
1379.03742,0.00688
1377.10870,0.00595
1375.17997,0.00493
1373.25125,0.00402
1371.32253,0.00328
1369.39380,0.00266
1367.46508,0.00213
1365.53635,0.00165
1363.60763,0.00118
1361.67891,0.00074
1359.75018,0.00034
1357.82146,0.00000
1355.89274,-0.00038
1353.96401,-0.00064
1352.03529,-0.00080
1350.10657,-0.00088
1348.17784,-0.00096
1346.24912,-0.00114
1344.32039,-0.00146
1342.39167,-0.00179
1340.46295,-0.00197
1338.53422,-0.00196
1336.60550,-0.00188
1334.67678,-0.00177
1332.74805,-0.00163
1330.81933,-0.00146
1328.89061,-0.00123
1326.96188,-0.00095
1325.03316,-0.00066
1323.10443,-0.00037
1321.17571,-0.00005
1319.24699,0.00035
1317.31826,0.00079
1315.38954,0.00128
1313.46082,0.00188
1311.53209,0.00264
1309.60337,0.00347
1307.67464,0.00434
1305.74592,0.00526
1303.81720,0.00626
1301.88847,0.00737
1299.95975,0.00858
1298.03103,0.00992
1296.10230,0.01145
1294.17358,0.01317
1292.24486,0.01501
1290.31613,0.01698
1288.38741,0.01906
1286.45868,0.02124
1284.52996,0.02366
1282.60124,0.02650
1280.67251,0.02977
1278.74379,0.03333
1276.81507,0.03713
1274.88634,0.04121
1272.95762,0.04566
1271.02890,0.05065
1269.10017,0.05626
1267.17145,0.06249
1265.24272,0.06947
1263.31400,0.07748
1261.38528,0.08668
1259.45655,0.09698
1257.52783,0.10815
1255.59911,0.12005
1253.67038,0.13249
1251.74166,0.14514
1249.81294,0.15776
1247.88421,0.17022
1245.95549,0.18222
1244.02676,0.19340
1242.09804,0.20367
1240.16932,0.21315
1238.24059,0.22192
1236.31187,0.23004
1234.38315,0.23760
1232.45442,0.24456
1230.52570,0.25079
1228.59697,0.25643
1226.66825,0.26185
1224.73953,0.26715
1222.81080,0.27199
1220.88208,0.27636
1218.95336,0.28070
1217.02463,0.28515
1215.09591,0.28957
1213.16719,0.29373
1211.23846,0.29755
1209.30974,0.30116
1207.38101,0.30486
1205.45229,0.30887
1203.52357,0.31296
1201.59484,0.31667
1199.66612,0.31981
1197.73740,0.32287
1195.80867,0.32620
1193.87995,0.32958
1191.95123,0.33295
1190.02250,0.33629
1188.09378,0.33946
1186.16505,0.34241
1184.23633,0.34537
1182.30761,0.34855
1180.37888,0.35195
1178.45016,0.35538
1176.52144,0.35858
1174.59271,0.36152
1172.66399,0.36440
1170.73526,0.36746
1168.80654,0.37062
1166.87782,0.37367
1164.94909,0.37660
1163.02037,0.37960
1161.09165,0.38274
1159.16292,0.38592
1157.23420,0.38884
1155.30548,0.39143
1153.37675,0.39407
1151.44803,0.39697
1149.51930,0.39992
1147.59058,0.40273
1145.66186,0.40547
1143.73313,0.40847
1141.80441,0.41176
1139.87569,0.41502
1137.94696,0.41811
1136.01824,0.42133
1134.08952,0.42498
1132.16079,0.42891
1130.23207,0.43310
1128.30334,0.43737
1126.37462,0.44151
1124.44590,0.44578
1122.51717,0.45039
1120.58845,0.45511
1118.65973,0.45971
1116.73100,0.46466
1114.80228,0.47024
1112.87355,0.47599
1110.94483,0.48169
1109.01611,0.48753
1107.08738,0.49362
1105.15866,0.49971
1103.22994,0.50523
1101.30121,0.51011
1099.37249,0.51465
1097.44377,0.51868
1095.51504,0.52195
1093.58632,0.52467
1091.65759,0.52718
1089.72887,0.52968
1087.80015,0.53158
1085.87142,0.53267
1083.94270,0.53361
1082.01398,0.53428
1080.08525,0.53428
1078.15653,0.53381
1076.22781,0.53350
1074.29908,0.53347
1072.37036,0.53331
1070.44163,0.53303
1068.51291,0.53264
1066.58419,0.53196
1064.65546,0.53115
1062.72674,0.53038
1060.79802,0.52938
1058.86929,0.52806
1056.94057,0.52628
1055.01184,0.52400
1053.08312,0.52151
1051.15440,0.51887
1049.22567,0.51645
1047.29695,0.51432
1045.36823,0.51152
1043.43950,0.50763
1041.51078,0.50308
1039.58206,0.49796
1037.65333,0.49216
1035.72461,0.48635
1033.79588,0.48054
1031.86716,0.47364
1029.93844,0.46595
1028.00971,0.45862
1026.08099,0.45150
1024.15227,0.44426
1022.22354,0.43677
1020.29482,0.42886
1018.36610,0.42136
1016.43737,0.41470
1014.50865,0.40790
1012.57992,0.40041
1010.65120,0.39249
1008.72248,0.38418
1006.79375,0.37541
1004.86503,0.36637
1002.93631,0.35703
1001.00758,0.34742
999.07886,0.33809
997.15013,0.32914
995.22141,0.32005
993.29269,0.31080
991.36396,0.30185
989.43524,0.29332
987.50652,0.28529
985.57779,0.27769
983.64907,0.27031
981.72035,0.26343
979.79162,0.25737
977.86290,0.25220
975.93417,0.24767
974.00545,0.24328
972.07673,0.23896
970.14800,0.23499
968.21928,0.23168
966.29056,0.22897
964.36183,0.22662
962.43311,0.22463
960.50439,0.22302
958.57566,0.22139
956.64694,0.21913
954.71821,0.21639
952.78949,0.21381
950.86077,0.21161
948.93204,0.20968
947.00332,0.20793
945.07460,0.20638
943.14587,0.20495
941.21715,0.20340
939.28842,0.20157
937.35970,0.19955
935.43098,0.19734
933.50225,0.19469
931.57353,0.19196
929.64481,0.18990
927.71608,0.18829
925.78736,0.18647
923.85864,0.18434
921.92991,0.18232
920.00119,0.18077
918.07246,0.17929
916.14374,0.17733
914.21502,0.17466
912.28629,0.17103
910.35757,0.16624
908.42885,0.16045
906.50012,0.15403
904.57140,0.14749
902.64268,0.14146
900.71395,0.13601
898.78523,0.13046
896.85650,0.12463
894.92778,0.11914
892.99906,0.11435
891.07033,0.11016
889.14161,0.10635
887.21289,0.10279
885.28416,0.09923
883.35544,0.09541
881.42671,0.09142
879.49799,0.08761
877.56927,0.08432
875.64054,0.08157
873.71182,0.07895
871.78310,0.07604
869.85437,0.07276
867.92565,0.06928
865.99693,0.06568
864.06820,0.06237
862.13948,0.05987
860.21075,0.05778
858.28203,0.05543
856.35331,0.05301
854.42458,0.05090
852.49586,0.04888
850.56714,0.04711
848.63841,0.04630
846.70969,0.04630
844.78097,0.04614
842.85224,0.04607
840.92352,0.04696
838.99479,0.04838
837.06607,0.04969
835.13735,0.05127
833.20862,0.05337
831.27990,0.05567
829.35118,0.05824
827.42245,0.06120
825.49373,0.06412
823.56501,0.06689
821.63628,0.06982
819.70756,0.07307
817.77883,0.07644
815.85011,0.07977
813.92139,0.08331
811.99266,0.08753
810.06394,0.09252
808.13522,0.09786
806.20649,0.10324
804.27777,0.10849
802.34904,0.11297
800.42032,0.11602
798.49160,0.11777
796.56287,0.11851
794.63415,0.11819
792.70543,0.11702
790.77670,0.11539
788.84798,0.11307
786.91926,0.10990
784.99053,0.10706
783.06181,0.10517
781.13308,0.10269
779.20436,0.09893
777.27564,0.09504
775.34691,0.09143
773.41819,0.08766
771.48947,0.08398
769.56074,0.08089
767.63202,0.07846
765.70330,0.07691
763.77457,0.07630
761.84585,0.07595
759.91712,0.07534
757.98840,0.07467
756.05968,0.07417
754.13095,0.07368
752.20223,0.07311
750.27351,0.07265
748.34478,0.07239
746.41606,0.07218
744.48733,0.07217
742.55861,0.07234
740.62989,0.07212
738.70116,0.07146
736.77244,0.07057
734.84372,0.06942
732.91499,0.06871
730.98627,0.06901
729.05755,0.06978
727.12882,0.07026
725.20010,0.07046
723.27137,0.07039
721.34265,0.06984
719.41393,0.06914
717.48520,0.06855
715.55648,0.06816
713.62776,0.06830
711.69903,0.06902
709.77031,0.07012
707.84159,0.07137
705.91286,0.07224
703.98414,0.07278
702.05541,0.07360
700.12669,0.07465
698.19797,0.07539
696.26924,0.07577
694.34052,0.07599
692.41180,0.07582
690.48307,0.07522
688.55435,0.07455
686.62562,0.07370
684.69690,0.07253
682.76818,0.07157
680.83945,0.07128
678.91073,0.07126
676.98201,0.07106
675.05328,0.07078
673.12456,0.07028
671.19584,0.06950
669.26711,0.06902
667.33839,0.06911
665.40966,0.06929
663.48094,0.06973
661.55222,0.07055
659.62349,0.07107
657.69477,0.07119
655.76605,0.07193
653.83732,0.07381
651.90860,0.07609
649.97988,0.07801
648.05115,0.07988
646.12243,0.08241
644.19370,0.08580
642.26498,0.08950
640.33626,0.09281
638.40753,0.09536
636.47881,0.09729
634.55009,0.09882
632.62136,0.10017
630.69264,0.10158
628.76391,0.10323
626.83519,0.10495
624.90647,0.10607
622.97774,0.10673
621.04902,0.10810
619.12030,0.11031
617.19157,0.11212
615.26285,0.11304
613.33413,0.11406
611.40540,0.11594
609.47668,0.11829
607.54795,0.12051
605.61923,0.12298
603.69051,0.12624
601.76178,0.12975
599.83306,0.13305
597.90434,0.13661
595.97561,0.13990
594.04689,0.14203
592.11817,0.14386
590.18944,0.14623
588.26072,0.14861
586.33199,0.15048
584.40327,0.15196
582.47455,0.15354
580.54582,0.15536
578.61710,0.15661
576.68838,0.15665
574.75965,0.15599
572.83093,0.15562
570.90220,0.15650
568.97348,0.15823
567.04476,0.15918
565.11603,0.15926
563.18731,0.15981
561.25859,0.16123
559.32986,0.16291
557.40114,0.16463
555.47242,0.16679
553.54369,0.16979
551.61497,0.17414
549.68624,0.17965
547.75752,0.18390
545.82880,0.18509
543.90007,0.18544
541.97135,0.18770
540.04263,0.19138
538.11390,0.19457
536.18518,0.19655
534.25646,0.19722
532.32773,0.19675
530.39901,0.19614
528.47028,0.19601
526.54156,0.19630
524.61284,0.19678
522.68411,0.19652
520.75539,0.19478
518.82667,0.19250
516.89794,0.19119
514.96922,0.19135
513.04049,0.19303
511.11177,0.19523
509.18305,0.19626
507.25432,0.19649
505.32560,0.19699
503.39688,0.19795
501.46815,0.20046
499.53943,0.20556
497.61071,0.21276
495.68198,0.22160
493.75326,0.23219
491.82453,0.24296
489.89581,0.25120
487.96709,0.25784
486.03836,0.26737
484.10964,0.28154
482.18092,0.29636
480.25219,0.30649
478.32347,0.31222
476.39475,0.31799
474.46602,0.32436
472.53730,0.32940
470.60857,0.33431
468.67985,0.33906
466.75113,0.34088
464.82240,0.34067
462.89368,0.34168
460.96496,0.34170
459.03623,0.33516
457.10751,0.32311
455.17878,0.31282
453.25006,0.30779
451.32134,0.30578
449.39261,0.30250
447.46389,0.29589
445.53517,0.28760
443.60644,0.27998
441.67772,0.27417
439.74900,0.26943
437.82027,0.26340
435.89155,0.25550
433.96282,0.24859
432.03410,0.24437
430.10538,0.24033
428.17665,0.23366
426.24793,0.22507
424.31921,0.21749
422.39048,0.21262
420.46176,0.20756
418.53304,0.19737
416.60431,0.18534
414.67559,0.17715
412.74686,0.16928
410.81814,0.15888
408.88942,0.15086
406.96069,0.14953
405.03197,0.15105
403.10325,0.14902
401.17452,0.14604
399.24580,0.15006
397.31708,0.15288
395.38835,0.13790
393.45963,0.11407
391.53090,0.09728
389.60218,0.09039
387.67346,0.09152
385.74473,0.09572
383.81601,0.09766
381.88729,0.09639
379.95856,0.09157
378.02984,0.08811
376.10111,0.08897
374.17239,0.08190
372.24367,0.06048
370.31494,0.03088
368.38622,0.00000
