3996.31543,0.00022
3994.38671,0.00035
3992.45799,0.00043
3990.52926,0.00051
3988.60054,0.00049
3986.67182,0.00026
3984.74309,0.00000
3982.81437,-0.00001
3980.88564,0.00026
3978.95692,0.00050
3977.02820,0.00051
3975.09947,0.00041
3973.17075,0.00044
3971.24203,0.00057
3969.31330,0.00064
3967.38458,0.00062
3965.45586,0.00053
3963.52713,0.00046
3961.59841,0.00053
3959.66968,0.00075
3957.74096,0.00092
3955.81224,0.00097
3953.88351,0.00100
3951.95479,0.00101
3950.02607,0.00092
3948.09734,0.00072
3946.16862,0.00046
3944.23990,0.00041
3942.31117,0.00063
3940.38245,0.00088
3938.45372,0.00097
3936.52500,0.00099
3934.59628,0.00104
3932.66755,0.00112
3930.73883,0.00113
3928.81011,0.00113
3926.88138,0.00116
3924.95266,0.00113
3923.02393,0.00100
3921.09521,0.00086
3919.16649,0.00086
3917.23776,0.00100
3915.30904,0.00108
3913.38032,0.00105
3911.45159,0.00098
3909.52287,0.00089
3907.59415,0.00091
3905.66542,0.00115
3903.73670,0.00139
3901.80797,0.00141
3899.87925,0.00126
3897.95053,0.00100
3896.02180,0.00071
3894.09308,0.00065
3892.16436,0.00087
3890.23563,0.00111
3888.30691,0.00118
3886.37819,0.00110
3884.44946,0.00098
3882.52074,0.00092
3880.59201,0.00100
3878.66329,0.00111
3876.73457,0.00114
3874.80584,0.00114
3872.87712,0.00119
3870.94840,0.00130
3869.01967,0.00140
3867.09095,0.00135
3865.16222,0.00123
3863.23350,0.00120
3861.30478,0.00124
3859.37605,0.00129
3857.44733,0.00130
3855.51861,0.00123
3853.58988,0.00110
3851.66116,0.00104
3849.73244,0.00119
3847.80371,0.00143
3845.87499,0.00156
3843.94626,0.00151
3842.01754,0.00138
3840.08882,0.00142
3838.16009,0.00164
3836.23137,0.00176
3834.30265,0.00180
3832.37392,0.00199
3830.44520,0.00228
3828.51648,0.00235
3826.58775,0.00219
3824.65903,0.00201
3822.73030,0.00203
3820.80158,0.00226
3818.87286,0.00254
3816.94413,0.00268
3815.01541,0.00262
3813.08669,0.00255
3811.15796,0.00261
3809.22924,0.00270
3807.30052,0.00278
3805.37179,0.00294
3803.44307,0.00321
3801.51434,0.00350
3799.58562,0.00366
3797.65690,0.00378
3795.72817,0.00406
3793.79945,0.00436
3791.87073,0.00451
3789.94200,0.00459
3788.01328,0.00475
3786.08455,0.00506
3784.15583,0.00540
3782.22711,0.00563
3780.29838,0.00583
3778.36966,0.00607
3776.44094,0.00631
3774.51221,0.00658
3772.58349,0.00691
3770.65477,0.00727
3768.72604,0.00763
3766.79732,0.00804
3764.86859,0.00849
3762.93987,0.00902
3761.01115,0.00959
3759.08242,0.01014
3757.15370,0.01062
3755.22498,0.01102
3753.29625,0.01140
3751.36753,0.01193
3749.43881,0.01281
3747.51008,0.01394
3745.58136,0.01515
3743.65263,0.01626
3741.72391,0.01710
3739.79519,0.01771
3737.86646,0.01842
3735.93774,0.01961
3734.00902,0.02121
3732.08029,0.02284
3730.15157,0.02444
3728.22284,0.02623
3726.29412,0.02847
3724.36540,0.03118
3722.43667,0.03442
3720.50795,0.03831
3718.57923,0.04269
3716.65050,0.04714
3714.72178,0.05166
3712.79306,0.05712
3710.86433,0.06382
3708.93561,0.07031
3707.00688,0.07553
3705.07816,0.07999
3703.14944,0.08458
3701.22071,0.08942
3699.29199,0.09377
3697.36327,0.09727
3695.43454,0.10011
3693.50582,0.10252
3691.57710,0.10497
3689.64837,0.10814
3687.71965,0.11190
3685.79092,0.11545
3683.86220,0.11882
3681.93348,0.12247
3680.00475,0.12636
3678.07603,0.13062
3676.14731,0.13606
3674.21858,0.14214
3672.28986,0.14728
3670.36113,0.15230
3668.43241,0.15770
3666.50369,0.16241
3664.57496,0.16653
3662.64624,0.17076
3660.71752,0.17510
3658.78879,0.17950
3656.86007,0.18427
3654.93135,0.18894
3653.00262,0.19261
3651.07390,0.19621
3649.14517,0.20133
3647.21645,0.20714
3645.28773,0.21172
3643.35900,0.21520
3641.43028,0.21862
3639.50156,0.22229
3637.57283,0.22589
3635.64411,0.22925
3633.71539,0.23226
3631.78666,0.23486
3629.85794,0.23766
3627.92921,0.24094
3626.00049,0.24352
3624.07177,0.24488
3622.14304,0.24551
3620.21432,0.24579
3618.28560,0.24572
3616.35687,0.24537
3614.42815,0.24494
3612.49942,0.24455
3610.57070,0.24423
3608.64198,0.24400
3606.71325,0.24387
3604.78453,0.24373
3602.85581,0.24364
3600.92708,0.24373
3598.99836,0.24389
3597.06964,0.24392
3595.14091,0.24398
3593.21219,0.24430
3591.28346,0.24474
3589.35474,0.24509
3587.42602,0.24555
3585.49729,0.24627
3583.56857,0.24695
3581.63985,0.24736
3579.71112,0.24771
3577.78240,0.24834
3575.85368,0.24921
3573.92495,0.25012
3571.99623,0.25098
3570.06750,0.25172
3568.13878,0.25244
3566.21006,0.25333
3564.28133,0.25431
3562.35261,0.25525
3560.42389,0.25616
3558.49516,0.25699
3556.56644,0.25771
3554.63771,0.25846
3552.70899,0.25934
3550.78027,0.26020
3548.85154,0.26106
3546.92282,0.26210
3544.99410,0.26328
3543.06537,0.26442
3541.13665,0.26544
3539.20793,0.26633
3537.27920,0.26711
3535.35048,0.26784
3533.42175,0.26863
3531.49303,0.26958
3529.56431,0.27060
3527.63558,0.27155
3525.70686,0.27239
3523.77814,0.27320
3521.84941,0.27412
3519.92069,0.27519
3517.99197,0.27640
3516.06324,0.27770
3514.13452,0.27910
3512.20579,0.28040
3510.27707,0.28129
3508.34835,0.28188
3506.41962,0.28262
3504.49090,0.28369
3502.56218,0.28492
3500.63345,0.28614
3498.70473,0.28737
3496.77600,0.28852
3494.84728,0.28949
3492.91856,0.29023
3490.98983,0.29081
3489.06111,0.29149
3487.13239,0.29252
3485.20366,0.29378
3483.27494,0.29491
3481.34622,0.29587
3479.41749,0.29679
3477.48877,0.29780
3475.56004,0.29881
3473.63132,0.29963
3471.70260,0.30043
3469.77387,0.30137
3467.84515,0.30238
3465.91643,0.30331
3463.98770,0.30409
3462.05898,0.30475
3460.13026,0.30525
3458.20153,0.30558
3456.27281,0.30600
3454.34408,0.30658
3452.41536,0.30710
3450.48664,0.30761
3448.55791,0.30826
3446.62919,0.30896
3444.70047,0.30952
3442.77174,0.30997
3440.84302,0.31047
3438.91429,0.31100
3436.98557,0.31155
3435.05685,0.31206
3433.12812,0.31253
3431.19940,0.31297
3429.27068,0.31321
3427.34195,0.31327
3425.41323,0.31344
3423.48451,0.31382
3421.55578,0.31411
3419.62706,0.31413
3417.69833,0.31419
3415.76961,0.31451
3413.84089,0.31486
3411.91216,0.31500
3409.98344,0.31500
3408.05472,0.31495
3406.12599,0.31484
3404.19727,0.31471
3402.26855,0.31461
3400.33982,0.31462
3398.41110,0.31484
3396.48237,0.31508
3394.55365,0.31501
3392.62493,0.31461
3390.69620,0.31414
3388.76748,0.31379
3386.83876,0.31363
3384.91003,0.31352
3382.98131,0.31327
3381.05259,0.31294
3379.12386,0.31254
3377.19514,0.31199
3375.26641,0.31156
3373.33769,0.31148
3371.40897,0.31137
3369.48024,0.31094
3367.55152,0.31030
3365.62280,0.30955
3363.69407,0.30891
3361.76535,0.30846
3359.83662,0.30803
3357.90790,0.30747
3355.97918,0.30672
3354.05045,0.30602
3352.12173,0.30558
3350.19301,0.30504
3348.26428,0.30404
3346.33556,0.30301
3344.40684,0.30241
3342.47811,0.30210
3340.54939,0.30162
3338.62066,0.30083
3336.69194,0.29991
3334.76322,0.29910
3332.83449,0.29852
3330.90577,0.29806
3328.97705,0.29753
3327.04832,0.29694
3325.11960,0.29627
3323.19088,0.29538
3321.26215,0.29457
3319.33343,0.29405
3317.40470,0.29350
3315.47598,0.29270
3313.54726,0.29193
3311.61853,0.29134
3309.68981,0.29078
3307.76109,0.29007
3305.83236,0.28934
3303.90364,0.28878
3301.97491,0.28827
3300.04619,0.28762
3298.11747,0.28689
3296.18874,0.28619
3294.26002,0.28554
3292.33130,0.28501
3290.40257,0.28453
3288.47385,0.28402
3286.54513,0.28351
3284.61640,0.28302
3282.68768,0.28253
3280.75895,0.28202
3278.83023,0.28148
3276.90151,0.28092
3274.97278,0.28033
3273.04406,0.27976
3271.11534,0.27923
3269.18661,0.27863
3267.25789,0.27792
3265.32917,0.27728
3263.40044,0.27686
3261.47172,0.27638
3259.54299,0.27558
3257.61427,0.27478
3255.68555,0.27431
3253.75682,0.27389
3251.82810,0.27322
3249.89938,0.27250
3247.97065,0.27184
3246.04193,0.27104
3244.11320,0.27014
3242.18448,0.26956
3240.25576,0.26927
3238.32703,0.26882
3236.39831,0.26802
3234.46959,0.26711
3232.54086,0.26631
3230.61214,0.26558
3228.68342,0.26482
3226.75469,0.26400
3224.82597,0.26315
3222.89724,0.26221
3220.96852,0.26120
3219.03980,0.26028
3217.11107,0.25938
3215.18235,0.25842
3213.25363,0.25738
3211.32490,0.25631
3209.39618,0.25525
3207.46746,0.25428
3205.53873,0.25340
3203.61001,0.25243
3201.68128,0.25134
3199.75256,0.25033
3197.82384,0.24937
3195.89511,0.24829
3193.96639,0.24721
3192.03767,0.24627
3190.10894,0.24531
3188.18022,0.24413
3186.25149,0.24277
3184.32277,0.24143
3182.39405,0.24024
3180.46532,0.23926
3178.53660,0.23835
3176.60788,0.23728
3174.67915,0.23603
3172.75043,0.23480
3170.82171,0.23366
3168.89298,0.23258
3166.96426,0.23154
3165.03553,0.23052
3163.10681,0.22940
3161.17809,0.22808
3159.24936,0.22665
3157.32064,0.22538
3155.39192,0.22432
3153.46319,0.22329
3151.53447,0.22220
3149.60575,0.22097
3147.67702,0.21976
3145.74830,0.21876
3143.81957,0.21777
3141.89085,0.21660
3139.96213,0.21541
3138.03340,0.21434
3136.10468,0.21334
3134.17596,0.21233
3132.24723,0.21118
3130.31851,0.20990
3128.38978,0.20868
3126.46106,0.20752
3124.53234,0.20629
3122.60361,0.20507
3120.67489,0.20394
3118.74617,0.20276
3116.81744,0.20151
3114.88872,0.20033
3112.96000,0.19923
3111.03127,0.19821
3109.10255,0.19719
3107.17382,0.19608
3105.24510,0.19481
3103.31638,0.19342
3101.38765,0.19209
3099.45893,0.19085
3097.53021,0.18959
3095.60148,0.18828
3093.67276,0.18711
3091.74404,0.18610
3089.81531,0.18502
3087.88659,0.18369
3085.95786,0.18225
3084.02914,0.18092
3082.10042,0.17980
3080.17169,0.17878
3078.24297,0.17768
3076.31425,0.17642
3074.38552,0.17515
3072.45680,0.17399
3070.52807,0.17283
3068.59935,0.17165
3066.67063,0.17054
3064.74190,0.16939
3062.81318,0.16815
3060.88446,0.16693
3058.95573,0.16579
3057.02701,0.16470
3055.09829,0.16363
3053.16956,0.16259
3051.24084,0.16162
3049.31211,0.16067
3047.38339,0.15963
3045.45467,0.15845
3043.52594,0.15724
3041.59722,0.15621
3039.66850,0.15533
3037.73977,0.15441
3035.81105,0.15332
3033.88233,0.15212
3031.95360,0.15101
3030.02488,0.15004
3028.09615,0.14904
3026.16743,0.14797
3024.23871,0.14703
3022.30998,0.14620
3020.38126,0.14532
3018.45254,0.14431
3016.52381,0.14322
3014.59509,0.14222
3012.66636,0.14136
3010.73764,0.14042
3008.80892,0.13939
3006.88019,0.13854
3004.95147,0.13785
3003.02275,0.13709
3001.09402,0.13618
2999.16530,0.13532
2997.23658,0.13470
2995.30785,0.13406
2993.37913,0.13324
2991.45040,0.13240
2989.52168,0.13166
2987.59296,0.13106
2985.66423,0.13061
2983.73551,0.13028
2981.80679,0.13002
2979.87806,0.12985
2977.94934,0.12974
2976.02062,0.12963
2974.09189,0.12959
2972.16317,0.12977
2970.23444,0.13004
2968.30572,0.13021
2966.37700,0.13023
2964.44827,0.13009
2962.51955,0.12980
2960.59083,0.12939
2958.66210,0.12881
2956.73338,0.12798
2954.80466,0.12693
2952.87593,0.12567
2950.94721,0.12438
2949.01848,0.12338
2947.08976,0.12286
2945.16104,0.12279
2943.23231,0.12303
2941.30359,0.12354
2939.37487,0.12433
2937.44614,0.12533
2935.51742,0.12633
2933.58869,0.12714
2931.65997,0.12777
2929.73125,0.12821
2927.80252,0.12828
2925.87380,0.12768
2923.94508,0.12627
2922.01635,0.12413
2920.08763,0.12145
2918.15891,0.11856
2916.23018,0.11571
2914.30146,0.11311
2912.37273,0.11088
2910.44401,0.10891
2908.51529,0.10699
2906.58656,0.10510
2904.65784,0.10336
2902.72912,0.10178
2900.80039,0.10030
2898.87167,0.09888
2896.94295,0.09748
2895.01422,0.09612
2893.08550,0.09483
2891.15677,0.09361
2889.22805,0.09244
2887.29933,0.09132
2885.37060,0.09034
2883.44188,0.08959
2881.51316,0.08909
2879.58443,0.08866
2877.65571,0.08823
2875.72698,0.08792
2873.79826,0.08767
2871.86954,0.08717
2869.94081,0.08639
2868.01209,0.08574
2866.08337,0.08542
2864.15464,0.08541
2862.22592,0.08572
2860.29720,0.08628
2858.36847,0.08692
2856.43975,0.08729
2854.51102,0.08700
2852.58230,0.08585
2850.65358,0.08377
2848.72485,0.08094
2846.79613,0.07795
2844.86741,0.07515
2842.93868,0.07256
2841.00996,0.07032
2839.08124,0.06849
2837.15251,0.06687
2835.22379,0.06534
2833.29506,0.06394
2831.36634,0.06278
2829.43762,0.06183
2827.50889,0.06098
2825.58017,0.06011
2823.65145,0.05927
2821.72272,0.05856
2819.79400,0.05787
2817.86527,0.05706
2815.93655,0.05627
2814.00783,0.05557
2812.07910,0.05492
2810.15038,0.05424
2808.22166,0.05350
2806.29293,0.05277
2804.36421,0.05214
2802.43549,0.05152
2800.50676,0.05089
2798.57804,0.05028
2796.64931,0.04962
2794.72059,0.04899
2792.79187,0.04851
2790.86314,0.04797
2788.93442,0.04723
2787.00570,0.04647
2785.07697,0.04583
2783.14825,0.04530
2781.21953,0.04470
2779.29080,0.04407
2777.36208,0.04355
2775.43335,0.04309
2773.50463,0.04255
2771.57591,0.04194
2769.64718,0.04132
2767.71846,0.04070
2765.78974,0.04011
2763.86101,0.03959
2761.93229,0.03910
2760.00356,0.03862
2758.07484,0.03811
2756.14612,0.03760
2754.21739,0.03708
2752.28867,0.03654
2750.35995,0.03603
2748.43122,0.03551
2746.50250,0.03499
2744.57378,0.03454
2742.64505,0.03412
2740.71633,0.03360
2738.78760,0.03299
2736.85888,0.03243
2734.93016,0.03203
2733.00143,0.03171
2731.07271,0.03133
2729.14399,0.03083
2727.21526,0.03030
2725.28654,0.02976
2723.35782,0.02922
2721.42909,0.02875
2719.50037,0.02839
2717.57164,0.02804
2715.64292,0.02762
2713.71420,0.02715
2711.78547,0.02666
2709.85675,0.02616
2707.92803,0.02572
2705.99930,0.02538
2704.07058,0.02506
2702.14185,0.02466
2700.21313,0.02427
2698.28441,0.02396
2696.35568,0.02362
2694.42696,0.02317
2692.49824,0.02269
2690.56951,0.02224
2688.64079,0.02189
2686.71207,0.02166
2684.78334,0.02133
2682.85462,0.02083
2680.92589,0.02037
2678.99717,0.02006
2677.06845,0.01971
2675.13972,0.01926
2673.21100,0.01882
2671.28228,0.01842
2669.35355,0.01802
2667.42483,0.01767
2665.49611,0.01739
2663.56738,0.01715
2661.63866,0.01688
2659.70993,0.01652
2657.78121,0.01613
2655.85249,0.01576
2653.92376,0.01538
2651.99504,0.01502
2650.06632,0.01473
2648.13759,0.01446
2646.20887,0.01421
2644.28014,0.01402
2642.35142,0.01377
2640.42270,0.01339
2638.49397,0.01300
2636.56525,0.01276
2634.63653,0.01258
2632.70780,0.01231
2630.77908,0.01194
2628.85036,0.01163
2626.92163,0.01139
2624.99291,0.01113
2623.06418,0.01086
2621.13546,0.01062
2619.20674,0.01039
2617.27801,0.01010
2615.34929,0.00977
2613.42057,0.00948
2611.49184,0.00930
2609.56312,0.00913
2607.63440,0.00889
2605.70567,0.00863
2603.77695,0.00840
2601.84822,0.00813
2599.91950,0.00791
2597.99078,0.00777
2596.06205,0.00755
2594.13333,0.00723
2592.20461,0.00702
2590.27588,0.00690
2588.34716,0.00672
2586.41843,0.00653
2584.48971,0.00638
2582.56099,0.00622
2580.63226,0.00600
2578.70354,0.00576
2576.77482,0.00557
2574.84609,0.00542
2572.91737,0.00524
2570.98865,0.00506
2569.05992,0.00494
2567.13120,0.00480
2565.20247,0.00458
2563.27375,0.00437
2561.34503,0.00426
2559.41630,0.00421
2557.48758,0.00412
2555.55886,0.00394
2553.63013,0.00377
2551.70141,0.00363
2549.77269,0.00348
2547.84396,0.00329
2545.91524,0.00312
2543.98651,0.00300
2542.05779,0.00292
2540.12907,0.00286
2538.20034,0.00274
2536.27162,0.00259
2534.34290,0.00248
2532.41417,0.00243
2530.48545,0.00238
2528.55673,0.00232
2526.62800,0.00226
2524.69928,0.00219
2522.77055,0.00208
2520.84183,0.00199
2518.91311,0.00192
2516.98438,0.00184
2515.05566,0.00175
2513.12694,0.00163
2511.19821,0.00149
2509.26949,0.00145
2507.34076,0.00147
2505.41204,0.00141
2503.48332,0.00129
2501.55459,0.00119
2499.62587,0.00114
2497.69715,0.00109
2495.76842,0.00098
2493.83970,0.00085
2491.91098,0.00079
2489.98225,0.00074
2488.05353,0.00067
2486.12480,0.00064
2484.19608,0.00067
2482.26736,0.00067
2480.33863,0.00064
2478.40991,0.00057
2476.48119,0.00050
2474.55246,0.00046
2472.62374,0.00038
2470.69502,0.00027
2468.76629,0.00023
2466.83757,0.00028
2464.90884,0.00032
2462.98012,0.00029
2461.05140,0.00025
2459.12267,0.00022
2457.19395,0.00022
2455.26523,0.00026
2453.33650,0.00032
2451.40778,0.00030
2449.47905,0.00024
2447.55033,0.00026
2445.62161,0.00033
2443.69288,0.00035
2441.76416,0.00032
2439.83544,0.00031
2437.90671,0.00029
2435.97799,0.00026
2434.04927,0.00026
2432.12054,0.00026
2430.19182,0.00025
2428.26309,0.00024
2426.33437,0.00026
2424.40565,0.00030
2422.47692,0.00030
2420.54820,0.00020
2418.61948,0.00007
2416.69075,0.00000
2414.76203,-0.00002
2412.83331,0.00003
2410.90458,0.00016
2408.97586,0.00025
2407.04713,0.00023
2405.11841,0.00016
2403.18969,0.00012
2401.26096,0.00007
2399.33224,0.00005
2397.40352,0.00005
2395.47479,0.00004
2393.54607,0.00001
2391.61734,-0.00001
2389.68862,-0.00001
2387.75990,0.00002
2385.83117,0.00013
2383.90245,0.00027
2381.97373,0.00038
2380.04500,0.00040
2378.11628,0.00029
2376.18756,0.00012
2374.25883,0.00000
2372.33011,-0.00002
2370.40138,0.00002
2368.47266,0.00007
2366.54394,0.00008
2364.61521,0.00008
2362.68649,0.00012
2360.75777,0.00016
2358.82904,0.00008
2356.90032,-0.00007
2354.97160,-0.00011
2353.04287,0.00004
2351.11415,0.00021
2349.18542,0.00021
2347.25670,0.00009
2345.32798,0.00005
2343.39925,0.00018
2341.47053,0.00035
2339.54181,0.00045
2337.61308,0.00046
2335.68436,0.00036
2333.75563,0.00026
2331.82691,0.00021
2329.89819,0.00022
2327.96946,0.00024
2326.04074,0.00022
2324.11202,0.00021
2322.18329,0.00025
2320.25457,0.00030
2318.32585,0.00029
2316.39712,0.00030
2314.46840,0.00033
2312.53967,0.00032
2310.61095,0.00028
2308.68223,0.00025
2306.75350,0.00020
2304.82478,0.00016
2302.89606,0.00014
2300.96733,0.00013
2299.03861,0.00014
2297.10989,0.00018
2295.18116,0.00023
2293.25244,0.00026
2291.32371,0.00033
2289.39499,0.00041
2287.46627,0.00042
2285.53754,0.00040
2283.60882,0.00039
2281.68010,0.00038
2279.75137,0.00034
2277.82265,0.00029
2275.89392,0.00027
2273.96520,0.00030
2272.03648,0.00035
2270.10775,0.00038
2268.17903,0.00038
2266.25031,0.00036
2264.32158,0.00033
2262.39286,0.00031
2260.46414,0.00035
2258.53541,0.00038
2256.60669,0.00033
2254.67796,0.00026
2252.74924,0.00020
2250.82052,0.00016
2248.89179,0.00015
2246.96307,0.00015
2245.03435,0.00013
2243.10562,0.00011
2241.17690,0.00010
2239.24818,0.00013
2237.31945,0.00020
2235.39073,0.00029
2233.46200,0.00035
2231.53328,0.00035
2229.60456,0.00028
2227.67583,0.00014
2225.74711,0.00005
2223.81839,0.00009
2221.88966,0.00013
2219.96094,0.00007
2218.03221,0.00002
2216.10349,0.00004
2214.17477,0.00004
2212.24604,-0.00002
2210.31732,-0.00001
2208.38860,0.00007
2206.45987,0.00007
2204.53115,0.00000
2202.60243,-0.00003
2200.67370,-0.00002
2198.74498,-0.00007
2196.81625,-0.00012
2194.88753,-0.00015
2192.95881,-0.00017
2191.03008,-0.00017
2189.10136,-0.00014
2187.17264,-0.00016
2185.24391,-0.00027
2183.31519,-0.00036
2181.38647,-0.00036
2179.45774,-0.00031
2177.52902,-0.00026
2175.60029,-0.00020
2173.67157,-0.00015
2171.74285,-0.00015
2169.81412,-0.00017
2167.88540,-0.00020
2165.95668,-0.00027
2164.02795,-0.00031
2162.09923,-0.00025
2160.17050,-0.00012
2158.24178,-0.00003
2156.31306,-0.00000
2154.38433,0.00003
2152.45561,0.00007
2150.52689,0.00006
2148.59816,-0.00001
2146.66944,-0.00007
2144.74072,-0.00006
2142.81199,0.00004
2140.88327,0.00013
2138.95454,0.00011
2137.02582,0.00002
2135.09710,-0.00007
2133.16837,-0.00007
2131.23965,-0.00002
2129.31093,-0.00001
2127.38220,0.00003
2125.45348,0.00009
2123.52476,0.00013
2121.59603,0.00012
2119.66731,0.00006
2117.73858,-0.00003
2115.80986,-0.00012
2113.88114,-0.00022
2111.95241,-0.00025
2110.02369,-0.00018
2108.09497,-0.00007
2106.16624,-0.00003
2104.23752,-0.00009
2102.30880,-0.00015
2100.38007,-0.00014
2098.45135,-0.00010
2096.52262,-0.00005
2094.59390,0.00000
2092.66518,-0.00006
2090.73645,-0.00012
2088.80773,-0.00018
2086.87901,-0.00028
2084.95028,-0.00039
2083.02156,-0.00043
2081.09283,-0.00044
2079.16411,-0.00053
2077.23539,-0.00065
2075.30666,-0.00068
2073.37794,-0.00061
2071.44922,-0.00059
2069.52049,-0.00065
2067.59177,-0.00068
2065.66305,-0.00056
2063.73432,-0.00037
2061.80560,-0.00028
2059.87687,-0.00031
2057.94815,-0.00028
2056.01943,-0.00013
2054.09070,0.00001
2052.16198,0.00008
2050.23326,0.00017
2048.30453,0.00032
2046.37581,0.00055
2044.44709,0.00085
2042.51836,0.00113
2040.58964,0.00142
2038.66091,0.00174
2036.73219,0.00203
2034.80347,0.00232
2032.87474,0.00257
2030.94602,0.00279
2029.01730,0.00304
2027.08857,0.00335
2025.15985,0.00364
2023.23112,0.00386
2021.30240,0.00404
2019.37368,0.00422
2017.44495,0.00443
2015.51623,0.00469
2013.58751,0.00496
2011.65878,0.00517
2009.73006,0.00534
2007.80134,0.00545
2005.87261,0.00548
2003.94389,0.00551
2002.01516,0.00559
2000.08644,0.00568
1998.15772,0.00570
1996.22899,0.00568
1994.30027,0.00568
1992.37155,0.00567
1990.44282,0.00562
1988.51410,0.00556
1986.58538,0.00548
1984.65665,0.00537
1982.72793,0.00524
1980.79920,0.00512
1978.87048,0.00503
1976.94176,0.00493
1975.01303,0.00481
1973.08431,0.00463
1971.15559,0.00436
1969.22686,0.00408
1967.29814,0.00385
1965.36941,0.00368
1963.44069,0.00353
1961.51197,0.00339
1959.58324,0.00318
1957.65452,0.00289
1955.72580,0.00263
1953.79707,0.00247
1951.86835,0.00236
1949.93963,0.00226
1948.01090,0.00209
1946.08218,0.00186
1944.15345,0.00168
1942.22473,0.00158
1940.29601,0.00151
1938.36728,0.00141
1936.43856,0.00131
1934.50984,0.00121
1932.58111,0.00115
1930.65239,0.00109
1928.72367,0.00105
1926.79494,0.00107
1924.86622,0.00115
1922.93749,0.00126
1921.00877,0.00139
1919.08005,0.00163
1917.15132,0.00204
1915.22260,0.00247
1913.29388,0.00281
1911.36515,0.00321
1909.43643,0.00380
1907.50770,0.00452
1905.57898,0.00520
1903.65026,0.00578
1901.72153,0.00636
1899.79281,0.00697
1897.86409,0.00763
1895.93536,0.00833
1894.00664,0.00900
1892.07792,0.00954
1890.14919,0.01005
1888.22047,0.01059
1886.29174,0.01108
1884.36302,0.01147
1882.43430,0.01185
1880.50557,0.01221
1878.57685,0.01249
1876.64813,0.01265
1874.71940,0.01266
1872.79068,0.01253
1870.86196,0.01229
1868.93323,0.01198
1867.00451,0.01171
1865.07578,0.01147
1863.14706,0.01114
1861.21834,0.01064
1859.28961,0.00994
1857.36089,0.00912
1855.43217,0.00831
1853.50344,0.00759
1851.57472,0.00693
1849.64599,0.00629
1847.71727,0.00567
1845.78855,0.00503
1843.85982,0.00442
1841.93110,0.00393
1840.00238,0.00353
1838.07365,0.00313
1836.14493,0.00271
1834.21621,0.00232
1832.28748,0.00190
1830.35876,0.00145
1828.43003,0.00110
1826.50131,0.00090
1824.57259,0.00073
1822.64386,0.00057
1820.71514,0.00045
1818.78642,0.00031
1816.85769,0.00015
1814.92897,0.00000
1813.00025,-0.00017
1811.07152,-0.00032
1809.14280,-0.00042
1807.21407,-0.00051
1805.28535,-0.00064
1803.35663,-0.00079
1801.42790,-0.00091
1799.49918,-0.00094
1797.57046,-0.00094
1795.64173,-0.00094
1793.71301,-0.00092
1791.78428,-0.00080
1789.85556,-0.00062
1787.92684,-0.00049
1785.99811,-0.00042
1784.06939,-0.00038
1782.14067,-0.00030
1780.21194,-0.00016
1778.28322,0.00003
1776.35450,0.00019
1774.42577,0.00030
1772.49705,0.00042
1770.56832,0.00060
1768.63960,0.00080
1766.71088,0.00097
1764.78215,0.00114
1762.85343,0.00133
1760.92471,0.00153
1758.99598,0.00170
1757.06726,0.00185
1755.13854,0.00205
1753.20981,0.00224
1751.28109,0.00238
1749.35236,0.00258
1747.42364,0.00295
1745.49492,0.00350
1743.56619,0.00418
1741.63747,0.00490
1739.70875,0.00566
1737.78002,0.00640
1735.85130,0.00724
1733.92257,0.00848
1731.99385,0.00998
1730.06513,0.01138
1728.13640,0.01274
1726.20768,0.01408
1724.27896,0.01538
1722.35023,0.01652
1720.42151,0.01754
1718.49279,0.01889
1716.56406,0.02086
1714.63534,0.02293
1712.70661,0.02469
1710.77789,0.02626
1708.84917,0.02784
1706.92044,0.02964
1704.99172,0.03169
1703.06300,0.03371
1701.13427,0.03600
1699.20555,0.03892
1697.27683,0.04213
1695.34810,0.04544
1693.41938,0.04855
1691.49065,0.05131
1689.56193,0.05404
1687.63321,0.05671
1685.70448,0.05973
1683.77576,0.06378
1681.84704,0.06784
1679.91831,0.07103
1677.98959,0.07387
1676.06087,0.07707
1674.13214,0.08058
1672.20342,0.08392
1670.27469,0.08740
1668.34597,0.09120
1666.41725,0.09452
1664.48852,0.09744
1662.55980,0.10069
1660.63108,0.10402
1658.70235,0.10674
1656.77363,0.10880
1654.84490,0.11106
1652.91618,0.11423
1650.98746,0.11700
1649.05873,0.11872
1647.13001,0.12053
1645.20129,0.12275
1643.27256,0.12452
1641.34384,0.12563
1639.41512,0.12632
1637.48639,0.12680
1635.55767,0.12729
1633.62894,0.12763
1631.70022,0.12744
1629.77150,0.12657
1627.84277,0.12513
1625.91405,0.12326
1623.98533,0.12087
1622.05660,0.11804
1620.12788,0.11494
1618.19916,0.11110
1616.27043,0.10635
1614.34171,0.10178
1612.41298,0.09767
1610.48426,0.09326
1608.55554,0.08839
1606.62681,0.08349
1604.69809,0.07881
1602.76937,0.07429
1600.84064,0.07001
1598.91192,0.06608
1596.98319,0.06249
1595.05447,0.05916
1593.12575,0.05604
1591.19702,0.05311
1589.26830,0.05039
1587.33958,0.04798
1585.41085,0.04582
1583.48213,0.04385
1581.55341,0.04204
1579.62468,0.04034
1577.69596,0.03862
1575.76723,0.03694
1573.83851,0.03562
1571.90979,0.03456
1569.98106,0.03348
1568.05234,0.03245
1566.12362,0.03163
1564.19489,0.03094
1562.26617,0.03019
1560.33745,0.02916
1558.40872,0.02795
1556.48000,0.02718
1554.55127,0.02687
1552.62255,0.02668
1550.69383,0.02645
1548.76510,0.02610
1546.83638,0.02554
1544.90766,0.02469
1542.97893,0.02356
1541.05021,0.02237
1539.12148,0.02154
1537.19276,0.02116
1535.26404,0.02072
1533.33531,0.02000
1531.40659,0.01926
1529.47787,0.01856
1527.54914,0.01768
1525.62042,0.01664
1523.69170,0.01564
1521.76297,0.01467
1519.83425,0.01377
1517.90552,0.01305
1515.97680,0.01246
1514.04808,0.01188
1512.11935,0.01113
1510.19063,0.01002
1508.26191,0.00854
1506.33318,0.00709
1504.40446,0.00622
1502.47574,0.00554
1500.54701,0.00453
1498.61829,0.00327
1496.68956,0.00212
1494.76084,0.00133
1492.83212,0.00078
1490.90339,0.00030
1488.97467,0.00000
1487.04595,-0.00011
1485.11722,-0.00009
1483.18850,-0.00004
1481.25977,0.00004
1479.33105,0.00016
1477.40233,0.00032
1475.47360,0.00074
1473.54488,0.00187
1471.61616,0.00375
1469.68743,0.00554
1467.75871,0.00670
1465.82999,0.00735
1463.90126,0.00768
1461.97254,0.00770
1460.04381,0.00749
1458.11509,0.00726
1456.18637,0.00720
1454.25764,0.00730
1452.32892,0.00740
1450.40020,0.00741
1448.47147,0.00745
1446.54275,0.00764
1444.61403,0.00784
1442.68530,0.00784
1440.75658,0.00769
1438.82785,0.00763
1436.89913,0.00782
1434.97041,0.00810
1433.04168,0.00825
1431.11296,0.00827
1429.18424,0.00833
1427.25551,0.00850
1425.32679,0.00873
1423.39806,0.00895
1421.46934,0.00915
1419.54062,0.00955
1417.61189,0.01032
1415.68317,0.01124
1413.75445,0.01217
1411.82572,0.01322
1409.89700,0.01446
1407.96828,0.01577
1406.03955,0.01704
1404.11083,0.01817
1402.18210,0.01888
1400.25338,0.01890
1398.32466,0.01809
1396.39593,0.01654
1394.46721,0.01465
1392.53849,0.01285
1390.60976,0.01123
1388.68104,0.00965
1386.75232,0.00819
1384.82359,0.00711
1382.89487,0.00645
1380.96614,0.00594
1379.03742,0.00534
1377.10870,0.00455
1375.17997,0.00362
1373.25125,0.00278
1371.32253,0.00220
1369.39380,0.00181
1367.46508,0.00143
1365.53635,0.00095
1363.60763,0.00041
1361.67891,0.00000
1359.75018,-0.00040
1357.82146,-0.00082
1355.89274,-0.00134
1353.96401,-0.00177
1352.03529,-0.00197
1350.10657,-0.00202
1348.17784,-0.00210
1346.24912,-0.00220
1344.32039,-0.00224
1342.39167,-0.00227
1340.46295,-0.00231
1338.53422,-0.00222
1336.60550,-0.00197
1334.67678,-0.00172
1332.74805,-0.00152
1330.81933,-0.00134
1328.89061,-0.00104
1326.96188,-0.00060
1325.03316,-0.00008
1323.10443,0.00043
1321.17571,0.00088
1319.24699,0.00132
1317.31826,0.00186
1315.38954,0.00259
1313.46082,0.00350
1311.53209,0.00443
1309.60337,0.00537
1307.67464,0.00641
1305.74592,0.00762
1303.81720,0.00893
1301.88847,0.01035
1299.95975,0.01192
1298.03103,0.01368
1296.10230,0.01561
1294.17358,0.01768
1292.24486,0.01988
1290.31613,0.02217
1288.38741,0.02464
1286.45868,0.02747
1284.52996,0.03066
1282.60124,0.03420
1280.67251,0.03821
1278.74379,0.04274
1276.81507,0.04767
1274.88634,0.05293
1272.95762,0.05874
1271.02890,0.06538
1269.10017,0.07288
1267.17145,0.08118
1265.24272,0.09048
1263.31400,0.10103
1261.38528,0.11290
1259.45655,0.12593
1257.52783,0.13985
1255.59911,0.15461
1253.67038,0.16992
1251.74166,0.18519
1249.81294,0.20012
1247.88421,0.21455
1245.95549,0.22796
1244.02676,0.23997
1242.09804,0.25079
1240.16932,0.26085
1238.24059,0.27033
1236.31187,0.27888
1234.38315,0.28625
1232.45442,0.29297
1230.52570,0.29955
1228.59697,0.30584
1226.66825,0.31159
1224.73953,0.31685
1222.81080,0.32168
1220.88208,0.32622
1218.95336,0.33073
1217.02463,0.33526
1215.09591,0.33960
1213.16719,0.34361
1211.23846,0.34736
1209.30974,0.35114
1207.38101,0.35509
1205.45229,0.35911
1203.52357,0.36290
1201.59484,0.36624
1199.66612,0.36936
1197.73740,0.37274
1195.80867,0.37616
1193.87995,0.37928
1191.95123,0.38222
1190.02250,0.38539
1188.09378,0.38899
1186.16505,0.39294
1184.23633,0.39704
1182.30761,0.40070
1180.37888,0.40387
1178.45016,0.40720
1176.52144,0.41096
1174.59271,0.41494
1172.66399,0.41861
1170.73526,0.42181
1168.80654,0.42502
1166.87782,0.42839
1164.94909,0.43161
1163.02037,0.43486
1161.09165,0.43836
1159.16292,0.44163
1157.23420,0.44440
1155.30548,0.44707
1153.37675,0.44976
1151.44803,0.45226
1149.51930,0.45474
1147.59058,0.45765
1145.66186,0.46094
1143.73313,0.46422
1141.80441,0.46710
1139.87569,0.46972
1137.94696,0.47282
1136.01824,0.47668
1134.08952,0.48107
1132.16079,0.48542
1130.23207,0.48970
1128.30334,0.49442
1126.37462,0.49949
1124.44590,0.50452
1122.51717,0.50960
1120.58845,0.51459
1118.65973,0.51943
1116.73100,0.52498
1114.80228,0.53186
1112.87355,0.53981
1110.94483,0.54806
1109.01611,0.55551
1107.08738,0.56204
1105.15866,0.56878
1103.22994,0.57629
1101.30121,0.58344
1099.37249,0.58905
1097.44377,0.59339
1095.51504,0.59732
1093.58632,0.60082
1091.65759,0.60318
1089.72887,0.60452
1087.80015,0.60545
1085.87142,0.60655
1083.94270,0.60778
1082.01398,0.60820
1080.08525,0.60756
1078.15653,0.60675
1076.22781,0.60630
1074.29908,0.60567
1072.37036,0.60466
1070.44163,0.60365
1068.51291,0.60287
1066.58419,0.60247
1064.65546,0.60188
1062.72674,0.60029
1060.79802,0.59812
1058.86929,0.59646
1056.94057,0.59456
1055.01184,0.59141
1053.08312,0.58832
1051.15440,0.58597
1049.22567,0.58331
1047.29695,0.57969
1045.36823,0.57513
1043.43950,0.56933
1041.51078,0.56262
1039.58206,0.55619
1037.65333,0.55005
1035.72461,0.54354
1033.79588,0.53650
1031.86716,0.52895
1029.93844,0.52095
1028.00971,0.51256
1026.08099,0.50425
1024.15227,0.49640
1022.22354,0.48895
1020.29482,0.48156
1018.36610,0.47375
1016.43737,0.46530
1014.50865,0.45641
1012.57992,0.44723
1010.65120,0.43762
1008.72248,0.42762
1006.79375,0.41753
1004.86503,0.40738
1002.93631,0.39684
1001.00758,0.38577
999.07886,0.37425
997.15013,0.36229
995.22141,0.35039
993.29269,0.33910
991.36396,0.32838
989.43524,0.31806
987.50652,0.30789
985.57779,0.29789
983.64907,0.28839
981.72035,0.27964
979.79162,0.27176
977.86290,0.26471
975.93417,0.25821
974.00545,0.25208
972.07673,0.24650
970.14800,0.24172
968.21928,0.23759
966.29056,0.23390
964.36183,0.23042
962.43311,0.22684
960.50439,0.22334
958.57566,0.22035
956.64694,0.21781
954.71821,0.21521
952.78949,0.21228
950.86077,0.20918
948.93204,0.20644
947.00332,0.20429
945.07460,0.20230
943.14587,0.20013
941.21715,0.19753
939.28842,0.19439
937.35970,0.19124
935.43098,0.18853
933.50225,0.18611
931.57353,0.18359
929.64481,0.18076
927.71608,0.17806
925.78736,0.17589
923.85864,0.17406
921.92991,0.17226
920.00119,0.17016
918.07246,0.16774
916.14374,0.16526
914.21502,0.16220
912.28629,0.15764
910.35757,0.15165
908.42885,0.14488
906.50012,0.13776
904.57140,0.13040
902.64268,0.12301
900.71395,0.11620
898.78523,0.11004
896.85650,0.10401
894.92778,0.09789
892.99906,0.09210
891.07033,0.08708
889.14161,0.08256
887.21289,0.07821
885.28416,0.07409
883.35544,0.07028
881.42671,0.06670
879.49799,0.06301
877.56927,0.05933
875.64054,0.05597
873.71182,0.05263
871.78310,0.04910
869.85437,0.04561
867.92565,0.04235
865.99693,0.03937
864.06820,0.03673
862.13948,0.03443
860.21075,0.03235
858.28203,0.03036
856.35331,0.02836
854.42458,0.02644
852.49586,0.02508
850.56714,0.02462
848.63841,0.02480
846.70969,0.02540
844.78097,0.02668
842.85224,0.02856
840.92352,0.03072
838.99479,0.03310
837.06607,0.03548
835.13735,0.03786
833.20862,0.04065
831.27990,0.04396
829.35118,0.04755
827.42245,0.05113
825.49373,0.05445
823.56501,0.05781
821.63628,0.06193
819.70756,0.06677
817.77883,0.07159
815.85011,0.07596
813.92139,0.08012
811.99266,0.08494
810.06394,0.09096
808.13522,0.09792
806.20649,0.10504
804.27777,0.11143
802.34904,0.11650
800.42032,0.11990
798.49160,0.12156
796.56287,0.12182
794.63415,0.12082
792.70543,0.11849
790.77670,0.11532
788.84798,0.11235
786.91926,0.10983
784.99053,0.10732
783.06181,0.10458
781.13308,0.10120
779.20436,0.09664
777.27564,0.09090
775.34691,0.08471
773.41819,0.07888
771.48947,0.07371
769.56074,0.06937
767.63202,0.06615
765.70330,0.06416
763.77457,0.06286
761.84585,0.06153
759.91712,0.06014
757.98840,0.05893
756.05968,0.05795
754.13095,0.05735
752.20223,0.05740
750.27351,0.05764
748.34478,0.05728
746.41606,0.05656
744.48733,0.05601
742.55861,0.05553
740.62989,0.05509
738.70116,0.05486
736.77244,0.05462
734.84372,0.05413
732.91499,0.05360
730.98627,0.05315
729.05755,0.05278
727.12882,0.05251
725.20010,0.05223
723.27137,0.05177
721.34265,0.05124
719.41393,0.05105
717.48520,0.05123
715.55648,0.05114
713.62776,0.05043
711.69903,0.04980
709.77031,0.05001
707.84159,0.05083
705.91286,0.05162
703.98414,0.05224
702.05541,0.05315
700.12669,0.05454
698.19797,0.05577
696.26924,0.05613
694.34052,0.05561
692.41180,0.05473
690.48307,0.05390
688.55435,0.05318
686.62562,0.05263
684.69690,0.05246
682.76818,0.05214
680.83945,0.05096
678.91073,0.04931
676.98201,0.04801
675.05328,0.04758
673.12456,0.04817
671.19584,0.04895
669.26711,0.04894
667.33839,0.04839
665.40966,0.04812
663.48094,0.04828
661.55222,0.04867
659.62349,0.04908
657.69477,0.04956
655.76605,0.05057
653.83732,0.05253
651.90860,0.05537
649.97988,0.05866
648.05115,0.06193
646.12243,0.06509
644.19370,0.06820
642.26498,0.07100
640.33626,0.07324
638.40753,0.07484
636.47881,0.07595
634.55009,0.07713
632.62136,0.07870
630.69264,0.08030
628.76391,0.08180
626.83519,0.08344
624.90647,0.08524
622.97774,0.08694
621.04902,0.08862
619.12030,0.09040
617.19157,0.09182
615.26285,0.09259
613.33413,0.09352
611.40540,0.09574
609.47668,0.09907
607.54795,0.10279
605.61923,0.10707
603.69051,0.11153
601.76178,0.11503
599.83306,0.11778
597.90434,0.12077
595.97561,0.12357
594.04689,0.12526
592.11817,0.12667
590.18944,0.12930
588.26072,0.13266
586.33199,0.13507
584.40327,0.13620
582.47455,0.13700
580.54582,0.13797
578.61710,0.13896
576.68838,0.13959
574.75965,0.13969
572.83093,0.13991
570.90220,0.14076
568.97348,0.14175
567.04476,0.14242
565.11603,0.14306
563.18731,0.14446
561.25859,0.14677
559.32986,0.14920
557.40114,0.15165
555.47242,0.15498
553.54369,0.15894
551.61497,0.16298
549.68624,0.16757
547.75752,0.17224
545.82880,0.17547
543.90007,0.17774
541.97135,0.18071
540.04263,0.18390
538.11390,0.18611
536.18518,0.18829
534.25646,0.19164
532.32773,0.19517
530.39901,0.19785
528.47028,0.20017
526.54156,0.20161
524.61284,0.20083
522.68411,0.19929
520.75539,0.19882
518.82667,0.19844
516.89794,0.19686
514.96922,0.19434
513.04049,0.19240
511.11177,0.19287
509.18305,0.19595
507.25432,0.20066
505.32560,0.20586
503.39688,0.21051
501.46815,0.21440
499.53943,0.21854
497.61071,0.22501
495.68198,0.23478
493.75326,0.24560
491.82453,0.25443
489.89581,0.26184
487.96709,0.27052
486.03836,0.28101
484.10964,0.29260
482.18092,0.30592
480.25219,0.32113
478.32347,0.33582
476.39475,0.34842
474.46602,0.36023
472.53730,0.37065
470.60857,0.37619
468.67985,0.37614
466.75113,0.37234
464.82240,0.36667
462.89368,0.36264
460.96496,0.36248
459.03623,0.36225
457.10751,0.35656
455.17878,0.34570
453.25006,0.33453
451.32134,0.32703
449.39261,0.32128
447.46389,0.31244
445.53517,0.30170
443.60644,0.29559
441.67772,0.29542
439.74900,0.29406
437.82027,0.28751
435.89155,0.27961
433.96282,0.27254
432.03410,0.26403
430.10538,0.25441
428.17665,0.24562
426.24793,0.23593
424.31921,0.22456
422.39048,0.21472
420.46176,0.20582
418.53304,0.19488
416.60431,0.18563
414.67559,0.17899
412.74686,0.17054
410.81814,0.16018
408.88942,0.14951
406.96069,0.13701
405.03197,0.12282
403.10325,0.11152
401.17452,0.10755
399.24580,0.11030
397.31708,0.11321
395.38835,0.10931
393.45963,0.09817
391.53090,0.08515
389.60218,0.07291
387.67346,0.05786
385.74473,0.04282
383.81601,0.04208
381.88729,0.05330
379.95856,0.04994
378.02984,0.02175
376.10111,0.00000
374.17239,0.00810
372.24367,0.02960
370.31494,0.02208
368.38622,0.00000
