3996.31543,0.00000
3994.38671,0.00009
3992.45799,0.00021
3990.52926,0.00024
3988.60054,0.00024
3986.67182,0.00037
3984.74309,0.00058
3982.81437,0.00067
3980.88564,0.00059
3978.95692,0.00053
3977.02820,0.00056
3975.09947,0.00057
3973.17075,0.00054
3971.24203,0.00065
3969.31330,0.00090
3967.38458,0.00109
3965.45586,0.00115
3963.52713,0.00115
3961.59841,0.00106
3959.66968,0.00089
3957.74096,0.00077
3955.81224,0.00079
3953.88351,0.00092
3951.95479,0.00109
3950.02607,0.00123
3948.09734,0.00131
3946.16862,0.00137
3944.23990,0.00139
3942.31117,0.00130
3940.38245,0.00126
3938.45372,0.00141
3936.52500,0.00168
3934.59628,0.00189
3932.66755,0.00181
3930.73883,0.00148
3928.81011,0.00124
3926.88138,0.00122
3924.95266,0.00126
3923.02393,0.00136
3921.09521,0.00156
3919.16649,0.00161
3917.23776,0.00135
3915.30904,0.00107
3913.38032,0.00112
3911.45159,0.00139
3909.52287,0.00166
3907.59415,0.00187
3905.66542,0.00189
3903.73670,0.00155
3901.80797,0.00096
3899.87925,0.00058
3897.95053,0.00078
3896.02180,0.00143
3894.09308,0.00187
3892.16436,0.00159
3890.23563,0.00113
3888.30691,0.00118
3886.37819,0.00131
3884.44946,0.00119
3882.52074,0.00121
3880.59201,0.00131
3878.66329,0.00135
3876.73457,0.00151
3874.80584,0.00161
3872.87712,0.00154
3870.94840,0.00146
3869.01967,0.00138
3867.09095,0.00139
3865.16222,0.00133
3863.23350,0.00105
3861.30478,0.00095
3859.37605,0.00137
3857.44733,0.00198
3855.51861,0.00208
3853.58988,0.00113
3851.66116,0.00011
3849.73244,0.00025
3847.80371,0.00107
3845.87499,0.00178
3843.94626,0.00207
3842.01754,0.00210
3840.08882,0.00207
3838.16009,0.00188
3836.23137,0.00149
3834.30265,0.00116
3832.37392,0.00107
3830.44520,0.00132
3828.51648,0.00178
3826.58775,0.00217
3824.65903,0.00241
3822.73030,0.00238
3820.80158,0.00198
3818.87286,0.00176
3816.94413,0.00180
3815.01541,0.00172
3813.08669,0.00190
3811.15796,0.00255
3809.22924,0.00311
3807.30052,0.00312
3805.37179,0.00297
3803.44307,0.00314
3801.51434,0.00324
3799.58562,0.00312
3797.65690,0.00317
3795.72817,0.00330
3793.79945,0.00343
3791.87073,0.00363
3789.94200,0.00385
3788.01328,0.00407
3786.08455,0.00428
3784.15583,0.00449
3782.22711,0.00473
3780.29838,0.00480
3778.36966,0.00469
3776.44094,0.00481
3774.51221,0.00530
3772.58349,0.00587
3770.65477,0.00615
3768.72604,0.00611
3766.79732,0.00608
3764.86859,0.00635
3762.93987,0.00697
3761.01115,0.00760
3759.08242,0.00788
3757.15370,0.00822
3755.22498,0.00906
3753.29625,0.01001
3751.36753,0.01036
3749.43881,0.01038
3747.51008,0.01086
3745.58136,0.01137
3743.65263,0.01141
3741.72391,0.01188
3739.79519,0.01310
3737.86646,0.01421
3735.93774,0.01452
3734.00902,0.01459
3732.08029,0.01536
3730.15157,0.01693
3728.22284,0.01884
3726.29412,0.02063
3724.36540,0.02220
3722.43667,0.02400
3720.50795,0.02649
3718.57923,0.02965
3716.65050,0.03307
3714.72178,0.03652
3712.79306,0.04020
3710.86433,0.04437
3708.93561,0.04880
3707.00688,0.05304
3705.07816,0.05700
3703.14944,0.06091
3701.22071,0.06471
3699.29199,0.06813
3697.36327,0.07117
3695.43454,0.07388
3693.50582,0.07613
3691.57710,0.07797
3689.64837,0.07980
3687.71965,0.08203
3685.79092,0.08485
3683.86220,0.08806
3681.93348,0.09135
3680.00475,0.09457
3678.07603,0.09807
3676.14731,0.10220
3674.21858,0.10656
3672.28986,0.11054
3670.36113,0.11440
3668.43241,0.11836
3666.50369,0.12217
3664.57496,0.12592
3662.64624,0.12971
3660.71752,0.13345
3658.78879,0.13708
3656.86007,0.14076
3654.93135,0.14441
3653.00262,0.14775
3651.07390,0.15091
3649.14517,0.15421
3647.21645,0.15779
3645.28773,0.16156
3643.35900,0.16524
3641.43028,0.16869
3639.50156,0.17196
3637.57283,0.17512
3635.64411,0.17811
3633.71539,0.18082
3631.78666,0.18314
3629.85794,0.18501
3627.92921,0.18650
3626.00049,0.18797
3624.07177,0.18953
3622.14304,0.19070
3620.21432,0.19079
3618.28560,0.18999
3616.35687,0.18926
3614.42815,0.18892
3612.49942,0.18862
3610.57070,0.18819
3608.64198,0.18762
3606.71325,0.18717
3604.78453,0.18706
3602.85581,0.18697
3600.92708,0.18666
3598.99836,0.18635
3597.06964,0.18625
3595.14091,0.18622
3593.21219,0.18621
3591.28346,0.18644
3589.35474,0.18679
3587.42602,0.18699
3585.49729,0.18714
3583.56857,0.18741
3581.63985,0.18780
3579.71112,0.18826
3577.78240,0.18871
3575.85368,0.18911
3573.92495,0.18955
3571.99623,0.19009
3570.06750,0.19049
3568.13878,0.19043
3566.21006,0.19020
3564.28133,0.19061
3562.35261,0.19168
3560.42389,0.19283
3558.49516,0.19383
3556.56644,0.19464
3554.63771,0.19512
3552.70899,0.19533
3550.78027,0.19561
3548.85154,0.19614
3546.92282,0.19676
3544.99410,0.19728
3543.06537,0.19777
3541.13665,0.19842
3539.20793,0.19923
3537.27920,0.19999
3535.35048,0.20053
3533.42175,0.20094
3531.49303,0.20140
3529.56431,0.20189
3527.63558,0.20247
3525.70686,0.20323
3523.77814,0.20414
3521.84941,0.20507
3519.92069,0.20590
3517.99197,0.20655
3516.06324,0.20717
3514.13452,0.20793
3512.20579,0.20879
3510.27707,0.20959
3508.34835,0.21031
3506.41962,0.21105
3504.49090,0.21178
3502.56218,0.21248
3500.63345,0.21338
3498.70473,0.21443
3496.77600,0.21530
3494.84728,0.21592
3492.91856,0.21651
3490.98983,0.21717
3489.06111,0.21786
3487.13239,0.21859
3485.20366,0.21940
3483.27494,0.22025
3481.34622,0.22105
3479.41749,0.22184
3477.48877,0.22263
3475.56004,0.22325
3473.63132,0.22359
3471.70260,0.22385
3469.77387,0.22430
3467.84515,0.22494
3465.91643,0.22561
3463.98770,0.22622
3462.05898,0.22680
3460.13026,0.22738
3458.20153,0.22788
3456.27281,0.22830
3454.34408,0.22885
3452.41536,0.22952
3450.48664,0.23002
3448.55791,0.23024
3446.62919,0.23032
3444.70047,0.23052
3442.77174,0.23106
3440.84302,0.23174
3438.91429,0.23231
3436.98557,0.23268
3435.05685,0.23289
3433.12812,0.23312
3431.19940,0.23341
3429.27068,0.23368
3427.34195,0.23404
3425.41323,0.23447
3423.48451,0.23475
3421.55578,0.23481
3419.62706,0.23472
3417.69833,0.23466
3415.76961,0.23483
3413.84089,0.23513
3411.91216,0.23546
3409.98344,0.23580
3408.05472,0.23593
3406.12599,0.23583
3404.19727,0.23583
3402.26855,0.23600
3400.33982,0.23611
3398.41110,0.23603
3396.48237,0.23588
3394.55365,0.23580
3392.62493,0.23568
3390.69620,0.23555
3388.76748,0.23553
3386.83876,0.23549
3384.91003,0.23527
3382.98131,0.23499
3381.05259,0.23479
3379.12386,0.23462
3377.19514,0.23439
3375.26641,0.23409
3373.33769,0.23365
3371.40897,0.23316
3369.48024,0.23282
3367.55152,0.23263
3365.62280,0.23233
3363.69407,0.23180
3361.76535,0.23125
3359.83662,0.23084
3357.90790,0.23042
3355.97918,0.22990
3354.05045,0.22955
3352.12173,0.22947
3350.19301,0.22942
3348.26428,0.22909
3346.33556,0.22837
3344.40684,0.22752
3342.47811,0.22685
3340.54939,0.22644
3338.62066,0.22613
3336.69194,0.22570
3334.76322,0.22508
3332.83449,0.22440
3330.90577,0.22387
3328.97705,0.22345
3327.04832,0.22293
3325.11960,0.22233
3323.19088,0.22168
3321.26215,0.22090
3319.33343,0.22019
3317.40470,0.21983
3315.47598,0.21967
3313.54726,0.21935
3311.61853,0.21876
3309.68981,0.21811
3307.76109,0.21753
3305.83236,0.21706
3303.90364,0.21672
3301.97491,0.21640
3300.04619,0.21592
3298.11747,0.21527
3296.18874,0.21464
3294.26002,0.21412
3292.33130,0.21364
3290.40257,0.21327
3288.47385,0.21299
3286.54513,0.21257
3284.61640,0.21191
3282.68768,0.21119
3280.75895,0.21060
3278.83023,0.21015
3276.90151,0.20980
3274.97278,0.20944
3273.04406,0.20899
3271.11534,0.20851
3269.18661,0.20810
3267.25789,0.20771
3265.32917,0.20731
3263.40044,0.20691
3261.47172,0.20646
3259.54299,0.20594
3257.61427,0.20552
3255.68555,0.20521
3253.75682,0.20487
3251.82810,0.20439
3249.89938,0.20381
3247.97065,0.20334
3246.04193,0.20307
3244.11320,0.20279
3242.18448,0.20233
3240.25576,0.20167
3238.32703,0.20091
3236.39831,0.20014
3234.46959,0.19952
3232.54086,0.19911
3230.61214,0.19878
3228.68342,0.19841
3226.75469,0.19799
3224.82597,0.19743
3222.89724,0.19670
3220.96852,0.19590
3219.03980,0.19514
3217.11107,0.19446
3215.18235,0.19379
3213.25363,0.19301
3211.32490,0.19217
3209.39618,0.19148
3207.46746,0.19093
3205.53873,0.19030
3203.61001,0.18953
3201.68128,0.18870
3199.75256,0.18773
3197.82384,0.18668
3195.89511,0.18582
3193.96639,0.18510
3192.03767,0.18428
3190.10894,0.18339
3188.18022,0.18256
3186.25149,0.18180
3184.32277,0.18108
3182.39405,0.18034
3180.46532,0.17950
3178.53660,0.17858
3176.60788,0.17768
3174.67915,0.17677
3172.75043,0.17582
3170.82171,0.17497
3168.89298,0.17419
3166.96426,0.17329
3165.03553,0.17234
3163.10681,0.17153
3161.17809,0.17074
3159.24936,0.16981
3157.32064,0.16879
3155.39192,0.16780
3153.46319,0.16693
3151.53447,0.16623
3149.60575,0.16550
3147.67702,0.16453
3145.74830,0.16348
3143.81957,0.16252
3141.89085,0.16165
3139.96213,0.16088
3138.03340,0.16016
3136.10468,0.15930
3134.17596,0.15832
3132.24723,0.15744
3130.31851,0.15663
3128.38978,0.15573
3126.46106,0.15479
3124.53234,0.15391
3122.60361,0.15302
3120.67489,0.15214
3118.74617,0.15133
3116.81744,0.15053
3114.88872,0.14968
3112.96000,0.14872
3111.03127,0.14762
3109.10255,0.14655
3107.17382,0.14562
3105.24510,0.14480
3103.31638,0.14398
3101.38765,0.14313
3099.45893,0.14223
3097.53021,0.14118
3095.60148,0.13998
3093.67276,0.13890
3091.74404,0.13804
3089.81531,0.13717
3087.88659,0.13615
3085.95786,0.13505
3084.02914,0.13401
3082.10042,0.13308
3080.17169,0.13215
3078.24297,0.13121
3076.31425,0.13037
3074.38552,0.12958
3072.45680,0.12872
3070.52807,0.12776
3068.59935,0.12678
3066.67063,0.12582
3064.74190,0.12493
3062.81318,0.12410
3060.88446,0.12328
3058.95573,0.12238
3057.02701,0.12147
3055.09829,0.12065
3053.16956,0.11992
3051.24084,0.11915
3049.31211,0.11821
3047.38339,0.11721
3045.45467,0.11632
3043.52594,0.11556
3041.59722,0.11484
3039.66850,0.11402
3037.73977,0.11317
3035.81105,0.11239
3033.88233,0.11168
3031.95360,0.11095
3030.02488,0.11008
3028.09615,0.10916
3026.16743,0.10834
3024.23871,0.10763
3022.30998,0.10697
3020.38126,0.10638
3018.45254,0.10581
3016.52381,0.10514
3014.59509,0.10437
3012.66636,0.10360
3010.73764,0.10282
3008.80892,0.10205
3006.88019,0.10129
3004.95147,0.10049
3003.02275,0.09973
3001.09402,0.09907
2999.16530,0.09847
2997.23658,0.09795
2995.30785,0.09744
2993.37913,0.09680
2991.45040,0.09617
2989.52168,0.09573
2987.59296,0.09525
2985.66423,0.09463
2983.73551,0.09411
2981.80679,0.09379
2979.87806,0.09361
2977.94934,0.09348
2976.02062,0.09332
2974.09189,0.09312
2972.16317,0.09297
2970.23444,0.09292
2968.30572,0.09289
2966.37700,0.09276
2964.44827,0.09256
2962.51955,0.09241
2960.59083,0.09216
2958.66210,0.09156
2956.73338,0.09067
2954.80466,0.08967
2952.87593,0.08871
2950.94721,0.08791
2949.01848,0.08723
2947.08976,0.08659
2945.16104,0.08612
2943.23231,0.08600
2941.30359,0.08610
2939.37487,0.08625
2937.44614,0.08646
2935.51742,0.08676
2933.58869,0.08704
2931.65997,0.08710
2929.73125,0.08693
2927.80252,0.08649
2925.87380,0.08564
2923.94508,0.08427
2922.01635,0.08250
2920.08763,0.08059
2918.15891,0.07887
2916.23018,0.07751
2914.30146,0.07638
2912.37273,0.07519
2910.44401,0.07391
2908.51529,0.07273
2906.58656,0.07171
2904.65784,0.07073
2902.72912,0.06970
2900.80039,0.06865
2898.87167,0.06768
2896.94295,0.06682
2895.01422,0.06595
2893.08550,0.06512
2891.15677,0.06446
2889.22805,0.06378
2887.29933,0.06296
2885.37060,0.06224
2883.44188,0.06173
2881.51316,0.06136
2879.58443,0.06104
2877.65571,0.06073
2875.72698,0.06045
2873.79826,0.06011
2871.86954,0.05965
2869.94081,0.05911
2868.01209,0.05863
2866.08337,0.05834
2864.15464,0.05822
2862.22592,0.05818
2860.29720,0.05822
2858.36847,0.05826
2856.43975,0.05812
2854.51102,0.05772
2852.58230,0.05696
2850.65358,0.05580
2848.72485,0.05433
2846.79613,0.05273
2844.86741,0.05121
2842.93868,0.04981
2841.00996,0.04844
2839.08124,0.04725
2837.15251,0.04625
2835.22379,0.04526
2833.29506,0.04433
2831.36634,0.04364
2829.43762,0.04311
2827.50889,0.04260
2825.58017,0.04204
2823.65145,0.04145
2821.72272,0.04091
2819.79400,0.04042
2817.86527,0.03994
2815.93655,0.03945
2814.00783,0.03895
2812.07910,0.03847
2810.15038,0.03797
2808.22166,0.03740
2806.29293,0.03691
2804.36421,0.03651
2802.43549,0.03606
2800.50676,0.03560
2798.57804,0.03522
2796.64931,0.03484
2794.72059,0.03437
2792.79187,0.03388
2790.86314,0.03342
2788.93442,0.03295
2787.00570,0.03244
2785.07697,0.03194
2783.14825,0.03153
2781.21953,0.03117
2779.29080,0.03085
2777.36208,0.03057
2775.43335,0.03022
2773.50463,0.02977
2771.57591,0.02928
2769.64718,0.02877
2767.71846,0.02832
2765.78974,0.02794
2763.86101,0.02758
2761.93229,0.02723
2760.00356,0.02689
2758.07484,0.02652
2756.14612,0.02612
2754.21739,0.02570
2752.28867,0.02535
2750.35995,0.02508
2748.43122,0.02477
2746.50250,0.02440
2744.57378,0.02404
2742.64505,0.02375
2740.71633,0.02338
2738.78760,0.02295
2736.85888,0.02256
2734.93016,0.02224
2733.00143,0.02194
2731.07271,0.02163
2729.14399,0.02132
2727.21526,0.02096
2725.28654,0.02053
2723.35782,0.02013
2721.42909,0.01984
2719.50037,0.01962
2717.57164,0.01937
2715.64292,0.01904
2713.71420,0.01869
2711.78547,0.01841
2709.85675,0.01815
2707.92803,0.01784
2705.99930,0.01747
2704.07058,0.01710
2702.14185,0.01679
2700.21313,0.01652
2698.28441,0.01623
2696.35568,0.01590
2694.42696,0.01558
2692.49824,0.01535
2690.56951,0.01514
2688.64079,0.01485
2686.71207,0.01453
2684.78334,0.01429
2682.85462,0.01411
2680.92589,0.01390
2678.99717,0.01363
2677.06845,0.01332
2675.13972,0.01305
2673.21100,0.01282
2671.28228,0.01261
2669.35355,0.01237
2667.42483,0.01211
2665.49611,0.01186
2663.56738,0.01159
2661.63866,0.01132
2659.70993,0.01109
2657.78121,0.01085
2655.85249,0.01059
2653.92376,0.01036
2651.99504,0.01015
2650.06632,0.00995
2648.13759,0.00975
2646.20887,0.00952
2644.28014,0.00924
2642.35142,0.00895
2640.42270,0.00869
2638.49397,0.00846
2636.56525,0.00825
2634.63653,0.00807
2632.70780,0.00789
2630.77908,0.00772
2628.85036,0.00754
2626.92163,0.00731
2624.99291,0.00712
2623.06418,0.00693
2621.13546,0.00669
2619.20674,0.00653
2617.27801,0.00644
2615.34929,0.00632
2613.42057,0.00613
2611.49184,0.00596
2609.56312,0.00587
2607.63440,0.00577
2605.70567,0.00557
2603.77695,0.00531
2601.84822,0.00502
2599.91950,0.00476
2597.99078,0.00460
2596.06205,0.00449
2594.13333,0.00435
2592.20461,0.00427
2590.27588,0.00431
2588.34716,0.00433
2586.41843,0.00422
2584.48971,0.00400
2582.56099,0.00377
2580.63226,0.00363
2578.70354,0.00358
2576.77482,0.00350
2574.84609,0.00336
2572.91737,0.00321
2570.98865,0.00302
2569.05992,0.00287
2567.13120,0.00279
2565.20247,0.00278
2563.27375,0.00279
2561.34503,0.00274
2559.41630,0.00259
2557.48758,0.00239
2555.55886,0.00226
2553.63013,0.00215
2551.70141,0.00201
2549.77269,0.00192
2547.84396,0.00192
2545.91524,0.00195
2543.98651,0.00193
2542.05779,0.00175
2540.12907,0.00152
2538.20034,0.00142
2536.27162,0.00145
2534.34290,0.00146
2532.41417,0.00140
2530.48545,0.00129
2528.55673,0.00118
2526.62800,0.00108
2524.69928,0.00106
2522.77055,0.00108
2520.84183,0.00106
2518.91311,0.00095
2516.98438,0.00078
2515.05566,0.00070
2513.12694,0.00069
2511.19821,0.00066
2509.26949,0.00059
2507.34076,0.00054
2505.41204,0.00049
2503.48332,0.00047
2501.55459,0.00051
2499.62587,0.00056
2497.69715,0.00060
2495.76842,0.00060
2493.83970,0.00054
2491.91098,0.00045
2489.98225,0.00037
2488.05353,0.00035
2486.12480,0.00036
2484.19608,0.00032
2482.26736,0.00031
2480.33863,0.00042
2478.40991,0.00052
2476.48119,0.00050
2474.55246,0.00045
2472.62374,0.00046
2470.69502,0.00042
2468.76629,0.00032
2466.83757,0.00028
2464.90884,0.00028
2462.98012,0.00029
2461.05140,0.00031
2459.12267,0.00032
2457.19395,0.00032
2455.26523,0.00028
2453.33650,0.00025
2451.40778,0.00024
2449.47905,0.00026
2447.55033,0.00025
2445.62161,0.00022
2443.69288,0.00020
2441.76416,0.00018
2439.83544,0.00014
2437.90671,0.00010
2435.97799,0.00006
2434.04927,0.00003
2432.12054,0.00003
2430.19182,0.00008
2428.26309,0.00018
2426.33437,0.00028
2424.40565,0.00034
2422.47692,0.00034
2420.54820,0.00026
2418.61948,0.00018
2416.69075,0.00015
2414.76203,0.00014
2412.83331,0.00012
2410.90458,0.00016
2408.97586,0.00024
2407.04713,0.00030
2405.11841,0.00031
2403.18969,0.00030
2401.26096,0.00031
2399.33224,0.00032
2397.40352,0.00028
2395.47479,0.00023
2393.54607,0.00022
2391.61734,0.00028
2389.68862,0.00038
2387.75990,0.00046
2385.83117,0.00053
2383.90245,0.00061
2381.97373,0.00064
2380.04500,0.00066
2378.11628,0.00069
2376.18756,0.00073
2374.25883,0.00072
2372.33011,0.00067
2370.40138,0.00064
2368.47266,0.00063
2366.54394,0.00065
2364.61521,0.00059
2362.68649,0.00047
2360.75777,0.00043
2358.82904,0.00038
2356.90032,0.00018
2354.97160,0.00000
2353.04287,0.00021
2351.11415,0.00092
2349.18542,0.00149
2347.25670,0.00129
2345.32798,0.00072
2343.39925,0.00047
2341.47053,0.00051
2339.54181,0.00057
2337.61308,0.00057
2335.68436,0.00052
2333.75563,0.00046
2331.82691,0.00045
2329.89819,0.00050
2327.96946,0.00060
2326.04074,0.00065
2324.11202,0.00061
2322.18329,0.00057
2320.25457,0.00054
2318.32585,0.00049
2316.39712,0.00040
2314.46840,0.00039
2312.53967,0.00051
2310.61095,0.00064
2308.68223,0.00058
2306.75350,0.00041
2304.82478,0.00038
2302.89606,0.00052
2300.96733,0.00067
2299.03861,0.00073
2297.10989,0.00074
2295.18116,0.00071
2293.25244,0.00062
2291.32371,0.00050
2289.39499,0.00044
2287.46627,0.00047
2285.53754,0.00056
2283.60882,0.00065
2281.68010,0.00070
2279.75137,0.00067
2277.82265,0.00055
2275.89392,0.00041
2273.96520,0.00035
2272.03648,0.00039
2270.10775,0.00050
2268.17903,0.00059
2266.25031,0.00060
2264.32158,0.00053
2262.39286,0.00046
2260.46414,0.00045
2258.53541,0.00045
2256.60669,0.00037
2254.67796,0.00028
2252.74924,0.00020
2250.82052,0.00014
2248.89179,0.00017
2246.96307,0.00024
2245.03435,0.00020
2243.10562,0.00008
2241.17690,0.00007
2239.24818,0.00018
2237.31945,0.00025
2235.39073,0.00025
2233.46200,0.00021
2231.53328,0.00018
2229.60456,0.00018
2227.67583,0.00016
2225.74711,0.00013
2223.81839,0.00013
2221.88966,0.00015
2219.96094,0.00014
2218.03221,0.00014
2216.10349,0.00021
2214.17477,0.00024
2212.24604,0.00016
2210.31732,0.00007
2208.38860,0.00002
2206.45987,0.00000
2204.53115,0.00000
2202.60243,0.00005
2200.67370,0.00006
2198.74498,0.00003
2196.81625,0.00005
2194.88753,0.00010
2192.95881,0.00013
2191.03008,0.00005
2189.10136,-0.00008
2187.17264,-0.00013
2185.24391,-0.00011
2183.31519,-0.00011
2181.38647,-0.00018
2179.45774,-0.00029
2177.52902,-0.00032
2175.60029,-0.00031
2173.67157,-0.00032
2171.74285,-0.00034
2169.81412,-0.00032
2167.88540,-0.00032
2165.95668,-0.00035
2164.02795,-0.00031
2162.09923,-0.00018
2160.17050,-0.00010
2158.24178,-0.00009
2156.31306,-0.00008
2154.38433,-0.00004
2152.45561,0.00001
2150.52689,0.00000
2148.59816,-0.00007
2146.66944,-0.00011
2144.74072,-0.00009
2142.81199,-0.00005
2140.88327,-0.00002
2138.95454,-0.00002
2137.02582,-0.00004
2135.09710,-0.00007
2133.16837,-0.00012
2131.23965,-0.00010
2129.31093,-0.00001
2127.38220,0.00002
2125.45348,0.00000
2123.52476,-0.00001
2121.59603,-0.00005
2119.66731,-0.00013
2117.73858,-0.00017
2115.80986,-0.00014
2113.88114,-0.00007
2111.95241,0.00005
2110.02369,0.00016
2108.09497,0.00016
2106.16624,0.00007
2104.23752,-0.00004
2102.30880,-0.00011
2100.38007,-0.00010
2098.45135,-0.00008
2096.52262,-0.00005
2094.59390,0.00000
2092.66518,0.00003
2090.73645,-0.00001
2088.80773,-0.00011
2086.87901,-0.00018
2084.95028,-0.00019
2083.02156,-0.00018
2081.09283,-0.00020
2079.16411,-0.00022
2077.23539,-0.00022
2075.30666,-0.00021
2073.37794,-0.00022
2071.44922,-0.00025
2069.52049,-0.00028
2067.59177,-0.00031
2065.66305,-0.00033
2063.73432,-0.00032
2061.80560,-0.00023
2059.87687,-0.00011
2057.94815,-0.00004
2056.01943,0.00002
2054.09070,0.00009
2052.16198,0.00018
2050.23326,0.00032
2048.30453,0.00053
2046.37581,0.00075
2044.44709,0.00090
2042.51836,0.00099
2040.58964,0.00114
2038.66091,0.00137
2036.73219,0.00157
2034.80347,0.00176
2032.87474,0.00200
2030.94602,0.00228
2029.01730,0.00251
2027.08857,0.00273
2025.15985,0.00298
2023.23112,0.00323
2021.30240,0.00339
2019.37368,0.00348
2017.44495,0.00359
2015.51623,0.00371
2013.58751,0.00381
2011.65878,0.00397
2009.73006,0.00420
2007.80134,0.00429
2005.87261,0.00428
2003.94389,0.00437
2002.01516,0.00450
2000.08644,0.00455
1998.15772,0.00451
1996.22899,0.00447
1994.30027,0.00449
1992.37155,0.00450
1990.44282,0.00444
1988.51410,0.00436
1986.58538,0.00432
1984.65665,0.00432
1982.72793,0.00429
1980.79920,0.00423
1978.87048,0.00422
1976.94176,0.00423
1975.01303,0.00414
1973.08431,0.00399
1971.15559,0.00385
1969.22686,0.00374
1967.29814,0.00363
1965.36941,0.00353
1963.44069,0.00347
1961.51197,0.00340
1959.58324,0.00326
1957.65452,0.00310
1955.72580,0.00298
1953.79707,0.00289
1951.86835,0.00278
1949.93963,0.00269
1948.01090,0.00265
1946.08218,0.00264
1944.15345,0.00257
1942.22473,0.00244
1940.29601,0.00242
1938.36728,0.00250
1936.43856,0.00257
1934.50984,0.00255
1932.58111,0.00248
1930.65239,0.00247
1928.72367,0.00254
1926.79494,0.00264
1924.86622,0.00272
1922.93749,0.00286
1921.00877,0.00312
1919.08005,0.00334
1917.15132,0.00349
1915.22260,0.00381
1913.29388,0.00427
1911.36515,0.00464
1909.43643,0.00492
1907.50770,0.00532
1905.57898,0.00589
1903.65026,0.00654
1901.72153,0.00712
1899.79281,0.00759
1897.86409,0.00800
1895.93536,0.00840
1894.00664,0.00880
1892.07792,0.00921
1890.14919,0.00959
1888.22047,0.01000
1886.29174,0.01045
1884.36302,0.01085
1882.43430,0.01116
1880.50557,0.01139
1878.57685,0.01152
1876.64813,0.01158
1874.71940,0.01164
1872.79068,0.01169
1870.86196,0.01159
1868.93323,0.01125
1867.00451,0.01088
1865.07578,0.01066
1863.14706,0.01046
1861.21834,0.01013
1859.28961,0.00969
1857.36089,0.00916
1855.43217,0.00860
1853.50344,0.00812
1851.57472,0.00773
1849.64599,0.00735
1847.71727,0.00693
1845.78855,0.00641
1843.85982,0.00584
1841.93110,0.00551
1840.00238,0.00546
1838.07365,0.00542
1836.14493,0.00530
1834.21621,0.00519
1832.28748,0.00503
1830.35876,0.00471
1828.43003,0.00442
1826.50131,0.00428
1824.57259,0.00417
1822.64386,0.00406
1820.71514,0.00405
1818.78642,0.00404
1816.85769,0.00395
1814.92897,0.00383
1813.00025,0.00370
1811.07152,0.00355
1809.14280,0.00346
1807.21407,0.00352
1805.28535,0.00362
1803.35663,0.00360
1801.42790,0.00344
1799.49918,0.00332
1797.57046,0.00343
1795.64173,0.00365
1793.71301,0.00368
1791.78428,0.00351
1789.85556,0.00349
1787.92684,0.00369
1785.99811,0.00382
1784.06939,0.00383
1782.14067,0.00382
1780.21194,0.00383
1778.28322,0.00393
1776.35450,0.00410
1774.42577,0.00412
1772.49705,0.00392
1770.56832,0.00385
1768.63960,0.00408
1766.71088,0.00441
1764.78215,0.00463
1762.85343,0.00471
1760.92471,0.00475
1758.99598,0.00485
1757.06726,0.00493
1755.13854,0.00499
1753.20981,0.00504
1751.28109,0.00496
1749.35236,0.00485
1747.42364,0.00499
1745.49492,0.00535
1743.56619,0.00575
1741.63747,0.00615
1739.70875,0.00666
1737.78002,0.00735
1735.85130,0.00807
1733.92257,0.00878
1731.99385,0.00966
1730.06513,0.01078
1728.13640,0.01199
1726.20768,0.01321
1724.27896,0.01438
1722.35023,0.01550
1720.42151,0.01648
1718.49279,0.01730
1716.56406,0.01826
1714.63534,0.01970
1712.70661,0.02148
1710.77789,0.02329
1708.84917,0.02498
1706.92044,0.02663
1704.99172,0.02835
1703.06300,0.03006
1701.13427,0.03180
1699.20555,0.03375
1697.27683,0.03604
1695.34810,0.03864
1693.41938,0.04122
1691.49065,0.04359
1689.56193,0.04587
1687.63321,0.04807
1685.70448,0.05030
1683.77576,0.05283
1681.84704,0.05554
1679.91831,0.05816
1677.98959,0.06072
1676.06087,0.06329
1674.13214,0.06582
1672.20342,0.06813
1670.27469,0.07045
1668.34597,0.07301
1666.41725,0.07553
1664.48852,0.07784
1662.55980,0.08015
1660.63108,0.08253
1658.70235,0.08473
1656.77363,0.08652
1654.84490,0.08802
1652.91618,0.08976
1650.98746,0.09186
1649.05873,0.09382
1647.13001,0.09554
1645.20129,0.09719
1643.27256,0.09876
1641.34384,0.10011
1639.41512,0.10108
1637.48639,0.10149
1635.55767,0.10150
1633.62894,0.10160
1631.70022,0.10175
1629.77150,0.10143
1627.84277,0.10047
1625.91405,0.09896
1623.98533,0.09689
1622.05660,0.09463
1620.12788,0.09253
1618.19916,0.08969
1616.27043,0.08553
1614.34171,0.08143
1612.41298,0.07800
1610.48426,0.07441
1608.55554,0.07036
1606.62681,0.06630
1604.69809,0.06244
1602.76937,0.05874
1600.84064,0.05528
1598.91192,0.05212
1596.98319,0.04913
1595.05447,0.04620
1593.12575,0.04344
1591.19702,0.04094
1589.26830,0.03871
1587.33958,0.03672
1585.41085,0.03488
1583.48213,0.03318
1581.55341,0.03169
1579.62468,0.03035
1577.69596,0.02875
1575.76723,0.02694
1573.83851,0.02574
1571.90979,0.02507
1569.98106,0.02413
1568.05234,0.02302
1566.12362,0.02228
1564.19489,0.02187
1562.26617,0.02143
1560.33745,0.02033
1558.40872,0.01855
1556.48000,0.01758
1554.55127,0.01757
1552.62255,0.01763
1550.69383,0.01740
1548.76510,0.01699
1546.83638,0.01660
1544.90766,0.01616
1542.97893,0.01535
1541.05021,0.01406
1539.12148,0.01298
1537.19276,0.01286
1535.26404,0.01300
1533.33531,0.01268
1531.40659,0.01217
1529.47787,0.01179
1527.54914,0.01131
1525.62042,0.01065
1523.69170,0.00997
1521.76297,0.00920
1519.83425,0.00848
1517.90552,0.00809
1515.97680,0.00794
1514.04808,0.00787
1512.11935,0.00768
1510.19063,0.00713
1508.26191,0.00600
1506.33318,0.00453
1504.40446,0.00385
1502.47574,0.00389
1500.54701,0.00369
1498.61829,0.00287
1496.68956,0.00178
1494.76084,0.00112
1492.83212,0.00093
1490.90339,0.00073
1488.97467,0.00030
1487.04595,0.00000
1485.11722,-0.00002
1483.18850,0.00011
1481.25977,0.00024
1479.33105,0.00035
1477.40233,0.00045
1475.47360,0.00055
1473.54488,0.00089
1471.61616,0.00179
1469.68743,0.00299
1467.75871,0.00388
1465.82999,0.00423
1463.90126,0.00431
1461.97254,0.00438
1460.04381,0.00428
1458.11509,0.00381
1456.18637,0.00337
1454.25764,0.00346
1452.32892,0.00376
1450.40020,0.00391
1448.47147,0.00390
1446.54275,0.00391
1444.61403,0.00408
1442.68530,0.00434
1440.75658,0.00457
1438.82785,0.00466
1436.89913,0.00464
1434.97041,0.00473
1433.04168,0.00495
1431.11296,0.00513
1429.18424,0.00525
1427.25551,0.00540
1425.32679,0.00556
1423.39806,0.00570
1421.46934,0.00586
1419.54062,0.00604
1417.61189,0.00642
1415.68317,0.00724
1413.75445,0.00833
1411.82572,0.00949
1409.89700,0.01064
1407.96828,0.01175
1406.03955,0.01280
1404.11083,0.01374
1402.18210,0.01435
1400.25338,0.01441
1398.32466,0.01379
1396.39593,0.01260
1394.46721,0.01104
1392.53849,0.00948
1390.60976,0.00809
1388.68104,0.00668
1386.75232,0.00532
1384.82359,0.00440
1382.89487,0.00401
1380.96614,0.00387
1379.03742,0.00365
1377.10870,0.00314
1375.17997,0.00238
1373.25125,0.00166
1371.32253,0.00122
1369.39380,0.00096
1367.46508,0.00079
1365.53635,0.00065
1363.60763,0.00045
1361.67891,0.00018
1359.75018,0.00000
1357.82146,-0.00018
1355.89274,-0.00031
1353.96401,-0.00039
1352.03529,-0.00046
1350.10657,-0.00055
1348.17784,-0.00062
1346.24912,-0.00063
1344.32039,-0.00066
1342.39167,-0.00080
1340.46295,-0.00096
1338.53422,-0.00100
1336.60550,-0.00088
1334.67678,-0.00066
1332.74805,-0.00038
1330.81933,-0.00011
1328.89061,0.00015
1326.96188,0.00044
1325.03316,0.00073
1323.10443,0.00099
1321.17571,0.00130
1319.24699,0.00176
1317.31826,0.00234
1315.38954,0.00293
1313.46082,0.00351
1311.53209,0.00412
1309.60337,0.00480
1307.67464,0.00562
1305.74592,0.00658
1303.81720,0.00765
1301.88847,0.00881
1299.95975,0.00997
1298.03103,0.01107
1296.10230,0.01226
1294.17358,0.01364
1292.24486,0.01512
1290.31613,0.01657
1288.38741,0.01809
1286.45868,0.01977
1284.52996,0.02157
1282.60124,0.02352
1280.67251,0.02575
1278.74379,0.02831
1276.81507,0.03117
1274.88634,0.03432
1272.95762,0.03787
1271.02890,0.04192
1269.10017,0.04644
1267.17145,0.05133
1265.24272,0.05676
1263.31400,0.06304
1261.38528,0.07035
1259.45655,0.07855
1257.52783,0.08732
1255.59911,0.09649
1253.67038,0.10604
1251.74166,0.11577
1249.81294,0.12538
1247.88421,0.13478
1245.95549,0.14383
1244.02676,0.15242
1242.09804,0.16054
1240.16932,0.16810
1238.24059,0.17501
1236.31187,0.18136
1234.38315,0.18731
1232.45442,0.19288
1230.52570,0.19814
1228.59697,0.20318
1226.66825,0.20798
1224.73953,0.21264
1222.81080,0.21726
1220.88208,0.22161
1218.95336,0.22572
1217.02463,0.22993
1215.09591,0.23415
1213.16719,0.23811
1211.23846,0.24189
1209.30974,0.24565
1207.38101,0.24948
1205.45229,0.25331
1203.52357,0.25699
1201.59484,0.26053
1199.66612,0.26406
1197.73740,0.26750
1195.80867,0.27073
1193.87995,0.27388
1191.95123,0.27703
1190.02250,0.28033
1188.09378,0.28382
1186.16505,0.28732
1184.23633,0.29075
1182.30761,0.29406
1180.37888,0.29731
1178.45016,0.30066
1176.52144,0.30414
1174.59271,0.30766
1172.66399,0.31120
1170.73526,0.31459
1168.80654,0.31760
1166.87782,0.32039
1164.94909,0.32314
1163.02037,0.32584
1161.09165,0.32872
1159.16292,0.33193
1157.23420,0.33524
1155.30548,0.33826
1153.37675,0.34079
1151.44803,0.34321
1149.51930,0.34598
1147.59058,0.34902
1145.66186,0.35204
1143.73313,0.35505
1141.80441,0.35795
1139.87569,0.36063
1137.94696,0.36324
1136.01824,0.36607
1134.08952,0.36946
1132.16079,0.37339
1130.23207,0.37758
1128.30334,0.38192
1126.37462,0.38618
1124.44590,0.39021
1122.51717,0.39441
1120.58845,0.39909
1118.65973,0.40383
1116.73100,0.40833
1114.80228,0.41258
1112.87355,0.41666
1110.94483,0.42084
1109.01611,0.42543
1107.08738,0.43023
1105.15866,0.43450
1103.22994,0.43813
1101.30121,0.44134
1099.37249,0.44413
1097.44377,0.44685
1095.51504,0.44945
1093.58632,0.45150
1091.65759,0.45308
1089.72887,0.45437
1087.80015,0.45506
1085.87142,0.45563
1083.94270,0.45677
1082.01398,0.45763
1080.08525,0.45763
1078.15653,0.45759
1076.22781,0.45801
1074.29908,0.45882
1072.37036,0.46007
1070.44163,0.46108
1068.51291,0.46111
1066.58419,0.46103
1064.65546,0.46163
1062.72674,0.46243
1060.79802,0.46335
1058.86929,0.46479
1056.94057,0.46648
1055.01184,0.46772
1053.08312,0.46841
1051.15440,0.46895
1049.22567,0.46931
1047.29695,0.46900
1045.36823,0.46768
1043.43950,0.46553
1041.51078,0.46295
1039.58206,0.46024
1037.65333,0.45755
1035.72461,0.45449
1033.79588,0.45045
1031.86716,0.44573
1029.93844,0.44076
1028.00971,0.43543
1026.08099,0.42998
1024.15227,0.42470
1022.22354,0.41954
1020.29482,0.41443
1018.36610,0.40929
1016.43737,0.40376
1014.50865,0.39765
1012.57992,0.39111
1010.65120,0.38441
1008.72248,0.37766
1006.79375,0.37032
1004.86503,0.36195
1002.93631,0.35320
1001.00758,0.34468
999.07886,0.33610
997.15013,0.32712
995.22141,0.31793
993.29269,0.30874
991.36396,0.29979
989.43524,0.29134
987.50652,0.28342
985.57779,0.27566
983.64907,0.26761
981.72035,0.25973
979.79162,0.25287
977.86290,0.24687
975.93417,0.24110
974.00545,0.23556
972.07673,0.23056
970.14800,0.22615
968.21928,0.22217
966.29056,0.21835
964.36183,0.21456
962.43311,0.21109
960.50439,0.20821
958.57566,0.20574
956.64694,0.20342
954.71821,0.20115
952.78949,0.19898
950.86077,0.19696
948.93204,0.19494
947.00332,0.19293
945.07460,0.19106
943.14587,0.18928
941.21715,0.18763
939.28842,0.18599
937.35970,0.18395
935.43098,0.18173
933.50225,0.17986
931.57353,0.17819
929.64481,0.17652
927.71608,0.17503
925.78736,0.17381
923.85864,0.17288
921.92991,0.17208
920.00119,0.17108
918.07246,0.16954
916.14374,0.16750
914.21502,0.16497
912.28629,0.16169
910.35757,0.15739
908.42885,0.15224
906.50012,0.14671
904.57140,0.14109
902.64268,0.13548
900.71395,0.12998
898.78523,0.12481
896.85650,0.12031
894.92778,0.11639
892.99906,0.11267
891.07033,0.10908
889.14161,0.10577
887.21289,0.10281
885.28416,0.10002
883.35544,0.09721
881.42671,0.09434
879.49799,0.09149
877.56927,0.08870
875.64054,0.08595
873.71182,0.08329
871.78310,0.08053
869.85437,0.07785
867.92565,0.07564
865.99693,0.07363
864.06820,0.07153
862.13948,0.06942
860.21075,0.06738
858.28203,0.06546
856.35331,0.06386
854.42458,0.06284
852.49586,0.06212
850.56714,0.06144
848.63841,0.06102
846.70969,0.06097
844.78097,0.06107
842.85224,0.06131
840.92352,0.06182
838.99479,0.06245
837.06607,0.06316
835.13735,0.06420
833.20862,0.06552
831.27990,0.06695
829.35118,0.06853
827.42245,0.07037
825.49373,0.07238
823.56501,0.07423
821.63628,0.07604
819.70756,0.07837
817.77883,0.08125
815.85011,0.08442
813.92139,0.08773
811.99266,0.09122
810.06394,0.09538
808.13522,0.10049
806.20649,0.10625
804.27777,0.11211
802.34904,0.11705
800.42032,0.12030
798.49160,0.12209
796.56287,0.12275
794.63415,0.12226
792.70543,0.12109
790.77670,0.11991
788.84798,0.11861
786.91926,0.11703
784.99053,0.11549
783.06181,0.11396
781.13308,0.11199
779.20436,0.10942
777.27564,0.10639
775.34691,0.10316
773.41819,0.10014
771.48947,0.09760
769.56074,0.09554
767.63202,0.09379
765.70330,0.09236
763.77457,0.09141
761.84585,0.09098
759.91712,0.09087
757.98840,0.09066
756.05968,0.09039
754.13095,0.09041
752.20223,0.09045
750.27351,0.08995
748.34478,0.08920
746.41606,0.08884
744.48733,0.08888
742.55861,0.08911
740.62989,0.08943
738.70116,0.08965
736.77244,0.08957
734.84372,0.08934
732.91499,0.08943
730.98627,0.08969
729.05755,0.08962
727.12882,0.08942
725.20010,0.08952
723.27137,0.08973
721.34265,0.08957
719.41393,0.08907
717.48520,0.08843
715.55648,0.08800
713.62776,0.08827
711.69903,0.08900
709.77031,0.08973
707.84159,0.09036
705.91286,0.09087
703.98414,0.09123
702.05541,0.09161
700.12669,0.09220
698.19797,0.09315
696.26924,0.09421
694.34052,0.09458
692.41180,0.09424
690.48307,0.09401
688.55435,0.09408
686.62562,0.09406
684.69690,0.09373
682.76818,0.09293
680.83945,0.09195
678.91073,0.09133
676.98201,0.09103
675.05328,0.09093
673.12456,0.09111
671.19584,0.09067
669.26711,0.08934
667.33839,0.08919
665.40966,0.09039
663.48094,0.09102
661.55222,0.09168
659.62349,0.09343
657.69477,0.09530
655.76605,0.09625
653.83732,0.09654
651.90860,0.09706
649.97988,0.09831
648.05115,0.10039
646.12243,0.10325
644.19370,0.10647
642.26498,0.10958
640.33626,0.11267
638.40753,0.11565
636.47881,0.11783
634.55009,0.11885
632.62136,0.11936
630.69264,0.12035
628.76391,0.12191
626.83519,0.12336
624.90647,0.12466
622.97774,0.12615
621.04902,0.12766
619.12030,0.12902
617.19157,0.13019
615.26285,0.13147
613.33413,0.13352
611.40540,0.13611
609.47668,0.13793
607.54795,0.13922
605.61923,0.14137
603.69051,0.14424
601.76178,0.14743
599.83306,0.15087
597.90434,0.15353
595.97561,0.15496
594.04689,0.15629
592.11817,0.15819
590.18944,0.16040
588.26072,0.16246
586.33199,0.16365
584.40327,0.16412
582.47455,0.16500
580.54582,0.16645
578.61710,0.16748
576.68838,0.16766
574.75965,0.16790
572.83093,0.16848
570.90220,0.16896
568.97348,0.16938
567.04476,0.16980
565.11603,0.17049
563.18731,0.17176
561.25859,0.17325
559.32986,0.17468
557.40114,0.17661
555.47242,0.17964
553.54369,0.18329
551.61497,0.18705
549.68624,0.19107
547.75752,0.19532
545.82880,0.19898
543.90007,0.20168
541.97135,0.20432
540.04263,0.20699
538.11390,0.20864
536.18518,0.20936
534.25646,0.21079
532.32773,0.21392
530.39901,0.21737
528.47028,0.21872
526.54156,0.21828
524.61284,0.21848
522.68411,0.21938
520.75539,0.21967
518.82667,0.21931
516.89794,0.21847
514.96922,0.21707
513.04049,0.21506
511.11177,0.21331
509.18305,0.21418
507.25432,0.21761
505.32560,0.22018
503.39688,0.22103
501.46815,0.22337
499.53943,0.22849
497.61071,0.23375
495.68198,0.23783
493.75326,0.24282
491.82453,0.25045
489.89581,0.25945
487.96709,0.26817
486.03836,0.27671
484.10964,0.28549
482.18092,0.29439
480.25219,0.30339
478.32347,0.31292
476.39475,0.32228
474.46602,0.32935
472.53730,0.33348
470.60857,0.33538
468.67985,0.33445
466.75113,0.33105
464.82240,0.32770
462.89368,0.32568
460.96496,0.32397
459.03623,0.32109
457.10751,0.31597
455.17878,0.30865
453.25006,0.30110
451.32134,0.29521
449.39261,0.29041
447.46389,0.28614
445.53517,0.28357
443.60644,0.28137
441.67772,0.27629
439.74900,0.26957
437.82027,0.26569
435.89155,0.26512
433.96282,0.26286
432.03410,0.25466
430.10538,0.24355
428.17665,0.23640
426.24793,0.23518
424.31921,0.23412
422.39048,0.22540
420.46176,0.20946
418.53304,0.19536
416.60431,0.19001
414.67559,0.19096
412.74686,0.19060
410.81814,0.18175
408.88942,0.16527
406.96069,0.15070
405.03197,0.14373
403.10325,0.14219
401.17452,0.14355
399.24580,0.14082
397.31708,0.12255
395.38835,0.09702
393.45963,0.08945
391.53090,0.10726
389.60218,0.13647
387.67346,0.15797
385.74473,0.16026
383.81601,0.14824
381.88729,0.14662
379.95856,0.17420
378.02984,0.19885
376.10111,0.15272
374.17239,0.04900
372.24367,0.00000
370.31494,-0.01144
368.38622,0.00000
