3996.31543,0.00000
3994.38671,0.00023
3992.45799,0.00045
3990.52926,0.00052
3988.60054,0.00049
3986.67182,0.00050
3984.74309,0.00057
3982.81437,0.00062
3980.88564,0.00063
3978.95692,0.00070
3977.02820,0.00078
3975.09947,0.00082
3973.17075,0.00091
3971.24203,0.00098
3969.31330,0.00094
3967.38458,0.00090
3965.45586,0.00096
3963.52713,0.00110
3961.59841,0.00129
3959.66968,0.00144
3957.74096,0.00151
3955.81224,0.00156
3953.88351,0.00161
3951.95479,0.00159
3950.02607,0.00149
3948.09734,0.00142
3946.16862,0.00149
3944.23990,0.00168
3942.31117,0.00187
3940.38245,0.00190
3938.45372,0.00171
3936.52500,0.00145
3934.59628,0.00131
3932.66755,0.00136
3930.73883,0.00163
3928.81011,0.00195
3926.88138,0.00195
3924.95266,0.00165
3923.02393,0.00146
3921.09521,0.00157
3919.16649,0.00180
3917.23776,0.00195
3915.30904,0.00196
3913.38032,0.00184
3911.45159,0.00170
3909.52287,0.00153
3907.59415,0.00134
3905.66542,0.00128
3903.73670,0.00151
3901.80797,0.00185
3899.87925,0.00209
3897.95053,0.00217
3896.02180,0.00199
3894.09308,0.00155
3892.16436,0.00110
3890.23563,0.00087
3888.30691,0.00084
3886.37819,0.00098
3884.44946,0.00126
3882.52074,0.00149
3880.59201,0.00164
3878.66329,0.00174
3876.73457,0.00177
3874.80584,0.00175
3872.87712,0.00173
3870.94840,0.00177
3869.01967,0.00178
3867.09095,0.00167
3865.16222,0.00161
3863.23350,0.00172
3861.30478,0.00189
3859.37605,0.00184
3857.44733,0.00152
3855.51861,0.00129
3853.58988,0.00166
3851.66116,0.00226
3849.73244,0.00240
3847.80371,0.00216
3845.87499,0.00198
3843.94626,0.00206
3842.01754,0.00220
3840.08882,0.00230
3838.16009,0.00240
3836.23137,0.00241
3834.30265,0.00236
3832.37392,0.00244
3830.44520,0.00264
3828.51648,0.00269
3826.58775,0.00262
3824.65903,0.00268
3822.73030,0.00290
3820.80158,0.00296
3818.87286,0.00278
3816.94413,0.00280
3815.01541,0.00330
3813.08669,0.00382
3811.15796,0.00391
3809.22924,0.00373
3807.30052,0.00370
3805.37179,0.00386
3803.44307,0.00406
3801.51434,0.00433
3799.58562,0.00464
3797.65690,0.00483
3795.72817,0.00500
3793.79945,0.00526
3791.87073,0.00556
3789.94200,0.00579
3788.01328,0.00591
3786.08455,0.00605
3784.15583,0.00635
3782.22711,0.00669
3780.29838,0.00700
3778.36966,0.00741
3776.44094,0.00784
3774.51221,0.00812
3772.58349,0.00828
3770.65477,0.00845
3768.72604,0.00872
3766.79732,0.00904
3764.86859,0.00940
3762.93987,0.00986
3761.01115,0.01041
3759.08242,0.01106
3757.15370,0.01164
3755.22498,0.01199
3753.29625,0.01226
3751.36753,0.01273
3749.43881,0.01352
3747.51008,0.01439
3745.58136,0.01537
3743.65263,0.01659
3741.72391,0.01771
3739.79519,0.01848
3737.86646,0.01928
3735.93774,0.02058
3734.00902,0.02223
3732.08029,0.02379
3730.15157,0.02529
3728.22284,0.02697
3726.29412,0.02905
3724.36540,0.03162
3722.43667,0.03464
3720.50795,0.03810
3718.57923,0.04188
3716.65050,0.04569
3714.72178,0.04964
3712.79306,0.05473
3710.86433,0.06135
3708.93561,0.06781
3707.00688,0.07292
3705.07816,0.07741
3703.14944,0.08245
3701.22071,0.08811
3699.29199,0.09335
3697.36327,0.09760
3695.43454,0.10094
3693.50582,0.10346
3691.57710,0.10583
3689.64837,0.10928
3687.71965,0.11376
3685.79092,0.11794
3683.86220,0.12152
3681.93348,0.12511
3680.00475,0.12901
3678.07603,0.13367
3676.14731,0.13998
3674.21858,0.14686
3672.28986,0.15224
3670.36113,0.15730
3668.43241,0.16313
3666.50369,0.16857
3664.57496,0.17332
3662.64624,0.17786
3660.71752,0.18232
3658.78879,0.18692
3656.86007,0.19210
3654.93135,0.19729
3653.00262,0.20163
3651.07390,0.20644
3649.14517,0.21323
3647.21645,0.22014
3645.28773,0.22510
3643.35900,0.22879
3641.43028,0.23257
3639.50156,0.23678
3637.57283,0.24101
3635.64411,0.24480
3633.71539,0.24793
3631.78666,0.25057
3629.85794,0.25358
3627.92921,0.25725
3626.00049,0.26022
3624.07177,0.26181
3622.14304,0.26238
3620.21432,0.26252
3618.28560,0.26254
3616.35687,0.26209
3614.42815,0.26121
3612.49942,0.26057
3610.57070,0.26048
3608.64198,0.26072
3606.71325,0.26107
3604.78453,0.26136
3602.85581,0.26150
3600.92708,0.26152
3598.99836,0.26149
3597.06964,0.26157
3595.14091,0.26187
3593.21219,0.26214
3591.28346,0.26198
3589.35474,0.26178
3587.42602,0.26247
3585.49729,0.26390
3583.56857,0.26502
3581.63985,0.26555
3579.71112,0.26592
3577.78240,0.26644
3575.85368,0.26719
3573.92495,0.26795
3571.99623,0.26833
3570.06750,0.26845
3568.13878,0.26916
3566.21006,0.27089
3564.28133,0.27265
3562.35261,0.27362
3560.42389,0.27412
3558.49516,0.27463
3556.56644,0.27518
3554.63771,0.27579
3552.70899,0.27663
3550.78027,0.27752
3548.85154,0.27811
3546.92282,0.27857
3544.99410,0.27917
3543.06537,0.27982
3541.13665,0.28042
3539.20793,0.28103
3537.27920,0.28169
3535.35048,0.28246
3533.42175,0.28327
3531.49303,0.28397
3529.56431,0.28457
3527.63558,0.28517
3525.70686,0.28581
3523.77814,0.28658
3521.84941,0.28760
3519.92069,0.28878
3517.99197,0.28999
3516.06324,0.29107
3514.13452,0.29176
3512.20579,0.29216
3510.27707,0.29268
3508.34835,0.29354
3506.41962,0.29449
3504.49090,0.29537
3502.56218,0.29640
3500.63345,0.29762
3498.70473,0.29885
3496.77600,0.30000
3494.84728,0.30104
3492.91856,0.30207
3490.98983,0.30314
3489.06111,0.30410
3487.13239,0.30490
3485.20366,0.30570
3483.27494,0.30654
3481.34622,0.30734
3479.41749,0.30812
3477.48877,0.30905
3475.56004,0.31023
3473.63132,0.31136
3471.70260,0.31207
3469.77387,0.31265
3467.84515,0.31342
3465.91643,0.31426
3463.98770,0.31513
3462.05898,0.31609
3460.13026,0.31683
3458.20153,0.31706
3456.27281,0.31728
3454.34408,0.31801
3452.41536,0.31886
3450.48664,0.31929
3448.55791,0.31949
3446.62919,0.31987
3444.70047,0.32044
3442.77174,0.32103
3440.84302,0.32157
3438.91429,0.32210
3436.98557,0.32257
3435.05685,0.32302
3433.12812,0.32355
3431.19940,0.32401
3429.27068,0.32425
3427.34195,0.32436
3425.41323,0.32453
3423.48451,0.32488
3421.55578,0.32532
3419.62706,0.32563
3417.69833,0.32563
3415.76961,0.32542
3413.84089,0.32530
3411.91216,0.32540
3409.98344,0.32565
3408.05472,0.32588
3406.12599,0.32585
3404.19727,0.32559
3402.26855,0.32544
3400.33982,0.32551
3398.41110,0.32542
3396.48237,0.32504
3394.55365,0.32484
3392.62493,0.32493
3390.69620,0.32465
3388.76748,0.32385
3386.83876,0.32320
3384.91003,0.32290
3382.98131,0.32262
3381.05259,0.32241
3379.12386,0.32229
3377.19514,0.32195
3375.26641,0.32144
3373.33769,0.32092
3371.40897,0.32031
3369.48024,0.31963
3367.55152,0.31887
3365.62280,0.31798
3363.69407,0.31711
3361.76535,0.31651
3359.83662,0.31606
3357.90790,0.31538
3355.97918,0.31453
3354.05045,0.31388
3352.12173,0.31331
3350.19301,0.31258
3348.26428,0.31174
3346.33556,0.31089
3344.40684,0.30995
3342.47811,0.30896
3340.54939,0.30803
3338.62066,0.30708
3336.69194,0.30620
3334.76322,0.30557
3332.83449,0.30494
3330.90577,0.30410
3328.97705,0.30336
3327.04832,0.30276
3325.11960,0.30187
3323.19088,0.30063
3321.26215,0.29952
3319.33343,0.29872
3317.40470,0.29792
3315.47598,0.29703
3313.54726,0.29623
3311.61853,0.29555
3309.68981,0.29483
3307.76109,0.29398
3305.83236,0.29305
3303.90364,0.29215
3301.97491,0.29143
3300.04619,0.29077
3298.11747,0.28996
3296.18874,0.28895
3294.26002,0.28798
3292.33130,0.28731
3290.40257,0.28697
3288.47385,0.28663
3286.54513,0.28601
3284.61640,0.28523
3282.68768,0.28455
3280.75895,0.28406
3278.83023,0.28362
3276.90151,0.28301
3274.97278,0.28229
3273.04406,0.28166
3271.11534,0.28102
3269.18661,0.28027
3267.25789,0.27956
3265.32917,0.27896
3263.40044,0.27845
3261.47172,0.27808
3259.54299,0.27765
3257.61427,0.27692
3255.68555,0.27600
3253.75682,0.27511
3251.82810,0.27439
3249.89938,0.27393
3247.97065,0.27351
3246.04193,0.27282
3244.11320,0.27206
3242.18448,0.27139
3240.25576,0.27058
3238.32703,0.26967
3236.39831,0.26898
3234.46959,0.26837
3232.54086,0.26758
3230.61214,0.26665
3228.68342,0.26564
3226.75469,0.26452
3224.82597,0.26341
3222.89724,0.26243
3220.96852,0.26160
3219.03980,0.26082
3217.11107,0.25989
3215.18235,0.25890
3213.25363,0.25796
3211.32490,0.25695
3209.39618,0.25586
3207.46746,0.25471
3205.53873,0.25350
3203.61001,0.25224
3201.68128,0.25102
3199.75256,0.24979
3197.82384,0.24854
3195.89511,0.24729
3193.96639,0.24608
3192.03767,0.24484
3190.10894,0.24359
3188.18022,0.24233
3186.25149,0.24104
3184.32277,0.23972
3182.39405,0.23847
3180.46532,0.23728
3178.53660,0.23602
3176.60788,0.23468
3174.67915,0.23340
3172.75043,0.23219
3170.82171,0.23093
3168.89298,0.22960
3166.96426,0.22832
3165.03553,0.22708
3163.10681,0.22574
3161.17809,0.22437
3159.24936,0.22313
3157.32064,0.22194
3155.39192,0.22070
3153.46319,0.21941
3151.53447,0.21817
3149.60575,0.21698
3147.67702,0.21577
3145.74830,0.21452
3143.81957,0.21322
3141.89085,0.21189
3139.96213,0.21064
3138.03340,0.20946
3136.10468,0.20822
3134.17596,0.20698
3132.24723,0.20588
3130.31851,0.20472
3128.38978,0.20327
3126.46106,0.20179
3124.53234,0.20060
3122.60361,0.19963
3120.67489,0.19859
3118.74617,0.19736
3116.81744,0.19604
3114.88872,0.19475
3112.96000,0.19343
3111.03127,0.19206
3109.10255,0.19085
3107.17382,0.18984
3105.24510,0.18871
3103.31638,0.18721
3101.38765,0.18558
3099.45893,0.18405
3097.53021,0.18263
3095.60148,0.18130
3093.67276,0.18008
3091.74404,0.17884
3089.81531,0.17740
3087.88659,0.17584
3085.95786,0.17443
3084.02914,0.17320
3082.10042,0.17201
3080.17169,0.17084
3078.24297,0.16963
3076.31425,0.16839
3074.38552,0.16715
3072.45680,0.16596
3070.52807,0.16474
3068.59935,0.16341
3066.67063,0.16210
3064.74190,0.16097
3062.81318,0.15981
3060.88446,0.15842
3058.95573,0.15702
3057.02701,0.15582
3055.09829,0.15472
3053.16956,0.15357
3051.24084,0.15244
3049.31211,0.15136
3047.38339,0.15023
3045.45467,0.14909
3043.52594,0.14804
3041.59722,0.14694
3039.66850,0.14568
3037.73977,0.14442
3035.81105,0.14333
3033.88233,0.14245
3031.95360,0.14157
3030.02488,0.14054
3028.09615,0.13942
3026.16743,0.13840
3024.23871,0.13744
3022.30998,0.13641
3020.38126,0.13540
3018.45254,0.13451
3016.52381,0.13362
3014.59509,0.13261
3012.66636,0.13162
3010.73764,0.13080
3008.80892,0.12998
3006.88019,0.12900
3004.95147,0.12795
3003.02275,0.12695
3001.09402,0.12611
2999.16530,0.12537
2997.23658,0.12454
2995.30785,0.12367
2993.37913,0.12288
2991.45040,0.12214
2989.52168,0.12143
2987.59296,0.12086
2985.66423,0.12047
2983.73551,0.12005
2981.80679,0.11953
2979.87806,0.11908
2977.94934,0.11880
2976.02062,0.11863
2974.09189,0.11859
2972.16317,0.11869
2970.23444,0.11888
2968.30572,0.11899
2966.37700,0.11907
2964.44827,0.11914
2962.51955,0.11889
2960.59083,0.11830
2958.66210,0.11757
2956.73338,0.11657
2954.80466,0.11517
2952.87593,0.11375
2950.94721,0.11265
2949.01848,0.11184
2947.08976,0.11127
2945.16104,0.11106
2943.23231,0.11128
2941.30359,0.11178
2939.37487,0.11238
2937.44614,0.11304
2935.51742,0.11377
2933.58869,0.11448
2931.65997,0.11495
2929.73125,0.11499
2927.80252,0.11457
2925.87380,0.11363
2923.94508,0.11208
2922.01635,0.10994
2920.08763,0.10746
2918.15891,0.10496
2916.23018,0.10265
2914.30146,0.10052
2912.37273,0.09852
2910.44401,0.09666
2908.51529,0.09495
2906.58656,0.09338
2904.65784,0.09192
2902.72912,0.09047
2900.80039,0.08896
2898.87167,0.08756
2896.94295,0.08633
2895.01422,0.08513
2893.08550,0.08395
2891.15677,0.08289
2889.22805,0.08193
2887.29933,0.08104
2885.37060,0.08021
2883.44188,0.07946
2881.51316,0.07887
2879.58443,0.07845
2877.65571,0.07809
2875.72698,0.07770
2873.79826,0.07721
2871.86954,0.07665
2869.94081,0.07608
2868.01209,0.07560
2866.08337,0.07536
2864.15464,0.07540
2862.22592,0.07568
2860.29720,0.07609
2858.36847,0.07646
2856.43975,0.07653
2854.51102,0.07610
2852.58230,0.07496
2850.65358,0.07305
2848.72485,0.07067
2846.79613,0.06814
2844.86741,0.06567
2842.93868,0.06338
2841.00996,0.06142
2839.08124,0.05978
2837.15251,0.05831
2835.22379,0.05692
2833.29506,0.05567
2831.36634,0.05460
2829.43762,0.05376
2827.50889,0.05306
2825.58017,0.05229
2823.65145,0.05144
2821.72272,0.05068
2819.79400,0.05005
2817.86527,0.04942
2815.93655,0.04872
2814.00783,0.04797
2812.07910,0.04731
2810.15038,0.04680
2808.22166,0.04630
2806.29293,0.04571
2804.36421,0.04507
2802.43549,0.04442
2800.50676,0.04382
2798.57804,0.04329
2796.64931,0.04271
2794.72059,0.04207
2792.79187,0.04145
2790.86314,0.04080
2788.93442,0.04016
2787.00570,0.03963
2785.07697,0.03922
2783.14825,0.03881
2781.21953,0.03828
2779.29080,0.03764
2777.36208,0.03704
2775.43335,0.03655
2773.50463,0.03610
2771.57591,0.03563
2769.64718,0.03516
2767.71846,0.03470
2765.78974,0.03416
2763.86101,0.03360
2761.93229,0.03315
2760.00356,0.03278
2758.07484,0.03232
2756.14612,0.03172
2754.21739,0.03111
2752.28867,0.03067
2750.35995,0.03036
2748.43122,0.02999
2746.50250,0.02958
2744.57378,0.02915
2742.64505,0.02874
2740.71633,0.02837
2738.78760,0.02799
2736.85888,0.02756
2734.93016,0.02715
2733.00143,0.02670
2731.07271,0.02617
2729.14399,0.02572
2727.21526,0.02537
2725.28654,0.02493
2723.35782,0.02446
2721.42909,0.02410
2719.50037,0.02369
2717.57164,0.02317
2715.64292,0.02274
2713.71420,0.02246
2711.78547,0.02222
2709.85675,0.02195
2707.92803,0.02156
2705.99930,0.02106
2704.07058,0.02060
2702.14185,0.02031
2700.21313,0.02009
2698.28441,0.01970
2696.35568,0.01921
2694.42696,0.01878
2692.49824,0.01845
2690.56951,0.01815
2688.64079,0.01783
2686.71207,0.01747
2684.78334,0.01712
2682.85462,0.01687
2680.92589,0.01668
2678.99717,0.01638
2677.06845,0.01597
2675.13972,0.01559
2673.21100,0.01531
2671.28228,0.01506
2669.35355,0.01470
2667.42483,0.01428
2665.49611,0.01388
2663.56738,0.01357
2661.63866,0.01331
2659.70993,0.01304
2657.78121,0.01274
2655.85249,0.01247
2653.92376,0.01217
2651.99504,0.01182
2650.06632,0.01152
2648.13759,0.01128
2646.20887,0.01095
2644.28014,0.01060
2642.35142,0.01035
2640.42270,0.01013
2638.49397,0.00993
2636.56525,0.00975
2634.63653,0.00948
2632.70780,0.00926
2630.77908,0.00907
2628.85036,0.00877
2626.92163,0.00843
2624.99291,0.00823
2623.06418,0.00810
2621.13546,0.00790
2619.20674,0.00761
2617.27801,0.00732
2615.34929,0.00711
2613.42057,0.00695
2611.49184,0.00673
2609.56312,0.00649
2607.63440,0.00630
2605.70567,0.00616
2603.77695,0.00601
2601.84822,0.00578
2599.91950,0.00551
2597.99078,0.00532
2596.06205,0.00515
2594.13333,0.00492
2592.20461,0.00464
2590.27588,0.00434
2588.34716,0.00411
2586.41843,0.00402
2584.48971,0.00398
2582.56099,0.00393
2580.63226,0.00383
2578.70354,0.00369
2576.77482,0.00353
2574.84609,0.00338
2572.91737,0.00316
2570.98865,0.00291
2569.05992,0.00273
2567.13120,0.00261
2565.20247,0.00255
2563.27375,0.00250
2561.34503,0.00236
2559.41630,0.00223
2557.48758,0.00218
2555.55886,0.00210
2553.63013,0.00195
2551.70141,0.00184
2549.77269,0.00181
2547.84396,0.00175
2545.91524,0.00163
2543.98651,0.00151
2542.05779,0.00140
2540.12907,0.00132
2538.20034,0.00128
2536.27162,0.00119
2534.34290,0.00105
2532.41417,0.00093
2530.48545,0.00084
2528.55673,0.00082
2526.62800,0.00083
2524.69928,0.00079
2522.77055,0.00071
2520.84183,0.00067
2518.91311,0.00070
2516.98438,0.00067
2515.05566,0.00055
2513.12694,0.00036
2511.19821,0.00022
2509.26949,0.00024
2507.34076,0.00035
2505.41204,0.00039
2503.48332,0.00034
2501.55459,0.00023
2499.62587,0.00012
2497.69715,0.00003
2495.76842,0.00000
2493.83970,0.00006
2491.91098,0.00015
2489.98225,0.00017
2488.05353,0.00009
2486.12480,0.00002
2484.19608,0.00001
2482.26736,0.00002
2480.33863,0.00004
2478.40991,0.00009
2476.48119,0.00015
2474.55246,0.00011
2472.62374,-0.00004
2470.69502,-0.00016
2468.76629,-0.00021
2466.83757,-0.00025
2464.90884,-0.00026
2462.98012,-0.00018
2461.05140,-0.00012
2459.12267,-0.00012
2457.19395,-0.00013
2455.26523,-0.00013
2453.33650,-0.00014
2451.40778,-0.00018
2449.47905,-0.00019
2447.55033,-0.00014
2445.62161,-0.00008
2443.69288,-0.00004
2441.76416,-0.00002
2439.83544,0.00003
2437.90671,0.00007
2435.97799,0.00011
2434.04927,0.00014
2432.12054,0.00008
2430.19182,0.00000
2428.26309,-0.00004
2426.33437,-0.00002
2424.40565,0.00000
2422.47692,0.00004
2420.54820,0.00008
2418.61948,0.00008
2416.69075,0.00010
2414.76203,0.00013
2412.83331,0.00013
2410.90458,0.00013
2408.97586,0.00015
2407.04713,0.00015
2405.11841,0.00009
2403.18969,0.00003
2401.26096,0.00004
2399.33224,0.00012
2397.40352,0.00015
2395.47479,0.00013
2393.54607,0.00008
2391.61734,0.00002
2389.68862,-0.00003
2387.75990,-0.00004
2385.83117,-0.00004
2383.90245,-0.00003
2381.97373,-0.00001
2380.04500,0.00002
2378.11628,0.00003
2376.18756,0.00002
2374.25883,0.00000
2372.33011,0.00002
2370.40138,0.00006
2368.47266,0.00001
2366.54394,-0.00013
2364.61521,-0.00020
2362.68649,-0.00009
2360.75777,0.00007
2358.82904,0.00014
2356.90032,0.00019
2354.97160,0.00026
2353.04287,0.00027
2351.11415,0.00020
2349.18542,0.00017
2347.25670,0.00022
2345.32798,0.00038
2343.39925,0.00055
2341.47053,0.00064
2339.54181,0.00070
2337.61308,0.00079
2335.68436,0.00083
2333.75563,0.00077
2331.82691,0.00072
2329.89819,0.00071
2327.96946,0.00069
2326.04074,0.00060
2324.11202,0.00055
2322.18329,0.00052
2320.25457,0.00045
2318.32585,0.00037
2316.39712,0.00037
2314.46840,0.00044
2312.53967,0.00049
2310.61095,0.00048
2308.68223,0.00039
2306.75350,0.00028
2304.82478,0.00024
2302.89606,0.00029
2300.96733,0.00037
2299.03861,0.00046
2297.10989,0.00052
2295.18116,0.00054
2293.25244,0.00052
2291.32371,0.00050
2289.39499,0.00048
2287.46627,0.00045
2285.53754,0.00048
2283.60882,0.00058
2281.68010,0.00067
2279.75137,0.00069
2277.82265,0.00066
2275.89392,0.00062
2273.96520,0.00060
2272.03648,0.00057
2270.10775,0.00056
2268.17903,0.00057
2266.25031,0.00054
2264.32158,0.00051
2262.39286,0.00047
2260.46414,0.00040
2258.53541,0.00036
2256.60669,0.00036
2254.67796,0.00033
2252.74924,0.00028
2250.82052,0.00027
2248.89179,0.00030
2246.96307,0.00030
2245.03435,0.00026
2243.10562,0.00022
2241.17690,0.00025
2239.24818,0.00025
2237.31945,0.00022
2235.39073,0.00022
2233.46200,0.00021
2231.53328,0.00019
2229.60456,0.00023
2227.67583,0.00029
2225.74711,0.00031
2223.81839,0.00024
2221.88966,0.00011
2219.96094,0.00007
2218.03221,0.00013
2216.10349,0.00019
2214.17477,0.00021
2212.24604,0.00018
2210.31732,0.00012
2208.38860,0.00006
2206.45987,0.00000
2204.53115,-0.00009
2202.60243,-0.00013
2200.67370,-0.00011
2198.74498,-0.00009
2196.81625,-0.00011
2194.88753,-0.00010
2192.95881,-0.00010
2191.03008,-0.00016
2189.10136,-0.00026
2187.17264,-0.00029
2185.24391,-0.00023
2183.31519,-0.00014
2181.38647,-0.00009
2179.45774,-0.00006
2177.52902,-0.00008
2175.60029,-0.00012
2173.67157,-0.00016
2171.74285,-0.00022
2169.81412,-0.00030
2167.88540,-0.00029
2165.95668,-0.00019
2164.02795,-0.00015
2162.09923,-0.00021
2160.17050,-0.00026
2158.24178,-0.00023
2156.31306,-0.00010
2154.38433,0.00004
2152.45561,0.00005
2150.52689,0.00000
2148.59816,-0.00000
2146.66944,-0.00001
2144.74072,-0.00009
2142.81199,-0.00015
2140.88327,-0.00008
2138.95454,-0.00001
2137.02582,-0.00003
2135.09710,-0.00009
2133.16837,-0.00012
2131.23965,-0.00008
2129.31093,-0.00002
2127.38220,0.00001
2125.45348,0.00003
2123.52476,0.00000
2121.59603,-0.00003
2119.66731,0.00003
2117.73858,0.00007
2115.80986,0.00004
2113.88114,0.00002
2111.95241,0.00001
2110.02369,-0.00003
2108.09497,-0.00006
2106.16624,-0.00002
2104.23752,-0.00002
2102.30880,-0.00008
2100.38007,-0.00015
2098.45135,-0.00011
2096.52262,-0.00002
2094.59390,0.00000
2092.66518,-0.00014
2090.73645,-0.00027
2088.80773,-0.00039
2086.87901,-0.00043
2084.95028,-0.00038
2083.02156,-0.00030
2081.09283,-0.00033
2079.16411,-0.00049
2077.23539,-0.00063
2075.30666,-0.00063
2073.37794,-0.00058
2071.44922,-0.00060
2069.52049,-0.00064
2067.59177,-0.00063
2065.66305,-0.00059
2063.73432,-0.00052
2061.80560,-0.00044
2059.87687,-0.00042
2057.94815,-0.00047
2056.01943,-0.00047
2054.09070,-0.00031
2052.16198,-0.00006
2050.23326,0.00018
2048.30453,0.00038
2046.37581,0.00057
2044.44709,0.00075
2042.51836,0.00094
2040.58964,0.00122
2038.66091,0.00152
2036.73219,0.00173
2034.80347,0.00195
2032.87474,0.00226
2030.94602,0.00262
2029.01730,0.00295
2027.08857,0.00329
2025.15985,0.00363
2023.23112,0.00393
2021.30240,0.00416
2019.37368,0.00433
2017.44495,0.00451
2015.51623,0.00473
2013.58751,0.00492
2011.65878,0.00507
2009.73006,0.00519
2007.80134,0.00532
2005.87261,0.00547
2003.94389,0.00563
2002.01516,0.00576
2000.08644,0.00578
1998.15772,0.00576
1996.22899,0.00576
1994.30027,0.00575
1992.37155,0.00572
1990.44282,0.00571
1988.51410,0.00573
1986.58538,0.00570
1984.65665,0.00559
1982.72793,0.00543
1980.79920,0.00529
1978.87048,0.00514
1976.94176,0.00499
1975.01303,0.00487
1973.08431,0.00475
1971.15559,0.00460
1969.22686,0.00444
1967.29814,0.00425
1965.36941,0.00402
1963.44069,0.00376
1961.51197,0.00351
1959.58324,0.00332
1957.65452,0.00323
1955.72580,0.00312
1953.79707,0.00294
1951.86835,0.00278
1949.93963,0.00275
1948.01090,0.00273
1946.08218,0.00258
1944.15345,0.00231
1942.22473,0.00211
1940.29601,0.00204
1938.36728,0.00208
1936.43856,0.00217
1934.50984,0.00218
1932.58111,0.00208
1930.65239,0.00196
1928.72367,0.00193
1926.79494,0.00196
1924.86622,0.00203
1922.93749,0.00216
1921.00877,0.00227
1919.08005,0.00241
1917.15132,0.00273
1915.22260,0.00326
1913.29388,0.00381
1911.36515,0.00433
1909.43643,0.00492
1907.50770,0.00561
1905.57898,0.00629
1903.65026,0.00696
1901.72153,0.00766
1899.79281,0.00834
1897.86409,0.00900
1895.93536,0.00964
1894.00664,0.01021
1892.07792,0.01070
1890.14919,0.01119
1888.22047,0.01170
1886.29174,0.01219
1884.36302,0.01264
1882.43430,0.01305
1880.50557,0.01341
1878.57685,0.01371
1876.64813,0.01389
1874.71940,0.01392
1872.79068,0.01380
1870.86196,0.01360
1868.93323,0.01341
1867.00451,0.01324
1865.07578,0.01292
1863.14706,0.01236
1861.21834,0.01166
1859.28961,0.01096
1857.36089,0.01025
1855.43217,0.00950
1853.50344,0.00878
1851.57472,0.00808
1849.64599,0.00742
1847.71727,0.00681
1845.78855,0.00626
1843.85982,0.00583
1841.93110,0.00552
1840.00238,0.00524
1838.07365,0.00494
1836.14493,0.00462
1834.21621,0.00428
1832.28748,0.00397
1830.35876,0.00374
1828.43003,0.00355
1826.50131,0.00330
1824.57259,0.00308
1822.64386,0.00297
1820.71514,0.00293
1818.78642,0.00285
1816.85769,0.00269
1814.92897,0.00252
1813.00025,0.00238
1811.07152,0.00229
1809.14280,0.00223
1807.21407,0.00216
1805.28535,0.00202
1803.35663,0.00183
1801.42790,0.00170
1799.49918,0.00171
1797.57046,0.00171
1795.64173,0.00163
1793.71301,0.00160
1791.78428,0.00174
1789.85556,0.00195
1787.92684,0.00206
1785.99811,0.00203
1784.06939,0.00199
1782.14067,0.00204
1780.21194,0.00216
1778.28322,0.00226
1776.35450,0.00226
1774.42577,0.00227
1772.49705,0.00249
1770.56832,0.00286
1768.63960,0.00311
1766.71088,0.00317
1764.78215,0.00315
1762.85343,0.00319
1760.92471,0.00332
1758.99598,0.00343
1757.06726,0.00347
1755.13854,0.00346
1753.20981,0.00339
1751.28109,0.00343
1749.35236,0.00366
1747.42364,0.00397
1745.49492,0.00436
1743.56619,0.00486
1741.63747,0.00550
1739.70875,0.00617
1737.78002,0.00666
1735.85130,0.00725
1733.92257,0.00860
1731.99385,0.01041
1730.06513,0.01188
1728.13640,0.01312
1726.20768,0.01442
1724.27896,0.01585
1722.35023,0.01719
1720.42151,0.01836
1718.49279,0.01985
1716.56406,0.02212
1714.63534,0.02453
1712.70661,0.02654
1710.77789,0.02831
1708.84917,0.03016
1706.92044,0.03235
1704.99172,0.03469
1703.06300,0.03678
1701.13427,0.03920
1699.20555,0.04248
1697.27683,0.04609
1695.34810,0.04981
1693.41938,0.05321
1691.49065,0.05610
1689.56193,0.05890
1687.63321,0.06159
1685.70448,0.06479
1683.77576,0.06945
1681.84704,0.07417
1679.91831,0.07767
1677.98959,0.08062
1676.06087,0.08394
1674.13214,0.08762
1672.20342,0.09117
1670.27469,0.09503
1668.34597,0.09931
1666.41725,0.10289
1664.48852,0.10598
1662.55980,0.10955
1660.63108,0.11317
1658.70235,0.11578
1656.77363,0.11742
1654.84490,0.11963
1652.91618,0.12364
1650.98746,0.12738
1649.05873,0.12954
1647.13001,0.13173
1645.20129,0.13443
1643.27256,0.13656
1641.34384,0.13789
1639.41512,0.13869
1637.48639,0.13928
1635.55767,0.13999
1633.62894,0.14047
1631.70022,0.14019
1629.77150,0.13912
1627.84277,0.13745
1625.91405,0.13529
1623.98533,0.13255
1622.05660,0.12931
1620.12788,0.12578
1618.19916,0.12143
1616.27043,0.11599
1614.34171,0.11060
1612.41298,0.10574
1610.48426,0.10064
1608.55554,0.09503
1606.62681,0.08933
1604.69809,0.08391
1602.76937,0.07875
1600.84064,0.07393
1598.91192,0.06952
1596.98319,0.06541
1595.05447,0.06151
1593.12575,0.05793
1591.19702,0.05468
1589.26830,0.05165
1587.33958,0.04881
1585.41085,0.04611
1583.48213,0.04356
1581.55341,0.04128
1579.62468,0.03929
1577.69596,0.03741
1575.76723,0.03558
1573.83851,0.03401
1571.90979,0.03263
1569.98106,0.03123
1568.05234,0.02995
1566.12362,0.02888
1564.19489,0.02780
1562.26617,0.02639
1560.33745,0.02473
1558.40872,0.02353
1556.48000,0.02324
1554.55127,0.02317
1552.62255,0.02281
1550.69383,0.02217
1548.76510,0.02136
1546.83638,0.02046
1544.90766,0.01946
1542.97893,0.01846
1541.05021,0.01774
1539.12148,0.01748
1537.19276,0.01730
1535.26404,0.01683
1533.33531,0.01613
1531.40659,0.01543
1529.47787,0.01473
1527.54914,0.01382
1525.62042,0.01267
1523.69170,0.01152
1521.76297,0.01068
1519.83425,0.01022
1517.90552,0.00993
1515.97680,0.00965
1514.04808,0.00916
1512.11935,0.00831
1510.19063,0.00715
1508.26191,0.00600
1506.33318,0.00522
1504.40446,0.00477
1502.47574,0.00422
1500.54701,0.00339
1498.61829,0.00251
1496.68956,0.00183
1494.76084,0.00129
1492.83212,0.00072
1490.90339,0.00020
1488.97467,0.00000
1487.04595,0.00001
1485.11722,0.00002
1483.18850,-0.00000
1481.25977,0.00005
1479.33105,0.00019
1477.40233,0.00034
1475.47360,0.00065
1473.54488,0.00162
1471.61616,0.00328
1469.68743,0.00476
1467.75871,0.00563
1465.82999,0.00614
1463.90126,0.00646
1461.97254,0.00648
1460.04381,0.00626
1458.11509,0.00612
1456.18637,0.00627
1454.25764,0.00645
1452.32892,0.00645
1450.40020,0.00647
1448.47147,0.00672
1446.54275,0.00710
1444.61403,0.00738
1442.68530,0.00749
1440.75658,0.00749
1438.82785,0.00750
1436.89913,0.00771
1434.97041,0.00807
1433.04168,0.00831
1431.11296,0.00846
1429.18424,0.00865
1427.25551,0.00882
1425.32679,0.00892
1423.39806,0.00903
1421.46934,0.00925
1419.54062,0.00990
1417.61189,0.01104
1415.68317,0.01220
1413.75445,0.01314
1411.82572,0.01414
1409.89700,0.01535
1407.96828,0.01669
1406.03955,0.01807
1404.11083,0.01940
1402.18210,0.02021
1400.25338,0.02004
1398.32466,0.01893
1396.39593,0.01722
1394.46721,0.01523
1392.53849,0.01326
1390.60976,0.01139
1388.68104,0.00955
1386.75232,0.00783
1384.82359,0.00658
1382.89487,0.00587
1380.96614,0.00538
1379.03742,0.00476
1377.10870,0.00393
1375.17997,0.00306
1373.25125,0.00237
1371.32253,0.00192
1369.39380,0.00160
1367.46508,0.00131
1365.53635,0.00097
1363.60763,0.00060
1361.67891,0.00027
1359.75018,0.00000
1357.82146,-0.00047
1355.89274,-0.00088
1353.96401,-0.00118
1352.03529,-0.00137
1350.10657,-0.00153
1348.17784,-0.00170
1346.24912,-0.00183
1344.32039,-0.00193
1342.39167,-0.00215
1340.46295,-0.00239
1338.53422,-0.00240
1336.60550,-0.00225
1334.67678,-0.00213
1332.74805,-0.00205
1330.81933,-0.00190
1328.89061,-0.00168
1326.96188,-0.00138
1325.03316,-0.00108
1323.10443,-0.00077
1321.17571,-0.00036
1319.24699,0.00022
1317.31826,0.00085
1315.38954,0.00143
1313.46082,0.00200
1311.53209,0.00261
1309.60337,0.00332
1307.67464,0.00422
1305.74592,0.00531
1303.81720,0.00649
1301.88847,0.00771
1299.95975,0.00896
1298.03103,0.01026
1296.10230,0.01173
1294.17358,0.01344
1292.24486,0.01533
1290.31613,0.01734
1288.38741,0.01945
1286.45868,0.02169
1284.52996,0.02414
1282.60124,0.02690
1280.67251,0.03007
1278.74379,0.03367
1276.81507,0.03763
1274.88634,0.04191
1272.95762,0.04659
1271.02890,0.05175
1269.10017,0.05741
1267.17145,0.06383
1265.24272,0.07126
1263.31400,0.07955
1261.38528,0.08868
1259.45655,0.09886
1257.52783,0.10994
1255.59911,0.12162
1253.67038,0.13377
1251.74166,0.14612
1249.81294,0.15840
1247.88421,0.17050
1245.95549,0.18220
1244.02676,0.19324
1242.09804,0.20344
1240.16932,0.21279
1238.24059,0.22156
1236.31187,0.22988
1234.38315,0.23752
1232.45442,0.24442
1230.52570,0.25081
1228.59697,0.25688
1226.66825,0.26269
1224.73953,0.26821
1222.81080,0.27359
1220.88208,0.27894
1218.95336,0.28400
1217.02463,0.28853
1215.09591,0.29281
1213.16719,0.29741
1211.23846,0.30229
1209.30974,0.30693
1207.38101,0.31139
1205.45229,0.31590
1203.52357,0.32019
1201.59484,0.32420
1199.66612,0.32836
1197.73740,0.33253
1195.80867,0.33613
1193.87995,0.33949
1191.95123,0.34327
1190.02250,0.34727
1188.09378,0.35123
1186.16505,0.35535
1184.23633,0.35965
1182.30761,0.36376
1180.37888,0.36763
1178.45016,0.37156
1176.52144,0.37562
1174.59271,0.37982
1172.66399,0.38389
1170.73526,0.38768
1168.80654,0.39165
1166.87782,0.39606
1164.94909,0.40014
1163.02037,0.40322
1161.09165,0.40604
1159.16292,0.40938
1157.23420,0.41295
1155.30548,0.41625
1153.37675,0.41943
1151.44803,0.42255
1149.51930,0.42561
1147.59058,0.42896
1145.66186,0.43215
1143.73313,0.43480
1141.80441,0.43774
1139.87569,0.44119
1137.94696,0.44459
1136.01824,0.44785
1134.08952,0.45115
1132.16079,0.45470
1130.23207,0.45862
1128.30334,0.46266
1126.37462,0.46691
1124.44590,0.47185
1122.51717,0.47716
1120.58845,0.48209
1118.65973,0.48650
1116.73100,0.49098
1114.80228,0.49574
1112.87355,0.50057
1110.94483,0.50566
1109.01611,0.51068
1107.08738,0.51501
1105.15866,0.51893
1103.22994,0.52327
1101.30121,0.52762
1099.37249,0.53130
1097.44377,0.53501
1095.51504,0.53881
1093.58632,0.54125
1091.65759,0.54249
1089.72887,0.54427
1087.80015,0.54636
1085.87142,0.54740
1083.94270,0.54800
1082.01398,0.54964
1080.08525,0.55146
1078.15653,0.55164
1076.22781,0.55118
1074.29908,0.55216
1072.37036,0.55455
1070.44163,0.55687
1068.51291,0.55841
1066.58419,0.55963
1064.65546,0.56084
1062.72674,0.56251
1060.79802,0.56478
1058.86929,0.56653
1056.94057,0.56785
1055.01184,0.57010
1053.08312,0.57259
1051.15440,0.57323
1049.22567,0.57211
1047.29695,0.57041
1045.36823,0.56851
1043.43950,0.56655
1041.51078,0.56485
1039.58206,0.56330
1037.65333,0.56124
1035.72461,0.55830
1033.79588,0.55423
1031.86716,0.54901
1029.93844,0.54335
1028.00971,0.53762
1026.08099,0.53182
1024.15227,0.52599
1022.22354,0.51957
1020.29482,0.51282
1018.36610,0.50685
1016.43737,0.50084
1014.50865,0.49335
1012.57992,0.48489
1010.65120,0.47650
1008.72248,0.46826
1006.79375,0.45935
1004.86503,0.44926
1002.93631,0.43843
1001.00758,0.42743
999.07886,0.41651
997.15013,0.40564
995.22141,0.39467
993.29269,0.38352
991.36396,0.37213
989.43524,0.36074
987.50652,0.34978
985.57779,0.33954
983.64907,0.32984
981.72035,0.32047
979.79162,0.31147
977.86290,0.30284
975.93417,0.29464
974.00545,0.28722
972.07673,0.28074
970.14800,0.27495
968.21928,0.26957
966.29056,0.26457
964.36183,0.25978
962.43311,0.25507
960.50439,0.25073
958.57566,0.24689
956.64694,0.24339
954.71821,0.24013
952.78949,0.23682
950.86077,0.23350
948.93204,0.23070
947.00332,0.22816
945.07460,0.22511
943.14587,0.22179
941.21715,0.21898
939.28842,0.21652
937.35970,0.21371
935.43098,0.21057
933.50225,0.20737
931.57353,0.20401
929.64481,0.20102
927.71608,0.19886
925.78736,0.19689
923.85864,0.19470
921.92991,0.19246
920.00119,0.19024
918.07246,0.18780
916.14374,0.18445
914.21502,0.17993
912.28629,0.17479
910.35757,0.16920
908.42885,0.16272
906.50012,0.15543
904.57140,0.14796
902.64268,0.14074
900.71395,0.13378
898.78523,0.12711
896.85650,0.12074
894.92778,0.11460
892.99906,0.10874
891.07033,0.10330
889.14161,0.09838
887.21289,0.09385
885.28416,0.08945
883.35544,0.08525
881.42671,0.08141
879.49799,0.07788
877.56927,0.07432
875.64054,0.07053
873.71182,0.06683
871.78310,0.06356
869.85437,0.06038
867.92565,0.05683
865.99693,0.05294
864.06820,0.04912
862.13948,0.04603
860.21075,0.04373
858.28203,0.04123
856.35331,0.03832
854.42458,0.03584
852.49586,0.03401
850.56714,0.03259
848.63841,0.03152
846.70969,0.03100
844.78097,0.03122
842.85224,0.03165
840.92352,0.03189
838.99479,0.03243
837.06607,0.03360
835.13735,0.03496
833.20862,0.03622
831.27990,0.03764
829.35118,0.03956
827.42245,0.04206
825.49373,0.04479
823.56501,0.04742
821.63628,0.05033
819.70756,0.05409
817.77883,0.05855
815.85011,0.06322
813.92139,0.06779
811.99266,0.07244
810.06394,0.07767
808.13522,0.08389
806.20649,0.09112
804.27777,0.09873
802.34904,0.10540
800.42032,0.11021
798.49160,0.11310
796.56287,0.11387
794.63415,0.11260
792.70543,0.11075
790.77670,0.10950
788.84798,0.10838
786.91926,0.10659
784.99053,0.10418
783.06181,0.10148
781.13308,0.09848
779.20436,0.09502
777.27564,0.09091
775.34691,0.08613
773.41819,0.08126
771.48947,0.07722
769.56074,0.07439
767.63202,0.07227
765.70330,0.07054
763.77457,0.06935
761.84585,0.06849
759.91712,0.06757
757.98840,0.06679
756.05968,0.06621
754.13095,0.06560
752.20223,0.06516
750.27351,0.06503
748.34478,0.06466
746.41606,0.06378
744.48733,0.06279
742.55861,0.06205
740.62989,0.06155
738.70116,0.06112
736.77244,0.06072
734.84372,0.06009
732.91499,0.05923
730.98627,0.05873
729.05755,0.05860
727.12882,0.05863
725.20010,0.05877
723.27137,0.05858
721.34265,0.05786
719.41393,0.05693
717.48520,0.05603
715.55648,0.05514
713.62776,0.05427
711.69903,0.05368
709.77031,0.05361
707.84159,0.05420
705.91286,0.05516
703.98414,0.05596
702.05541,0.05656
700.12669,0.05719
698.19797,0.05796
696.26924,0.05872
694.34052,0.05923
692.41180,0.05938
690.48307,0.05908
688.55435,0.05829
686.62562,0.05711
684.69690,0.05574
682.76818,0.05459
680.83945,0.05395
678.91073,0.05351
676.98201,0.05287
675.05328,0.05200
673.12456,0.05093
671.19584,0.04996
669.26711,0.04993
667.33839,0.05094
665.40966,0.05165
663.48094,0.05141
661.55222,0.05081
659.62349,0.05074
657.69477,0.05176
655.76605,0.05362
653.83732,0.05570
651.90860,0.05812
649.97988,0.06167
648.05115,0.06620
646.12243,0.07061
644.19370,0.07445
642.26498,0.07816
640.33626,0.08157
638.40753,0.08396
636.47881,0.08552
634.55009,0.08695
632.62136,0.08853
630.69264,0.09008
628.76391,0.09137
626.83519,0.09267
624.90647,0.09486
622.97774,0.09736
621.04902,0.09887
619.12030,0.09966
617.19157,0.10077
615.26285,0.10233
613.33413,0.10370
611.40540,0.10471
609.47668,0.10622
607.54795,0.10920
605.61923,0.11396
603.69051,0.11944
601.76178,0.12399
599.83306,0.12755
597.90434,0.13081
595.97561,0.13347
594.04689,0.13511
592.11817,0.13632
590.18944,0.13763
588.26072,0.13879
586.33199,0.14004
584.40327,0.14126
582.47455,0.14111
580.54582,0.14000
578.61710,0.14004
576.68838,0.14132
574.75965,0.14240
572.83093,0.14279
570.90220,0.14235
568.97348,0.14134
567.04476,0.14099
565.11603,0.14193
563.18731,0.14314
561.25859,0.14381
559.32986,0.14462
557.40114,0.14682
555.47242,0.15060
553.54369,0.15434
551.61497,0.15738
549.68624,0.16146
547.75752,0.16758
545.82880,0.17377
543.90007,0.17763
541.97135,0.17944
540.04263,0.18096
538.11390,0.18335
536.18518,0.18674
534.25646,0.18987
532.32773,0.19159
530.39901,0.19287
528.47028,0.19465
526.54156,0.19624
524.61284,0.19686
522.68411,0.19650
520.75539,0.19615
518.82667,0.19690
516.89794,0.19774
514.96922,0.19647
513.04049,0.19317
511.11177,0.19077
509.18305,0.19129
507.25432,0.19359
505.32560,0.19624
503.39688,0.19882
501.46815,0.20222
499.53943,0.20787
497.61071,0.21548
495.68198,0.22434
493.75326,0.23285
491.82453,0.23742
489.89581,0.23856
487.96709,0.24353
486.03836,0.25611
484.10964,0.27092
482.18092,0.28286
480.25219,0.29344
478.32347,0.30469
476.39475,0.31640
474.46602,0.32709
472.53730,0.33246
470.60857,0.32976
468.67985,0.32344
466.75113,0.31938
464.82240,0.31961
462.89368,0.32256
460.96496,0.32440
459.03623,0.32048
457.10751,0.31029
455.17878,0.30080
453.25006,0.29681
451.32134,0.29531
449.39261,0.29169
447.46389,0.28398
445.53517,0.27278
443.60644,0.26276
441.67772,0.25827
439.74900,0.25638
437.82027,0.25413
435.89155,0.25332
433.96282,0.25308
432.03410,0.25032
430.10538,0.24339
428.17665,0.23039
426.24793,0.21230
424.31921,0.19617
422.39048,0.18780
420.46176,0.18439
418.53304,0.18053
416.60431,0.17348
414.67559,0.16164
412.74686,0.14838
410.81814,0.14090
408.88942,0.13950
406.96069,0.13649
405.03197,0.12860
403.10325,0.11963
401.17452,0.10854
399.24580,0.09195
397.31708,0.08040
395.38835,0.08586
393.45963,0.09828
391.53090,0.10522
389.60218,0.10789
387.67346,0.10737
385.74473,0.08957
383.81601,0.05166
381.88729,0.02145
379.95856,0.00703
378.02984,0.00000
376.10111,-0.00471
374.17239,0.02933
372.24367,0.07417
370.31494,0.07043
368.38622,0.00000
