3996.31543,0.00000
3994.38671,0.00018
3992.45799,0.00028
3990.52926,0.00043
3988.60054,0.00063
3986.67182,0.00071
3984.74309,0.00069
3982.81437,0.00063
3980.88564,0.00058
3978.95692,0.00061
3977.02820,0.00071
3975.09947,0.00076
3973.17075,0.00075
3971.24203,0.00083
3969.31330,0.00093
3967.38458,0.00094
3965.45586,0.00092
3963.52713,0.00098
3961.59841,0.00106
3959.66968,0.00110
3957.74096,0.00110
3955.81224,0.00114
3953.88351,0.00126
3951.95479,0.00141
3950.02607,0.00140
3948.09734,0.00118
3946.16862,0.00100
3944.23990,0.00102
3942.31117,0.00110
3940.38245,0.00111
3938.45372,0.00111
3936.52500,0.00117
3934.59628,0.00130
3932.66755,0.00138
3930.73883,0.00137
3928.81011,0.00135
3926.88138,0.00138
3924.95266,0.00141
3923.02393,0.00151
3921.09521,0.00170
3919.16649,0.00176
3917.23776,0.00152
3915.30904,0.00124
3913.38032,0.00116
3911.45159,0.00127
3909.52287,0.00155
3907.59415,0.00194
3905.66542,0.00219
3903.73670,0.00203
3901.80797,0.00153
3899.87925,0.00109
3897.95053,0.00104
3896.02180,0.00131
3894.09308,0.00154
3892.16436,0.00155
3890.23563,0.00155
3888.30691,0.00165
3886.37819,0.00158
3884.44946,0.00143
3882.52074,0.00151
3880.59201,0.00159
3878.66329,0.00164
3876.73457,0.00196
3874.80584,0.00233
3872.87712,0.00245
3870.94840,0.00222
3869.01967,0.00182
3867.09095,0.00164
3865.16222,0.00164
3863.23350,0.00154
3861.30478,0.00157
3859.37605,0.00198
3857.44733,0.00261
3855.51861,0.00284
3853.58988,0.00217
3851.66116,0.00137
3849.73244,0.00150
3847.80371,0.00207
3845.87499,0.00241
3843.94626,0.00248
3842.01754,0.00244
3840.08882,0.00237
3838.16009,0.00220
3836.23137,0.00194
3834.30265,0.00189
3832.37392,0.00210
3830.44520,0.00236
3828.51648,0.00256
3826.58775,0.00275
3824.65903,0.00299
3822.73030,0.00295
3820.80158,0.00243
3818.87286,0.00201
3816.94413,0.00198
3815.01541,0.00214
3813.08669,0.00259
3811.15796,0.00323
3809.22924,0.00363
3807.30052,0.00363
3805.37179,0.00368
3803.44307,0.00400
3801.51434,0.00408
3799.58562,0.00381
3797.65690,0.00364
3795.72817,0.00363
3793.79945,0.00373
3791.87073,0.00396
3789.94200,0.00418
3788.01328,0.00432
3786.08455,0.00445
3784.15583,0.00459
3782.22711,0.00464
3780.29838,0.00453
3778.36966,0.00445
3776.44094,0.00471
3774.51221,0.00530
3772.58349,0.00586
3770.65477,0.00610
3768.72604,0.00606
3766.79732,0.00598
3764.86859,0.00603
3762.93987,0.00638
3761.01115,0.00693
3759.08242,0.00727
3757.15370,0.00748
3755.22498,0.00797
3753.29625,0.00866
3751.36753,0.00901
3749.43881,0.00909
3747.51008,0.00943
3745.58136,0.00988
3743.65263,0.01013
3741.72391,0.01056
3739.79519,0.01145
3737.86646,0.01251
3735.93774,0.01330
3734.00902,0.01377
3732.08029,0.01432
3730.15157,0.01519
3728.22284,0.01631
3726.29412,0.01767
3724.36540,0.01928
3722.43667,0.02113
3720.50795,0.02311
3718.57923,0.02528
3716.65050,0.02781
3714.72178,0.03081
3712.79306,0.03423
3710.86433,0.03785
3708.93561,0.04144
3707.00688,0.04496
3705.07816,0.04849
3703.14944,0.05210
3701.22071,0.05557
3699.29199,0.05857
3697.36327,0.06120
3695.43454,0.06375
3693.50582,0.06626
3691.57710,0.06869
3689.64837,0.07103
3687.71965,0.07342
3685.79092,0.07618
3683.86220,0.07937
3681.93348,0.08285
3680.00475,0.08657
3678.07603,0.09059
3676.14731,0.09493
3674.21858,0.09903
3672.28986,0.10265
3670.36113,0.10655
3668.43241,0.11078
3666.50369,0.11466
3664.57496,0.11824
3662.64624,0.12177
3660.71752,0.12522
3658.78879,0.12866
3656.86007,0.13242
3654.93135,0.13637
3653.00262,0.14003
3651.07390,0.14359
3649.14517,0.14745
3647.21645,0.15141
3645.28773,0.15500
3643.35900,0.15827
3641.43028,0.16155
3639.50156,0.16490
3637.57283,0.16812
3635.64411,0.17105
3633.71539,0.17368
3631.78666,0.17604
3629.85794,0.17816
3627.92921,0.18009
3626.00049,0.18188
3624.07177,0.18345
3622.14304,0.18448
3620.21432,0.18465
3618.28560,0.18407
3616.35687,0.18335
3614.42815,0.18275
3612.49942,0.18218
3610.57070,0.18174
3608.64198,0.18147
3606.71325,0.18127
3604.78453,0.18108
3602.85581,0.18084
3600.92708,0.18041
3598.99836,0.17981
3597.06964,0.17936
3595.14091,0.17924
3593.21219,0.17938
3591.28346,0.17965
3589.35474,0.17975
3587.42602,0.17963
3585.49729,0.17965
3583.56857,0.17996
3581.63985,0.18031
3579.71112,0.18060
3577.78240,0.18081
3575.85368,0.18095
3573.92495,0.18118
3571.99623,0.18165
3570.06750,0.18219
3568.13878,0.18253
3566.21006,0.18274
3564.28133,0.18314
3562.35261,0.18382
3560.42389,0.18457
3558.49516,0.18515
3556.56644,0.18558
3554.63771,0.18595
3552.70899,0.18631
3550.78027,0.18677
3548.85154,0.18726
3546.92282,0.18754
3544.99410,0.18772
3543.06537,0.18813
3541.13665,0.18877
3539.20793,0.18939
3537.27920,0.18991
3535.35048,0.19040
3533.42175,0.19097
3531.49303,0.19166
3529.56431,0.19228
3527.63558,0.19270
3525.70686,0.19309
3523.77814,0.19358
3521.84941,0.19414
3519.92069,0.19481
3517.99197,0.19560
3516.06324,0.19632
3514.13452,0.19689
3512.20579,0.19755
3510.27707,0.19840
3508.34835,0.19924
3506.41962,0.19997
3504.49090,0.20064
3502.56218,0.20130
3500.63345,0.20194
3498.70473,0.20261
3496.77600,0.20326
3494.84728,0.20389
3492.91856,0.20459
3490.98983,0.20537
3489.06111,0.20606
3487.13239,0.20675
3485.20366,0.20766
3483.27494,0.20852
3481.34622,0.20902
3479.41749,0.20940
3477.48877,0.20992
3475.56004,0.21044
3473.63132,0.21090
3471.70260,0.21146
3469.77387,0.21220
3467.84515,0.21294
3465.91643,0.21353
3463.98770,0.21416
3462.05898,0.21483
3460.13026,0.21537
3458.20153,0.21580
3456.27281,0.21625
3454.34408,0.21673
3452.41536,0.21728
3450.48664,0.21788
3448.55791,0.21830
3446.62919,0.21841
3444.70047,0.21854
3442.77174,0.21900
3440.84302,0.21957
3438.91429,0.21996
3436.98557,0.22023
3435.05685,0.22053
3433.12812,0.22084
3431.19940,0.22105
3429.27068,0.22118
3427.34195,0.22149
3425.41323,0.22196
3423.48451,0.22229
3421.55578,0.22238
3419.62706,0.22240
3417.69833,0.22243
3415.76961,0.22244
3413.84089,0.22248
3411.91216,0.22262
3409.98344,0.22276
3408.05472,0.22279
3406.12599,0.22282
3404.19727,0.22293
3402.26855,0.22294
3400.33982,0.22274
3398.41110,0.22254
3396.48237,0.22250
3394.55365,0.22248
3392.62493,0.22228
3390.69620,0.22205
3388.76748,0.22190
3386.83876,0.22166
3384.91003,0.22131
3382.98131,0.22112
3381.05259,0.22095
3379.12386,0.22055
3377.19514,0.22013
3375.26641,0.21977
3373.33769,0.21924
3371.40897,0.21859
3369.48024,0.21814
3367.55152,0.21790
3365.62280,0.21767
3363.69407,0.21739
3361.76535,0.21704
3359.83662,0.21655
3357.90790,0.21591
3355.97918,0.21530
3354.05045,0.21481
3352.12173,0.21427
3350.19301,0.21360
3348.26428,0.21296
3346.33556,0.21247
3344.40684,0.21201
3342.47811,0.21144
3340.54939,0.21066
3338.62066,0.20981
3336.69194,0.20909
3334.76322,0.20861
3332.83449,0.20816
3330.90577,0.20754
3328.97705,0.20683
3327.04832,0.20615
3325.11960,0.20550
3323.19088,0.20485
3321.26215,0.20424
3319.33343,0.20364
3317.40470,0.20301
3315.47598,0.20227
3313.54726,0.20139
3311.61853,0.20063
3309.68981,0.20016
3307.76109,0.19979
3305.83236,0.19926
3303.90364,0.19857
3301.97491,0.19780
3300.04619,0.19714
3298.11747,0.19673
3296.18874,0.19638
3294.26002,0.19593
3292.33130,0.19539
3290.40257,0.19473
3288.47385,0.19404
3286.54513,0.19347
3284.61640,0.19298
3282.68768,0.19248
3280.75895,0.19197
3278.83023,0.19146
3276.90151,0.19090
3274.97278,0.19027
3273.04406,0.18976
3271.11534,0.18946
3269.18661,0.18918
3267.25789,0.18870
3265.32917,0.18813
3263.40044,0.18767
3261.47172,0.18727
3259.54299,0.18683
3257.61427,0.18644
3255.68555,0.18616
3253.75682,0.18593
3251.82810,0.18553
3249.89938,0.18485
3247.97065,0.18404
3246.04193,0.18330
3244.11320,0.18266
3242.18448,0.18208
3240.25576,0.18156
3238.32703,0.18109
3236.39831,0.18059
3234.46959,0.17994
3232.54086,0.17920
3230.61214,0.17853
3228.68342,0.17799
3226.75469,0.17741
3224.82597,0.17663
3222.89724,0.17575
3220.96852,0.17500
3219.03980,0.17434
3217.11107,0.17360
3215.18235,0.17278
3213.25363,0.17195
3211.32490,0.17108
3209.39618,0.17025
3207.46746,0.16954
3205.53873,0.16881
3203.61001,0.16792
3201.68128,0.16702
3199.75256,0.16620
3197.82384,0.16532
3195.89511,0.16443
3193.96639,0.16370
3192.03767,0.16296
3190.10894,0.16203
3188.18022,0.16106
3186.25149,0.16013
3184.32277,0.15908
3182.39405,0.15787
3180.46532,0.15662
3178.53660,0.15546
3176.60788,0.15459
3174.67915,0.15393
3172.75043,0.15321
3170.82171,0.15233
3168.89298,0.15137
3166.96426,0.15039
3165.03553,0.14940
3163.10681,0.14846
3161.17809,0.14763
3159.24936,0.14682
3157.32064,0.14592
3155.39192,0.14495
3153.46319,0.14396
3151.53447,0.14297
3149.60575,0.14199
3147.67702,0.14101
3145.74830,0.14003
3143.81957,0.13921
3141.89085,0.13854
3139.96213,0.13782
3138.03340,0.13694
3136.10468,0.13597
3134.17596,0.13491
3132.24723,0.13387
3130.31851,0.13305
3128.38978,0.13227
3126.46106,0.13127
3124.53234,0.13021
3122.60361,0.12932
3120.67489,0.12852
3118.74617,0.12776
3116.81744,0.12703
3114.88872,0.12617
3112.96000,0.12515
3111.03127,0.12414
3109.10255,0.12322
3107.17382,0.12228
3105.24510,0.12122
3103.31638,0.12010
3101.38765,0.11909
3099.45893,0.11820
3097.53021,0.11723
3095.60148,0.11620
3093.67276,0.11526
3091.74404,0.11439
3089.81531,0.11351
3087.88659,0.11266
3085.95786,0.11185
3084.02914,0.11101
3082.10042,0.11002
3080.17169,0.10892
3078.24297,0.10782
3076.31425,0.10682
3074.38552,0.10592
3072.45680,0.10503
3070.52807,0.10405
3068.59935,0.10307
3066.67063,0.10223
3064.74190,0.10140
3062.81318,0.10050
3060.88446,0.09966
3058.95573,0.09885
3057.02701,0.09792
3055.09829,0.09700
3053.16956,0.09620
3051.24084,0.09545
3049.31211,0.09469
3047.38339,0.09390
3045.45467,0.09312
3043.52594,0.09237
3041.59722,0.09163
3039.66850,0.09086
3037.73977,0.09012
3035.81105,0.08946
3033.88233,0.08893
3031.95360,0.08844
3030.02488,0.08771
3028.09615,0.08674
3026.16743,0.08584
3024.23871,0.08519
3022.30998,0.08466
3020.38126,0.08401
3018.45254,0.08318
3016.52381,0.08238
3014.59509,0.08174
3012.66636,0.08118
3010.73764,0.08062
3008.80892,0.08005
3006.88019,0.07939
3004.95147,0.07863
3003.02275,0.07784
3001.09402,0.07710
2999.16530,0.07641
2997.23658,0.07575
2995.30785,0.07511
2993.37913,0.07448
2991.45040,0.07392
2989.52168,0.07350
2987.59296,0.07316
2985.66423,0.07270
2983.73551,0.07209
2981.80679,0.07151
2979.87806,0.07102
2977.94934,0.07067
2976.02062,0.07039
2974.09189,0.06998
2972.16317,0.06946
2970.23444,0.06902
2968.30572,0.06866
2966.37700,0.06832
2964.44827,0.06797
2962.51955,0.06754
2960.59083,0.06702
2958.66210,0.06650
2956.73338,0.06592
2954.80466,0.06518
2952.87593,0.06435
2950.94721,0.06359
2949.01848,0.06296
2947.08976,0.06238
2945.16104,0.06188
2943.23231,0.06157
2941.30359,0.06149
2939.37487,0.06149
2937.44614,0.06138
2935.51742,0.06110
2933.58869,0.06077
2931.65997,0.06046
2929.73125,0.06006
2927.80252,0.05946
2925.87380,0.05857
2923.94508,0.05742
2922.01635,0.05609
2920.08763,0.05475
2918.15891,0.05367
2916.23018,0.05299
2914.30146,0.05251
2912.37273,0.05205
2910.44401,0.05148
2908.51529,0.05072
2906.58656,0.04991
2904.65784,0.04924
2902.72912,0.04864
2900.80039,0.04800
2898.87167,0.04735
2896.94295,0.04676
2895.01422,0.04621
2893.08550,0.04560
2891.15677,0.04501
2889.22805,0.04455
2887.29933,0.04413
2885.37060,0.04362
2883.44188,0.04311
2881.51316,0.04270
2879.58443,0.04237
2877.65571,0.04208
2875.72698,0.04182
2873.79826,0.04139
2871.86954,0.04075
2869.94081,0.04017
2868.01209,0.03977
2866.08337,0.03942
2864.15464,0.03898
2862.22592,0.03859
2860.29720,0.03840
2858.36847,0.03824
2856.43975,0.03804
2854.51102,0.03788
2852.58230,0.03759
2850.65358,0.03698
2848.72485,0.03614
2846.79613,0.03523
2844.86741,0.03434
2842.93868,0.03354
2841.00996,0.03273
2839.08124,0.03191
2837.15251,0.03119
2835.22379,0.03056
2833.29506,0.02995
2831.36634,0.02945
2829.43762,0.02912
2827.50889,0.02880
2825.58017,0.02837
2823.65145,0.02785
2821.72272,0.02741
2819.79400,0.02709
2817.86527,0.02675
2815.93655,0.02630
2814.00783,0.02587
2812.07910,0.02559
2810.15038,0.02539
2808.22166,0.02510
2806.29293,0.02476
2804.36421,0.02450
2802.43549,0.02427
2800.50676,0.02386
2798.57804,0.02335
2796.64931,0.02290
2794.72059,0.02252
2792.79187,0.02223
2790.86314,0.02206
2788.93442,0.02186
2787.00570,0.02155
2785.07697,0.02118
2783.14825,0.02078
2781.21953,0.02046
2779.29080,0.02021
2777.36208,0.01996
2775.43335,0.01972
2773.50463,0.01941
2771.57591,0.01903
2769.64718,0.01873
2767.71846,0.01852
2765.78974,0.01827
2763.86101,0.01794
2761.93229,0.01765
2760.00356,0.01741
2758.07484,0.01712
2756.14612,0.01669
2754.21739,0.01626
2752.28867,0.01601
2750.35995,0.01587
2748.43122,0.01564
2746.50250,0.01531
2744.57378,0.01500
2742.64505,0.01479
2740.71633,0.01462
2738.78760,0.01444
2736.85888,0.01424
2734.93016,0.01398
2733.00143,0.01373
2731.07271,0.01355
2729.14399,0.01337
2727.21526,0.01317
2725.28654,0.01295
2723.35782,0.01275
2721.42909,0.01256
2719.50037,0.01229
2717.57164,0.01193
2715.64292,0.01161
2713.71420,0.01146
2711.78547,0.01139
2709.85675,0.01121
2707.92803,0.01085
2705.99930,0.01059
2704.07058,0.01053
2702.14185,0.01040
2700.21313,0.01008
2698.28441,0.00982
2696.35568,0.00970
2694.42696,0.00947
2692.49824,0.00916
2690.56951,0.00898
2688.64079,0.00891
2686.71207,0.00882
2684.78334,0.00864
2682.85462,0.00848
2680.92589,0.00839
2678.99717,0.00829
2677.06845,0.00808
2675.13972,0.00784
2673.21100,0.00768
2671.28228,0.00756
2669.35355,0.00739
2667.42483,0.00720
2665.49611,0.00702
2663.56738,0.00684
2661.63866,0.00667
2659.70993,0.00647
2657.78121,0.00624
2655.85249,0.00604
2653.92376,0.00587
2651.99504,0.00571
2650.06632,0.00559
2648.13759,0.00553
2646.20887,0.00547
2644.28014,0.00533
2642.35142,0.00512
2640.42270,0.00488
2638.49397,0.00468
2636.56525,0.00458
2634.63653,0.00449
2632.70780,0.00432
2630.77908,0.00416
2628.85036,0.00408
2626.92163,0.00397
2624.99291,0.00384
2623.06418,0.00377
2621.13546,0.00372
2619.20674,0.00364
2617.27801,0.00355
2615.34929,0.00341
2613.42057,0.00325
2611.49184,0.00315
2609.56312,0.00309
2607.63440,0.00297
2605.70567,0.00277
2603.77695,0.00256
2601.84822,0.00245
2599.91950,0.00242
2597.99078,0.00237
2596.06205,0.00222
2594.13333,0.00207
2592.20461,0.00209
2590.27588,0.00214
2588.34716,0.00208
2586.41843,0.00194
2584.48971,0.00172
2582.56099,0.00153
2580.63226,0.00151
2578.70354,0.00159
2576.77482,0.00161
2574.84609,0.00158
2572.91737,0.00147
2570.98865,0.00131
2569.05992,0.00118
2567.13120,0.00113
2565.20247,0.00110
2563.27375,0.00107
2561.34503,0.00107
2559.41630,0.00103
2557.48758,0.00095
2555.55886,0.00084
2553.63013,0.00068
2551.70141,0.00058
2549.77269,0.00064
2547.84396,0.00072
2545.91524,0.00065
2543.98651,0.00048
2542.05779,0.00035
2540.12907,0.00038
2538.20034,0.00055
2536.27162,0.00074
2534.34290,0.00077
2532.41417,0.00055
2530.48545,0.00031
2528.55673,0.00024
2526.62800,0.00024
2524.69928,0.00020
2522.77055,0.00020
2520.84183,0.00022
2518.91311,0.00018
2516.98438,0.00011
2515.05566,0.00003
2513.12694,0.00000
2511.19821,0.00005
2509.26949,0.00012
2507.34076,0.00014
2505.41204,0.00014
2503.48332,0.00014
2501.55459,0.00014
2499.62587,0.00012
2497.69715,0.00007
2495.76842,-0.00001
2493.83970,-0.00008
2491.91098,-0.00009
2489.98225,0.00001
2488.05353,0.00010
2486.12480,0.00006
2484.19608,0.00000
2482.26736,0.00003
2480.33863,0.00005
2478.40991,-0.00000
2476.48119,-0.00004
2474.55246,-0.00004
2472.62374,-0.00003
2470.69502,0.00000
2468.76629,0.00008
2466.83757,0.00016
2464.90884,0.00020
2462.98012,0.00019
2461.05140,0.00019
2459.12267,0.00017
2457.19395,0.00007
2455.26523,-0.00008
2453.33650,-0.00012
2451.40778,-0.00005
2449.47905,0.00000
2447.55033,-0.00003
2445.62161,-0.00004
2443.69288,0.00000
2441.76416,0.00002
2439.83544,0.00001
2437.90671,0.00005
2435.97799,0.00011
2434.04927,0.00006
2432.12054,-0.00000
2430.19182,0.00000
2428.26309,0.00001
2426.33437,-0.00000
2424.40565,0.00001
2422.47692,0.00003
2420.54820,0.00002
2418.61948,0.00003
2416.69075,0.00005
2414.76203,0.00005
2412.83331,0.00004
2410.90458,0.00010
2408.97586,0.00019
2407.04713,0.00025
2405.11841,0.00028
2403.18969,0.00028
2401.26096,0.00023
2399.33224,0.00020
2397.40352,0.00020
2395.47479,0.00022
2393.54607,0.00024
2391.61734,0.00026
2389.68862,0.00025
2387.75990,0.00025
2385.83117,0.00028
2383.90245,0.00036
2381.97373,0.00047
2380.04500,0.00059
2378.11628,0.00066
2376.18756,0.00061
2374.25883,0.00047
2372.33011,0.00036
2370.40138,0.00034
2368.47266,0.00042
2366.54394,0.00056
2364.61521,0.00066
2362.68649,0.00071
2360.75777,0.00075
2358.82904,0.00066
2356.90032,0.00033
2354.97160,0.00000
2353.04287,0.00010
2351.11415,0.00080
2349.18542,0.00139
2347.25670,0.00123
2345.32798,0.00068
2343.39925,0.00040
2341.47053,0.00035
2339.54181,0.00038
2337.61308,0.00051
2335.68436,0.00061
2333.75563,0.00059
2331.82691,0.00051
2329.89819,0.00044
2327.96946,0.00042
2326.04074,0.00043
2324.11202,0.00045
2322.18329,0.00046
2320.25457,0.00047
2318.32585,0.00049
2316.39712,0.00046
2314.46840,0.00044
2312.53967,0.00048
2310.61095,0.00061
2308.68223,0.00074
2306.75350,0.00074
2304.82478,0.00065
2302.89606,0.00056
2300.96733,0.00057
2299.03861,0.00060
2297.10989,0.00058
2295.18116,0.00055
2293.25244,0.00053
2291.32371,0.00053
2289.39499,0.00054
2287.46627,0.00056
2285.53754,0.00055
2283.60882,0.00051
2281.68010,0.00049
2279.75137,0.00049
2277.82265,0.00049
2275.89392,0.00047
2273.96520,0.00046
2272.03648,0.00047
2270.10775,0.00046
2268.17903,0.00041
2266.25031,0.00036
2264.32158,0.00036
2262.39286,0.00039
2260.46414,0.00046
2258.53541,0.00049
2256.60669,0.00044
2254.67796,0.00036
2252.74924,0.00035
2250.82052,0.00038
2248.89179,0.00036
2246.96307,0.00029
2245.03435,0.00017
2243.10562,0.00007
2241.17690,0.00001
2239.24818,0.00004
2237.31945,0.00014
2235.39073,0.00023
2233.46200,0.00020
2231.53328,0.00010
2229.60456,0.00002
2227.67583,-0.00002
2225.74711,-0.00005
2223.81839,-0.00012
2221.88966,-0.00018
2219.96094,-0.00018
2218.03221,-0.00014
2216.10349,-0.00011
2214.17477,-0.00008
2212.24604,-0.00001
2210.31732,0.00007
2208.38860,0.00011
2206.45987,0.00007
2204.53115,0.00000
2202.60243,-0.00002
2200.67370,0.00003
2198.74498,0.00005
2196.81625,0.00001
2194.88753,-0.00010
2192.95881,-0.00024
2191.03008,-0.00036
2189.10136,-0.00037
2187.17264,-0.00032
2185.24391,-0.00026
2183.31519,-0.00015
2181.38647,-0.00002
2179.45774,0.00004
2177.52902,0.00001
2175.60029,-0.00011
2173.67157,-0.00030
2171.74285,-0.00039
2169.81412,-0.00029
2167.88540,-0.00010
2165.95668,0.00000
2164.02795,0.00002
2162.09923,0.00006
2160.17050,0.00011
2158.24178,0.00013
2156.31306,0.00012
2154.38433,0.00007
2152.45561,0.00000
2150.52689,0.00000
2148.59816,0.00005
2146.66944,0.00008
2144.74072,0.00005
2142.81199,0.00003
2140.88327,0.00011
2138.95454,0.00013
2137.02582,0.00003
2135.09710,-0.00003
2133.16837,0.00004
2131.23965,0.00012
2129.31093,0.00013
2127.38220,0.00014
2125.45348,0.00016
2123.52476,0.00013
2121.59603,0.00008
2119.66731,0.00006
2117.73858,0.00005
2115.80986,0.00004
2113.88114,0.00003
2111.95241,0.00001
2110.02369,-0.00000
2108.09497,0.00002
2106.16624,0.00007
2104.23752,0.00008
2102.30880,0.00001
2100.38007,-0.00005
2098.45135,-0.00007
2096.52262,-0.00005
2094.59390,0.00000
2092.66518,-0.00002
2090.73645,-0.00010
2088.80773,-0.00019
2086.87901,-0.00019
2084.95028,-0.00014
2083.02156,-0.00014
2081.09283,-0.00021
2079.16411,-0.00025
2077.23539,-0.00026
2075.30666,-0.00025
2073.37794,-0.00020
2071.44922,-0.00016
2069.52049,-0.00014
2067.59177,-0.00007
2065.66305,0.00003
2063.73432,0.00009
2061.80560,0.00011
2059.87687,0.00010
2057.94815,0.00012
2056.01943,0.00018
2054.09070,0.00030
2052.16198,0.00044
2050.23326,0.00056
2048.30453,0.00065
2046.37581,0.00076
2044.44709,0.00091
2042.51836,0.00104
2040.58964,0.00116
2038.66091,0.00135
2036.73219,0.00161
2034.80347,0.00186
2032.87474,0.00207
2030.94602,0.00224
2029.01730,0.00235
2027.08857,0.00241
2025.15985,0.00243
2023.23112,0.00253
2021.30240,0.00277
2019.37368,0.00309
2017.44495,0.00331
2015.51623,0.00344
2013.58751,0.00360
2011.65878,0.00378
2009.73006,0.00390
2007.80134,0.00396
2005.87261,0.00404
2003.94389,0.00417
2002.01516,0.00435
2000.08644,0.00451
1998.15772,0.00457
1996.22899,0.00456
1994.30027,0.00460
1992.37155,0.00467
1990.44282,0.00472
1988.51410,0.00475
1986.58538,0.00478
1984.65665,0.00482
1982.72793,0.00483
1980.79920,0.00482
1978.87048,0.00478
1976.94176,0.00472
1975.01303,0.00464
1973.08431,0.00457
1971.15559,0.00452
1969.22686,0.00442
1967.29814,0.00429
1965.36941,0.00419
1963.44069,0.00413
1961.51197,0.00406
1959.58324,0.00396
1957.65452,0.00390
1955.72580,0.00392
1953.79707,0.00393
1951.86835,0.00389
1949.93963,0.00382
1948.01090,0.00376
1946.08218,0.00375
1944.15345,0.00371
1942.22473,0.00364
1940.29601,0.00360
1938.36728,0.00361
1936.43856,0.00362
1934.50984,0.00363
1932.58111,0.00366
1930.65239,0.00371
1928.72367,0.00379
1926.79494,0.00394
1924.86622,0.00411
1922.93749,0.00425
1921.00877,0.00439
1919.08005,0.00458
1917.15132,0.00476
1915.22260,0.00498
1913.29388,0.00529
1911.36515,0.00566
1909.43643,0.00603
1907.50770,0.00644
1905.57898,0.00693
1903.65026,0.00742
1901.72153,0.00789
1899.79281,0.00837
1897.86409,0.00882
1895.93536,0.00920
1894.00664,0.00958
1892.07792,0.00998
1890.14919,0.01031
1888.22047,0.01060
1886.29174,0.01098
1884.36302,0.01140
1882.43430,0.01170
1880.50557,0.01191
1878.57685,0.01209
1876.64813,0.01225
1874.71940,0.01237
1872.79068,0.01241
1870.86196,0.01235
1868.93323,0.01218
1867.00451,0.01196
1865.07578,0.01181
1863.14706,0.01163
1861.21834,0.01132
1859.28961,0.01091
1857.36089,0.01046
1855.43217,0.00999
1853.50344,0.00951
1851.57472,0.00907
1849.64599,0.00871
1847.71727,0.00840
1845.78855,0.00803
1843.85982,0.00755
1841.93110,0.00716
1840.00238,0.00698
1838.07365,0.00687
1836.14493,0.00673
1834.21621,0.00662
1832.28748,0.00653
1830.35876,0.00636
1828.43003,0.00615
1826.50131,0.00599
1824.57259,0.00582
1822.64386,0.00566
1820.71514,0.00558
1818.78642,0.00555
1816.85769,0.00553
1814.92897,0.00552
1813.00025,0.00548
1811.07152,0.00535
1809.14280,0.00517
1807.21407,0.00507
1805.28535,0.00509
1803.35663,0.00515
1801.42790,0.00515
1799.49918,0.00509
1797.57046,0.00504
1795.64173,0.00502
1793.71301,0.00495
1791.78428,0.00487
1789.85556,0.00489
1787.92684,0.00501
1785.99811,0.00512
1784.06939,0.00515
1782.14067,0.00514
1780.21194,0.00508
1778.28322,0.00506
1776.35450,0.00517
1774.42577,0.00521
1772.49705,0.00498
1770.56832,0.00467
1768.63960,0.00454
1766.71088,0.00456
1764.78215,0.00465
1762.85343,0.00471
1760.92471,0.00466
1758.99598,0.00451
1757.06726,0.00433
1755.13854,0.00416
1753.20981,0.00400
1751.28109,0.00379
1749.35236,0.00355
1747.42364,0.00340
1745.49492,0.00337
1743.56619,0.00343
1741.63747,0.00357
1739.70875,0.00383
1737.78002,0.00426
1735.85130,0.00478
1733.92257,0.00529
1731.99385,0.00589
1730.06513,0.00669
1728.13640,0.00765
1726.20768,0.00865
1724.27896,0.00958
1722.35023,0.01038
1720.42151,0.01118
1718.49279,0.01218
1716.56406,0.01337
1714.63534,0.01453
1712.70661,0.01566
1710.77789,0.01685
1708.84917,0.01820
1706.92044,0.01977
1704.99172,0.02150
1703.06300,0.02318
1701.13427,0.02495
1699.20555,0.02696
1697.27683,0.02899
1695.34810,0.03102
1693.41938,0.03308
1691.49065,0.03518
1689.56193,0.03731
1687.63321,0.03936
1685.70448,0.04150
1683.77576,0.04398
1681.84704,0.04645
1679.91831,0.04867
1677.98959,0.05079
1676.06087,0.05302
1674.13214,0.05539
1672.20342,0.05774
1670.27469,0.06024
1668.34597,0.06289
1666.41725,0.06537
1664.48852,0.06781
1662.55980,0.07040
1660.63108,0.07282
1658.70235,0.07482
1656.77363,0.07657
1654.84490,0.07844
1652.91618,0.08062
1650.98746,0.08271
1649.05873,0.08452
1647.13001,0.08630
1645.20129,0.08797
1643.27256,0.08937
1641.34384,0.09059
1639.41512,0.09159
1637.48639,0.09217
1635.55767,0.09226
1633.62894,0.09211
1631.70022,0.09189
1629.77150,0.09133
1627.84277,0.09027
1625.91405,0.08873
1623.98533,0.08665
1622.05660,0.08424
1620.12788,0.08187
1618.19916,0.07888
1616.27043,0.07478
1614.34171,0.07080
1612.41298,0.06750
1610.48426,0.06411
1608.55554,0.06026
1606.62681,0.05629
1604.69809,0.05249
1602.76937,0.04889
1600.84064,0.04550
1598.91192,0.04230
1596.98319,0.03930
1595.05447,0.03656
1593.12575,0.03413
1591.19702,0.03192
1589.26830,0.02990
1587.33958,0.02804
1585.41085,0.02625
1583.48213,0.02457
1581.55341,0.02315
1579.62468,0.02200
1577.69596,0.02076
1575.76723,0.01933
1573.83851,0.01829
1571.90979,0.01765
1569.98106,0.01681
1568.05234,0.01584
1566.12362,0.01518
1564.19489,0.01482
1562.26617,0.01444
1560.33745,0.01362
1558.40872,0.01233
1556.48000,0.01158
1554.55127,0.01147
1552.62255,0.01136
1550.69383,0.01105
1548.76510,0.01066
1546.83638,0.01035
1544.90766,0.01016
1542.97893,0.00995
1541.05021,0.00940
1539.12148,0.00862
1537.19276,0.00830
1535.26404,0.00823
1533.33531,0.00787
1531.40659,0.00741
1529.47787,0.00724
1527.54914,0.00717
1525.62042,0.00690
1523.69170,0.00640
1521.76297,0.00576
1519.83425,0.00517
1517.90552,0.00482
1515.97680,0.00463
1514.04808,0.00453
1512.11935,0.00451
1510.19063,0.00448
1508.26191,0.00410
1506.33318,0.00319
1504.40446,0.00256
1502.47574,0.00246
1500.54701,0.00227
1498.61829,0.00167
1496.68956,0.00097
1494.76084,0.00064
1492.83212,0.00068
1490.90339,0.00063
1488.97467,0.00030
1487.04595,0.00000
1485.11722,-0.00008
1483.18850,-0.00007
1481.25977,-0.00006
1479.33105,0.00000
1477.40233,0.00006
1475.47360,0.00013
1473.54488,0.00029
1471.61616,0.00063
1469.68743,0.00105
1467.75871,0.00137
1465.82999,0.00144
1463.90126,0.00141
1461.97254,0.00156
1460.04381,0.00182
1458.11509,0.00182
1456.18637,0.00147
1454.25764,0.00125
1452.32892,0.00128
1450.40020,0.00133
1448.47147,0.00134
1446.54275,0.00138
1444.61403,0.00154
1442.68530,0.00177
1440.75658,0.00192
1438.82785,0.00196
1436.89913,0.00203
1434.97041,0.00228
1433.04168,0.00264
1431.11296,0.00294
1429.18424,0.00313
1427.25551,0.00328
1425.32679,0.00349
1423.39806,0.00379
1421.46934,0.00416
1419.54062,0.00458
1417.61189,0.00512
1415.68317,0.00577
1413.75445,0.00659
1411.82572,0.00757
1409.89700,0.00866
1407.96828,0.00980
1406.03955,0.01094
1404.11083,0.01195
1402.18210,0.01258
1400.25338,0.01264
1398.32466,0.01212
1396.39593,0.01106
1394.46721,0.00958
1392.53849,0.00808
1390.60976,0.00677
1388.68104,0.00545
1386.75232,0.00411
1384.82359,0.00312
1382.89487,0.00263
1380.96614,0.00243
1379.03742,0.00224
1377.10870,0.00194
1375.17997,0.00153
1373.25125,0.00110
1371.32253,0.00080
1369.39380,0.00067
1367.46508,0.00060
1365.53635,0.00045
1363.60763,0.00021
1361.67891,0.00000
1359.75018,-0.00034
1357.82146,-0.00052
1355.89274,-0.00062
1353.96401,-0.00068
1352.03529,-0.00075
1350.10657,-0.00088
1348.17784,-0.00105
1346.24912,-0.00123
1344.32039,-0.00140
1342.39167,-0.00156
1340.46295,-0.00170
1338.53422,-0.00176
1336.60550,-0.00176
1334.67678,-0.00175
1332.74805,-0.00177
1330.81933,-0.00179
1328.89061,-0.00184
1326.96188,-0.00193
1325.03316,-0.00195
1323.10443,-0.00182
1321.17571,-0.00156
1319.24699,-0.00121
1317.31826,-0.00087
1315.38954,-0.00051
1313.46082,-0.00000
1311.53209,0.00063
1309.60337,0.00122
1307.67464,0.00171
1305.74592,0.00226
1303.81720,0.00298
1301.88847,0.00388
1299.95975,0.00486
1298.03103,0.00584
1296.10230,0.00688
1294.17358,0.00810
1292.24486,0.00949
1290.31613,0.01099
1288.38741,0.01256
1286.45868,0.01423
1284.52996,0.01604
1282.60124,0.01809
1280.67251,0.02045
1278.74379,0.02311
1276.81507,0.02605
1274.88634,0.02930
1272.95762,0.03290
1271.02890,0.03701
1269.10017,0.04176
1267.17145,0.04710
1265.24272,0.05305
1263.31400,0.05976
1261.38528,0.06737
1259.45655,0.07587
1257.52783,0.08516
1255.59911,0.09514
1253.67038,0.10543
1251.74166,0.11559
1249.81294,0.12539
1247.88421,0.13476
1245.95549,0.14374
1244.02676,0.15233
1242.09804,0.16036
1240.16932,0.16778
1238.24059,0.17476
1236.31187,0.18137
1234.38315,0.18747
1232.45442,0.19296
1230.52570,0.19801
1228.59697,0.20290
1226.66825,0.20767
1224.73953,0.21219
1222.81080,0.21654
1220.88208,0.22079
1218.95336,0.22490
1217.02463,0.22903
1215.09591,0.23322
1213.16719,0.23733
1211.23846,0.24132
1209.30974,0.24516
1207.38101,0.24889
1205.45229,0.25256
1203.52357,0.25629
1201.59484,0.26014
1199.66612,0.26392
1197.73740,0.26741
1195.80867,0.27063
1193.87995,0.27381
1191.95123,0.27717
1190.02250,0.28079
1188.09378,0.28455
1186.16505,0.28838
1184.23633,0.29210
1182.30761,0.29543
1180.37888,0.29868
1178.45016,0.30248
1176.52144,0.30667
1174.59271,0.31067
1172.66399,0.31422
1170.73526,0.31753
1168.80654,0.32092
1166.87782,0.32451
1164.94909,0.32807
1163.02037,0.33127
1161.09165,0.33417
1159.16292,0.33699
1157.23420,0.33977
1155.30548,0.34254
1153.37675,0.34540
1151.44803,0.34840
1149.51930,0.35150
1147.59058,0.35438
1145.66186,0.35699
1143.73313,0.35974
1141.80441,0.36290
1139.87569,0.36626
1137.94696,0.36939
1136.01824,0.37222
1134.08952,0.37518
1132.16079,0.37855
1130.23207,0.38236
1128.30334,0.38649
1126.37462,0.39086
1124.44590,0.39536
1122.51717,0.39972
1120.58845,0.40391
1118.65973,0.40834
1116.73100,0.41357
1114.80228,0.41909
1112.87355,0.42395
1110.94483,0.42851
1109.01611,0.43373
1107.08738,0.43928
1105.15866,0.44420
1103.22994,0.44818
1101.30121,0.45136
1099.37249,0.45420
1097.44377,0.45716
1095.51504,0.45978
1093.58632,0.46144
1091.65759,0.46245
1089.72887,0.46352
1087.80015,0.46435
1085.87142,0.46414
1083.94270,0.46324
1082.01398,0.46284
1080.08525,0.46324
1078.15653,0.46359
1076.22781,0.46349
1074.29908,0.46342
1072.37036,0.46350
1070.44163,0.46348
1068.51291,0.46364
1066.58419,0.46399
1064.65546,0.46433
1062.72674,0.46499
1060.79802,0.46595
1058.86929,0.46702
1056.94057,0.46816
1055.01184,0.46911
1053.08312,0.46955
1051.15440,0.46950
1049.22567,0.46940
1047.29695,0.46916
1045.36823,0.46839
1043.43950,0.46692
1041.51078,0.46476
1039.58206,0.46215
1037.65333,0.45923
1035.72461,0.45587
1033.79588,0.45212
1031.86716,0.44810
1029.93844,0.44353
1028.00971,0.43880
1026.08099,0.43473
1024.15227,0.43089
1022.22354,0.42653
1020.29482,0.42149
1018.36610,0.41595
1016.43737,0.41009
1014.50865,0.40387
1012.57992,0.39747
1010.65120,0.39118
1008.72248,0.38480
1006.79375,0.37776
1004.86503,0.36995
1002.93631,0.36162
1001.00758,0.35283
999.07886,0.34365
997.15013,0.33417
995.22141,0.32459
993.29269,0.31525
991.36396,0.30610
989.43524,0.29706
987.50652,0.28845
985.57779,0.28021
983.64907,0.27204
981.72035,0.26397
979.79162,0.25627
977.86290,0.24935
975.93417,0.24307
974.00545,0.23677
972.07673,0.23051
970.14800,0.22492
968.21928,0.22013
966.29056,0.21581
964.36183,0.21169
962.43311,0.20774
960.50439,0.20413
958.57566,0.20094
956.64694,0.19815
954.71821,0.19537
952.78949,0.19231
950.86077,0.18933
948.93204,0.18658
947.00332,0.18397
945.07460,0.18154
943.14587,0.17895
941.21715,0.17610
939.28842,0.17330
937.35970,0.17075
935.43098,0.16843
933.50225,0.16604
931.57353,0.16343
929.64481,0.16075
927.71608,0.15839
925.78736,0.15645
923.85864,0.15464
921.92991,0.15281
920.00119,0.15083
918.07246,0.14871
916.14374,0.14651
914.21502,0.14366
912.28629,0.13939
910.35757,0.13371
908.42885,0.12735
906.50012,0.12105
904.57140,0.11497
902.64268,0.10910
900.71395,0.10363
898.78523,0.09846
896.85650,0.09343
894.92778,0.08855
892.99906,0.08372
891.07033,0.07901
889.14161,0.07478
887.21289,0.07096
885.28416,0.06727
883.35544,0.06362
881.42671,0.06011
879.49799,0.05694
877.56927,0.05399
875.64054,0.05094
873.71182,0.04801
871.78310,0.04541
869.85437,0.04275
867.92565,0.03981
865.99693,0.03673
864.06820,0.03360
862.13948,0.03064
860.21075,0.02805
858.28203,0.02568
856.35331,0.02347
854.42458,0.02167
852.49586,0.02019
850.56714,0.01867
848.63841,0.01741
846.70969,0.01690
844.78097,0.01691
842.85224,0.01709
840.92352,0.01738
838.99479,0.01782
837.06607,0.01856
835.13735,0.01948
833.20862,0.02013
831.27990,0.02046
829.35118,0.02094
827.42245,0.02193
825.49373,0.02346
823.56501,0.02573
821.63628,0.02865
819.70756,0.03145
817.77883,0.03393
815.85011,0.03677
813.92139,0.04022
811.99266,0.04423
810.06394,0.04899
808.13522,0.05437
806.20649,0.06000
804.27777,0.06563
802.34904,0.07076
800.42032,0.07476
798.49160,0.07717
796.56287,0.07788
794.63415,0.07731
792.70543,0.07617
790.77670,0.07491
788.84798,0.07330
786.91926,0.07122
784.99053,0.06918
783.06181,0.06729
781.13308,0.06521
779.20436,0.06285
777.27564,0.05997
775.34691,0.05627
773.41819,0.05225
771.48947,0.04871
769.56074,0.04592
767.63202,0.04372
765.70330,0.04199
763.77457,0.04079
761.84585,0.04007
759.91712,0.03970
757.98840,0.03962
756.05968,0.03960
754.13095,0.03925
752.20223,0.03853
750.27351,0.03779
748.34478,0.03725
746.41606,0.03676
744.48733,0.03619
742.55861,0.03564
740.62989,0.03520
738.70116,0.03471
736.77244,0.03419
734.84372,0.03382
732.91499,0.03342
730.98627,0.03290
729.05755,0.03256
727.12882,0.03241
725.20010,0.03227
723.27137,0.03211
721.34265,0.03144
719.41393,0.03020
717.48520,0.02917
715.55648,0.02874
713.62776,0.02861
711.69903,0.02877
709.77031,0.02924
707.84159,0.02951
705.91286,0.02943
703.98414,0.02960
702.05541,0.03036
700.12669,0.03154
698.19797,0.03285
696.26924,0.03375
694.34052,0.03374
692.41180,0.03279
690.48307,0.03152
688.55435,0.03077
686.62562,0.03062
684.69690,0.03043
682.76818,0.02997
680.83945,0.02943
678.91073,0.02871
676.98201,0.02798
675.05328,0.02787
673.12456,0.02831
671.19584,0.02776
669.26711,0.02560
667.33839,0.02437
665.40966,0.02521
663.48094,0.02596
661.55222,0.02613
659.62349,0.02638
657.69477,0.02685
655.76605,0.02788
653.83732,0.02972
651.90860,0.03198
649.97988,0.03427
648.05115,0.03652
646.12243,0.03882
644.19370,0.04140
642.26498,0.04422
640.33626,0.04672
638.40753,0.04869
636.47881,0.05035
634.55009,0.05179
632.62136,0.05330
630.69264,0.05520
628.76391,0.05700
626.83519,0.05783
624.90647,0.05785
622.97774,0.05799
621.04902,0.05892
619.12030,0.06050
617.19157,0.06211
615.26285,0.06352
613.33413,0.06491
611.40540,0.06669
609.47668,0.06911
607.54795,0.07153
605.61923,0.07360
603.69051,0.07594
601.76178,0.07876
599.83306,0.08159
597.90434,0.08410
595.97561,0.08622
594.04689,0.08809
592.11817,0.09045
590.18944,0.09362
588.26072,0.09636
586.33199,0.09779
584.40327,0.09839
582.47455,0.09887
580.54582,0.09958
578.61710,0.10011
576.68838,0.09966
574.75965,0.09855
572.83093,0.09765
570.90220,0.09745
568.97348,0.09804
567.04476,0.09904
565.11603,0.10046
563.18731,0.10169
561.25859,0.10165
559.32986,0.10132
557.40114,0.10235
555.47242,0.10520
553.54369,0.10970
551.61497,0.11442
549.68624,0.11778
547.75752,0.12042
545.82880,0.12350
543.90007,0.12705
541.97135,0.13066
540.04263,0.13397
538.11390,0.13732
536.18518,0.14034
534.25646,0.14155
532.32773,0.14157
530.39901,0.14264
528.47028,0.14450
526.54156,0.14552
524.61284,0.14572
522.68411,0.14578
520.75539,0.14587
518.82667,0.14558
516.89794,0.14412
514.96922,0.14214
513.04049,0.14179
511.11177,0.14364
509.18305,0.14564
507.25432,0.14638
505.32560,0.14641
503.39688,0.14677
501.46815,0.14871
499.53943,0.15215
497.61071,0.15647
495.68198,0.16321
493.75326,0.17292
491.82453,0.18307
489.89581,0.19193
487.96709,0.19964
486.03836,0.20645
484.10964,0.21396
482.18092,0.22433
480.25219,0.23567
478.32347,0.24401
476.39475,0.25008
474.46602,0.25695
472.53730,0.26256
470.60857,0.26416
468.67985,0.26452
466.75113,0.26460
464.82240,0.26184
462.89368,0.25743
460.96496,0.25486
459.03623,0.25345
457.10751,0.24981
455.17878,0.24272
453.25006,0.23382
451.32134,0.22551
449.39261,0.21864
447.46389,0.21190
445.53517,0.20411
443.60644,0.19623
441.67772,0.19011
439.74900,0.18596
437.82027,0.18219
435.89155,0.17690
433.96282,0.17022
432.03410,0.16589
430.10538,0.16554
428.17665,0.16487
426.24793,0.16097
424.31921,0.15486
422.39048,0.14664
420.46176,0.13710
418.53304,0.12700
416.60431,0.11531
414.67559,0.10457
412.74686,0.09786
410.81814,0.09224
408.88942,0.08438
406.96069,0.07551
405.03197,0.06465
403.10325,0.05255
401.17452,0.04491
399.24580,0.04204
397.31708,0.03993
395.38835,0.03904
393.45963,0.03712
391.53090,0.02729
389.60218,0.01853
387.67346,0.02760
385.74473,0.04191
383.81601,0.03141
381.88729,0.00414
379.95856,0.00000
378.02984,0.02697
376.10111,0.06685
374.17239,0.06878
372.24367,0.03188
370.31494,0.00349
368.38622,0.00000
